{
  "AcquisitionMatrixPE": 100,
  "AcquisitionNumber": 1,
  "AcquisitionTime": "15:01:24.700000",
  "BandwidthPerPixelPhaseEncode": 18.519,
  "BaseResolution": 100,
  "BodyPartExamined": "BRAIN",
  "CoilCombinationMethod": "Sum of Squares",
  "ConsistencyInfo": "N4_VE11C_LATEST_20160120",
  "ConversionSoftware": "dcm2niix",
  "ConversionSoftwareVersion": "v1.0.20211006",
  "DerivedVendorReportedEchoSpacing": 0.000539986,
  "DeviceSerialNumber": "166078",
  "DwellTime": 2.1e-06,
  "EchoTime": 0.034,
  "EchoTrainLength": 100,
  "EffectiveEchoSpacing": 0.000539986,
  "FlipAngle": 90,
  "ImageOrientationPatientDICOM": [1, 0, 0, 0, 0.958323, -0.285688],
  "ImageOrientationText": "Tra>Cor(-16.6)",
  "ImageType": [
    "ORIGINAL",
    "PRIMARY",
    "M",
    "ND",
    "MOSAIC"
],
  "ImagingFrequency": 123.258,
  "InPlanePhaseEncodingDirectionDICOM": "COL",
  "InstitutionAddress": "Street StreetNo,Bei Jing,District,CN,ZIP",
  "InstitutionName": "BeiJing Normal University",
  "InstitutionalDepartmentName": "Department",
  "MRAcquisitionType": "2D",
  "MagneticFieldStrength": 3,
  "Manufacturer": "Siemens",
  "ManufacturersModelName": "Prisma",
  "Modality": "MR",
  "MultibandAccelerationFactor": 3,
  "PartialFourier": 1,
  "PatientPosition": "HFS",
  "PercentPhaseFOV": 100,
  "PercentSampling": 100,
  "PhaseEncodingDirection": "j-",
  "PhaseEncodingSteps": 100,
  "PhaseResolution": 1,
  "PixelBandwidth": 2380,
  "ProcedureStepDescription": "BNU_P2018_64CH^Zhen.ZongLei",
  "ProtocolName": "bold_100x100_s3_2x2x2_static_156",
  "PulseSequenceDetails": "%SiemensSeq%\\ep2d_bold",
  "ReceiveCoilActiveElements": "HC1-7;NC1",
  "ReceiveCoilName": "HeadNeck_64",
  "ReconMatrixPE": 100,
  "RefLinesPE": 32,
  "RepetitionTime": 2,
  "SAR": 0.06971,
  "ScanOptions": "FS",
  "ScanningSequence": "EP",
  "SequenceName": "*epfid2d1_100",
  "SequenceVariant": "SK",
  "SeriesDescription": "bold_100x100_s3_2x2x2_static_156",
  "SeriesNumber": 11,
  "ShimSetting": [-5468, -11462, -1276, 307, -14, -88, -198, 92],
  "SliceThickness": 2,
  "SliceTiming": [1.485, 0, 0.99, 0.0825, 1.0725, 0.165, 1.155, 0.2475, 1.2375, 0.33, 1.32, 0.4125, 1.4025, 0.5775, 1.5675, 0.66, 1.65, 0.7425, 1.7325, 0.825, 1.815, 0.9075, 1.8975, 0.495, 1.485, 0, 0.99, 0.0825, 1.0725, 0.165, 1.155, 0.2475, 1.2375, 0.33, 1.32, 0.4125, 1.4025, 0.5775, 1.5675, 0.66, 1.65, 0.7425, 1.7325, 0.825, 1.815, 0.9075, 1.8975, 0.495, 1.485, 0, 0.99, 0.0825, 1.0725, 0.165, 1.155, 0.2475, 1.2375, 0.33, 1.32, 0.4125, 1.4025, 0.5775, 1.5675, 0.66, 1.65, 0.7425, 1.7325, 0.825, 1.815, 0.9075, 1.8975, 0.495],
  "SoftwareVersions": "syngo MR E11",
  "SpacingBetweenSlices": 2,
  "StationName": "AWP166078",
  "TaskName": "action",
  "TotalReadoutTime": 0.0534586,
  "TxRefAmp": 227.833,
  "dcmmeta_affine": [
    [-2.0, 0.0, 0.0, 100.0],
    [0.0, 1.9166451692581177, -0.5713766813278198, -72.54215240478516],
    [0.0, 0.5713767409324646, 1.9166451692581177, -92.9390869140625],
    [0.0, 0.0, 0.0, 1.0]
],
  "dcmmeta_reorient_transform": [
    [0.0, -1.0, 0.0, 99.0],
    [1.0, 0.0, 0.0, 0.0],
    [0.0, 0.0, 1.0, 0.0],
    [0.0, 0.0, 0.0, 1.0]
],
  "dcmmeta_shape": [100, 100, 72, 156],
  "dcmmeta_slice_dim": 2,
  "dcmmeta_version": 0.6,
  "global": {
    "const": {
      "AcquisitionMatrix": [100, 0, 0, 100],
      "AngioFlag": "N",
      "BitsAllocated": 16,
      "BitsStored": 12,
      "BodyPartExamined": "BRAIN",
      "Columns": 900,
      "EchoNumbers": 1,
      "EchoTime": 34.0,
      "EchoTrainLength": 100,
      "FlipAngle": 90.0,
      "HighBit": 11,
      "ImageOrientationPatient": [1.0, 0.0, 0.0, 0.0, 0.95832257648472, -0.2856883606304],
      "ImagePositionPatient": [-900.0, -883.86378151325, 192.17789706492],
      "ImageType": [
        "ORIGINAL",
        "PRIMARY",
        "M",
        "ND",
        "MOSAIC"
],
      "ImagedNucleus": "1H",
      "ImagingFrequency": 123.257699,
      "InPlanePhaseEncodingDirection": "COL",
      "MRAcquisitionType": "2D",
      "MagneticFieldStrength": 3.0,
      "Manufacturer": "SIEMENS",
      "ManufacturerModelName": "Prisma",
      "Modality": "MR",
      "NumberOfAverages": 1.0,
      "NumberOfPhaseEncodingSteps": 100,
      "PercentPhaseFieldOfView": 100.0,
      "PercentSampling": 100.0,
      "PerformedProcedureStepStartTime": "141948.320000",
      "PhotometricInterpretation": "MONOCHROME2",
      "PixelBandwidth": 2380.0,
      "PixelRepresentation": 0,
      "PixelSpacing": [2.0, 2.0],
      "ProtocolName": "bold_100x100_s3_2x2x2_static_156",
      "RepetitionTime": 2000.0,
      "Rows": 900,
      "SAR": 0.0697099620386,
      "SamplesPerPixel": 1,
      "ScanOptions": "FS",
      "ScanningSequence": "EP",
      "SequenceName": "*epfid2d1_100",
      "SequenceVariant": "SK",
      "SeriesDescription": "bold_100x100_s3_2x2x2_static_156",
      "SeriesNumber": 11,
      "SeriesTime": "150127.722000",
      "SliceLocation": -68.341177302438,
      "SliceThickness": 2.0,
      "SmallestImagePixelValue": 0,
      "SoftwareVersions": "syngo MR E11",
      "SpacingBetweenSlices": 1.9999999601565,
      "SpecificCharacterSet": "ISO_IR 100",
      "StudyID": "1",
      "StudyTime": "141948.217000",
      "TransmitCoilName": "Body",
      "VariableFlipAngleFlag": "N",
      "WindowCenterWidthExplanation": "Algo1",
      "dBdt": 0.0},
    "slices": {}
  },
  "time": {
    "samples": {
      "AcquisitionNumber": [1, 2, 3, 4, 5, 6, 7, 8, 9, 10, 11, 12, 13, 14, 15, 16, 17, 18, 19, 20, 21, 22, 23, 24, 25, 26, 27, 28, 29, 30, 31, 32, 33, 34, 35, 36, 37, 38, 39, 40, 41, 42, 43, 44, 45, 46, 47, 48, 49, 50, 51, 52, 53, 54, 55, 56, 57, 58, 59, 60, 61, 62, 63, 64, 65, 66, 67, 68, 69, 70, 71, 72, 73, 74, 75, 76, 77, 78, 79, 80, 81, 82, 83, 84, 85, 86, 87, 88, 89, 90, 91, 92, 93, 94, 95, 96, 97, 98, 99, 100, 101, 102, 103, 104, 105, 106, 107, 108, 109, 110, 111, 112, 113, 114, 115, 116, 117, 118, 119, 120, 121, 122, 123, 124, 125, 126, 127, 128, 129, 130, 131, 132, 133, 134, 135, 136, 137, 138, 139, 140, 141, 142, 143, 144, 145, 146, 147, 148, 149, 150, 151, 152, 153, 154, 155, 156],
      "AcquisitionTime": ["150124.700000", "150126.700000", "150128.700000", "150130.700000", "150132.700000", "150134.700000", "150136.700000", "150138.700000", "150140.700000", "150142.700000", "150144.700000", "150146.700000", "150148.700000", "150150.700000", "150152.700000", "150154.700000", "150156.700000", "150158.700000", "150200.700000", "150202.700000", "150204.700000", "150206.700000", "150208.700000", "150210.700000", "150212.700000", "150214.700000", "150216.700000", "150218.700000", "150220.700000", "150222.700000", "150224.700000", "150226.700000", "150228.700000", "150230.700000", "150232.700000", "150234.700000", "150236.700000", "150238.700000", "150240.700000", "150242.700000", "150244.700000", "150246.700000", "150248.700000", "150250.700000", "150252.700000", "150254.700000", "150256.700000", "150258.700000", "150300.700000", "150302.700000", "150304.700000", "150306.700000", "150308.700000", "150310.700000", "150312.700000", "150314.700000", "150316.700000", "150318.700000", "150320.700000", "150322.700000", "150324.700000", "150326.700000", "150328.700000", "150330.700000", "150332.700000", "150334.700000", "150336.700000", "150338.700000", "150340.700000", "150342.700000", "150344.700000", "150346.700000", "150348.700000", "150350.700000", "150352.700000", "150354.700000", "150356.700000", "150358.700000", "150400.700000", "150402.700000", "150404.700000", "150406.700000", "150408.700000", "150410.700000", "150412.700000", "150414.700000", "150416.700000", "150418.700000", "150420.700000", "150422.700000", "150424.700000", "150426.700000", "150428.700000", "150430.700000", "150432.700000", "150434.700000", "150436.700000", "150438.700000", "150440.700000", "150442.700000", "150444.700000", "150446.700000", "150448.700000", "150450.700000", "150452.700000", "150454.700000", "150456.700000", "150458.700000", "150500.700000", "150502.700000", "150504.700000", "150506.700000", "150508.700000", "150510.700000", "150512.700000", "150514.700000", "150516.700000", "150518.700000", "150520.700000", "150522.700000", "150524.700000", "150526.700000", "150528.700000", "150530.700000", "150532.700000", "150534.700000", "150536.700000", "150538.700000", "150540.700000", "150542.700000", "150544.700000", "150546.700000", "150548.700000", "150550.700000", "150552.700000", "150554.700000", "150556.700000", "150558.700000", "150600.700000", "150602.700000", "150604.700000", "150606.700000", "150608.700000", "150610.700000", "150612.700000", "150614.700000", "150616.700000", "150618.700000", "150620.700000", "150622.700000", "150624.700000", "150626.700000", "150628.700000", "150630.700000", "150632.700000", "150634.700000"],
      "ContentTime": ["150127.726000", "150129.222000", "150131.222000", "150133.222000", "150135.222000", "150137.222000", "150139.221000", "150141.221000", "150143.221000", "150145.221000", "150147.222000", "150149.222000", "150151.223000", "150153.221000", "150155.221000", "150157.221000", "150159.221000", "150201.222000", "150203.222000", "150205.223000", "150207.222000", "150209.223000", "150211.221000", "150213.222000", "150215.222000", "150217.222000", "150219.222000", "150221.223000", "150223.223000", "150225.222000", "150227.223000", "150229.221000", "150231.222000", "150233.222000", "150235.221000", "150237.221000", "150239.222000", "150241.223000", "150243.222000", "150245.221000", "150247.222000", "150249.221000", "150251.222000", "150253.222000", "150255.222000", "150257.223000", "150259.223000", "150301.222000", "150303.221000", "150305.221000", "150307.221000", "150309.221000", "150311.221000", "150313.221000", "150315.223000", "150317.223000", "150319.223000", "150321.221000", "150323.222000", "150325.222000", "150327.222000", "150329.222000", "150331.222000", "150333.223000", "150335.223000", "150337.223000", "150339.222000", "150341.221000", "150343.221000", "150345.222000", "150347.222000", "150349.223000", "150351.222000", "150353.223000", "150355.222000", "150357.222000", "150359.222000", "150401.222000", "150403.221000", "150405.222000", "150407.223000", "150409.223000", "150411.223000", "150413.222000", "150415.222000", "150417.222000", "150419.222000", "150421.221000", "150423.222000", "150425.223000", "150427.223000", "150429.223000", "150431.222000", "150433.221000", "150435.221000", "150437.221000", "150439.222000", "150441.222000", "150443.223000", "150445.223000", "150447.223000", "150449.221000", "150451.222000", "150453.221000", "150455.221000", "150457.222000", "150459.223000", "150501.222000", "150503.222000", "150505.221000", "150507.221000", "150509.221000", "150511.221000", "150513.221000", "150515.221000", "150517.223000", "150519.223000", "150521.222000", "150523.221000", "150525.222000", "150527.222000", "150529.222000", "150531.222000", "150533.222000", "150535.223000", "150537.223000", "150539.223000", "150541.221000", "150543.222000", "150545.221000", "150547.221000", "150549.222000", "150551.223000", "150553.222000", "150555.223000", "150557.223000", "150559.222000", "150601.222000", "150603.221000", "150605.222000", "150607.222000", "150609.223000", "150611.222000", "150613.223000", "150615.222000", "150617.222000", "150619.222000", "150621.222000", "150623.221000", "150625.221000", "150627.223000", "150629.223000", "150631.223000", "150633.221000", "150635.222000", "150636.949000"],
      "InstanceCreationTime": ["150127.726000", "150129.222000", "150131.222000", "150133.222000", "150135.222000", "150137.222000", "150139.221000", "150141.221000", "150143.221000", "150145.221000", "150147.222000", "150149.222000", "150151.223000", "150153.221000", "150155.221000", "150157.221000", "150159.221000", "150201.222000", "150203.222000", "150205.223000", "150207.222000", "150209.223000", "150211.221000", "150213.222000", "150215.222000", "150217.222000", "150219.222000", "150221.223000", "150223.223000", "150225.222000", "150227.223000", "150229.221000", "150231.222000", "150233.222000", "150235.221000", "150237.221000", "150239.222000", "150241.223000", "150243.222000", "150245.221000", "150247.222000", "150249.221000", "150251.222000", "150253.222000", "150255.222000", "150257.223000", "150259.223000", "150301.222000", "150303.221000", "150305.221000", "150307.221000", "150309.221000", "150311.221000", "150313.221000", "150315.223000", "150317.223000", "150319.223000", "150321.221000", "150323.222000", "150325.222000", "150327.222000", "150329.222000", "150331.222000", "150333.223000", "150335.223000", "150337.223000", "150339.222000", "150341.221000", "150343.221000", "150345.222000", "150347.222000", "150349.223000", "150351.222000", "150353.223000", "150355.222000", "150357.222000", "150359.222000", "150401.222000", "150403.221000", "150405.222000", "150407.223000", "150409.223000", "150411.223000", "150413.222000", "150415.222000", "150417.222000", "150419.222000", "150421.221000", "150423.222000", "150425.223000", "150427.223000", "150429.223000", "150431.222000", "150433.221000", "150435.221000", "150437.221000", "150439.222000", "150441.222000", "150443.223000", "150445.223000", "150447.223000", "150449.221000", "150451.222000", "150453.221000", "150455.221000", "150457.222000", "150459.223000", "150501.222000", "150503.222000", "150505.221000", "150507.221000", "150509.221000", "150511.221000", "150513.221000", "150515.221000", "150517.223000", "150519.223000", "150521.222000", "150523.221000", "150525.222000", "150527.222000", "150529.222000", "150531.222000", "150533.222000", "150535.223000", "150537.223000", "150539.223000", "150541.221000", "150543.222000", "150545.221000", "150547.221000", "150549.222000", "150551.223000", "150553.222000", "150555.223000", "150557.223000", "150559.222000", "150601.222000", "150603.221000", "150605.222000", "150607.222000", "150609.223000", "150611.222000", "150613.223000", "150615.222000", "150617.222000", "150619.222000", "150621.222000", "150623.221000", "150625.221000", "150627.223000", "150629.223000", "150631.223000", "150633.221000", "150635.222000", "150636.949000"],
      "InstanceNumber": [1, 2, 3, 4, 5, 6, 7, 8, 9, 10, 11, 12, 13, 14, 15, 16, 17, 18, 19, 20, 21, 22, 23, 24, 25, 26, 27, 28, 29, 30, 31, 32, 33, 34, 35, 36, 37, 38, 39, 40, 41, 42, 43, 44, 45, 46, 47, 48, 49, 50, 51, 52, 53, 54, 55, 56, 57, 58, 59, 60, 61, 62, 63, 64, 65, 66, 67, 68, 69, 70, 71, 72, 73, 74, 75, 76, 77, 78, 79, 80, 81, 82, 83, 84, 85, 86, 87, 88, 89, 90, 91, 92, 93, 94, 95, 96, 97, 98, 99, 100, 101, 102, 103, 104, 105, 106, 107, 108, 109, 110, 111, 112, 113, 114, 115, 116, 117, 118, 119, 120, 121, 122, 123, 124, 125, 126, 127, 128, 129, 130, 131, 132, 133, 134, 135, 136, 137, 138, 139, 140, 141, 142, 143, 144, 145, 146, 147, 148, 149, 150, 151, 152, 153, 154, 155, 156],
      "LargestImagePixelValue": [3348, 3274, 3316, 3248, 3317, 3230, 3316, 3268, 3261, 3292, 3338, 3313, 3282, 3326, 3279, 3307, 3279, 3278, 3238, 3253, 3259, 3245, 3257, 3251, 3251, 3243, 3265, 3263, 3229, 3240, 3261, 3192, 3237, 3239, 3265, 3300, 3268, 3259, 3250, 3271, 3292, 3278, 3295, 3246, 3276, 3264, 3245, 3273, 3241, 3190, 3262, 3241, 3268, 3272, 3276, 3237, 3266, 3282, 3278, 3232, 3254, 3255, 3301, 3295, 3271, 3282, 3231, 3250, 3283, 3228, 3291, 3224, 3282, 3243, 3291, 3240, 3274, 3292, 3266, 3236, 3274, 3282, 3233, 3310, 3288, 3268, 3270, 3236, 3285, 3254, 3262, 3258, 3240, 3277, 3273, 3274, 3241, 3281, 3248, 3331, 3259, 3267, 3277, 3222, 3281, 3241, 3336, 3261, 3339, 3246, 3275, 3239, 3273, 3267, 3238, 3217, 3287, 3214, 3257, 3247, 3282, 3294, 3288, 3290, 3242, 3269, 3336, 3270, 3253, 3265, 3287, 3217, 3263, 3245, 3235, 3257, 3222, 3323, 3257, 3276, 3287, 3247, 3249, 3274, 3287, 3279, 3293, 3250, 3243, 3239, 3262, 3247, 3253, 3241, 3264, 3232],
      "WindowCenter": [809.0, 808.0, 808.0, 807.0, 807.0, 806.0, 807.0, 805.0, 805.0, 807.0, 806.0, 807.0, 807.0, 807.0, 806.0, 807.0, 806.0, 805.0, 803.0, 803.0, 804.0, 804.0, 804.0, 803.0, 804.0, 805.0, 806.0, 805.0, 804.0, 804.0, 803.0, 802.0, 802.0, 803.0, 804.0, 805.0, 804.0, 804.0, 803.0, 804.0, 805.0, 806.0, 806.0, 804.0, 804.0, 804.0, 804.0, 804.0, 803.0, 802.0, 802.0, 804.0, 806.0, 806.0, 804.0, 802.0, 802.0, 804.0, 805.0, 804.0, 804.0, 804.0, 804.0, 805.0, 805.0, 805.0, 804.0, 805.0, 805.0, 805.0, 806.0, 806.0, 807.0, 806.0, 807.0, 807.0, 809.0, 809.0, 807.0, 805.0, 805.0, 804.0, 804.0, 805.0, 804.0, 804.0, 804.0, 803.0, 804.0, 805.0, 806.0, 806.0, 807.0, 807.0, 806.0, 806.0, 807.0, 807.0, 805.0, 807.0, 808.0, 808.0, 806.0, 804.0, 804.0, 804.0, 805.0, 803.0, 805.0, 806.0, 808.0, 807.0, 806.0, 805.0, 804.0, 804.0, 805.0, 804.0, 804.0, 805.0, 807.0, 807.0, 805.0, 805.0, 805.0, 806.0, 806.0, 804.0, 804.0, 806.0, 807.0, 808.0, 809.0, 807.0, 806.0, 805.0, 805.0, 806.0, 807.0, 807.0, 806.0, 806.0, 806.0, 806.0, 807.0, 806.0, 806.0, 805.0, 806.0, 806.0, 807.0, 805.0, 805.0, 804.0, 805.0, 806.0],
      "WindowWidth": [1732.0, 1730.0, 1729.0, 1725.0, 1726.0, 1724.0, 1725.0, 1722.0, 1722.0, 1726.0, 1725.0, 1726.0, 1726.0, 1726.0, 1724.0, 1726.0, 1724.0, 1720.0, 1716.0, 1716.0, 1718.0, 1720.0, 1719.0, 1717.0, 1718.0, 1721.0, 1723.0, 1722.0, 1718.0, 1718.0, 1717.0, 1712.0, 1712.0, 1716.0, 1719.0, 1721.0, 1719.0, 1718.0, 1717.0, 1718.0, 1721.0, 1724.0, 1724.0, 1719.0, 1719.0, 1718.0, 1719.0, 1719.0, 1716.0, 1714.0, 1715.0, 1720.0, 1724.0, 1724.0, 1717.0, 1713.0, 1715.0, 1720.0, 1722.0, 1719.0, 1719.0, 1718.0, 1720.0, 1721.0, 1723.0, 1723.0, 1720.0, 1720.0, 1722.0, 1722.0, 1725.0, 1725.0, 1727.0, 1725.0, 1728.0, 1726.0, 1731.0, 1731.0, 1726.0, 1721.0, 1721.0, 1720.0, 1718.0, 1721.0, 1719.0, 1719.0, 1718.0, 1717.0, 1720.0, 1722.0, 1724.0, 1725.0, 1725.0, 1726.0, 1725.0, 1725.0, 1728.0, 1727.0, 1722.0, 1726.0, 1730.0, 1730.0, 1724.0, 1718.0, 1718.0, 1718.0, 1721.0, 1718.0, 1721.0, 1725.0, 1730.0, 1726.0, 1724.0, 1721.0, 1719.0, 1719.0, 1721.0, 1719.0, 1718.0, 1723.0, 1728.0, 1726.0, 1722.0, 1721.0, 1720.0, 1723.0, 1724.0, 1720.0, 1719.0, 1723.0, 1728.0, 1729.0, 1732.0, 1728.0, 1724.0, 1722.0, 1721.0, 1725.0, 1726.0, 1726.0, 1724.0, 1723.0, 1723.0, 1725.0, 1725.0, 1724.0, 1724.0, 1723.0, 1724.0, 1725.0, 1726.0, 1723.0, 1720.0, 1720.0, 1722.0, 1725.0]
    },
    "slices": {}
  }
}