{
  "AcquisitionMatrixPE": 100,
  "AcquisitionNumber": 1,
  "AcquisitionTime": "14:34:30.647500",
  "BandwidthPerPixelPhaseEncode": 18.519,
  "BaseResolution": 100,
  "BodyPartExamined": "BRAIN",
  "CoilCombinationMethod": "Sum of Squares",
  "ConsistencyInfo": "N4_VE11C_LATEST_20160120",
  "ConversionSoftware": "dcm2niix",
  "ConversionSoftwareVersion": "v1.0.20211006",
  "DerivedVendorReportedEchoSpacing": 0.000539986,
  "DeviceSerialNumber": "166078",
  "DwellTime": 2.1e-06,
  "EchoTime": 0.034,
  "EchoTrainLength": 100,
  "EffectiveEchoSpacing": 0.000539986,
  "FlipAngle": 90,
  "ImageOrientationPatientDICOM": [1, 0, 0, 0, 0.958323, -0.285688],
  "ImageOrientationText": "Tra>Cor(-16.6)",
  "ImageType": [
    "ORIGINAL",
    "PRIMARY",
    "M",
    "ND",
    "MOSAIC"
],
  "ImagingFrequency": 123.258,
  "InPlanePhaseEncodingDirectionDICOM": "COL",
  "InstitutionAddress": "Street StreetNo,Bei Jing,District,CN,ZIP",
  "InstitutionName": "BeiJing Normal University",
  "InstitutionalDepartmentName": "Department",
  "MRAcquisitionType": "2D",
  "MagneticFieldStrength": 3,
  "Manufacturer": "Siemens",
  "ManufacturersModelName": "Prisma",
  "Modality": "MR",
  "MultibandAccelerationFactor": 3,
  "PartialFourier": 1,
  "PatientPosition": "HFS",
  "PercentPhaseFOV": 100,
  "PercentSampling": 100,
  "PhaseEncodingDirection": "j-",
  "PhaseEncodingSteps": 100,
  "PhaseResolution": 1,
  "PixelBandwidth": 2380,
  "ProcedureStepDescription": "BNU_P2018_64CH^Zhen.ZongLei",
  "ProtocolName": "bold_100x100_s3_2x2x2_static_156",
  "PulseSequenceDetails": "%SiemensSeq%\\ep2d_bold",
  "ReceiveCoilActiveElements": "HC1-7;NC1",
  "ReceiveCoilName": "HeadNeck_64",
  "ReconMatrixPE": 100,
  "RefLinesPE": 32,
  "RepetitionTime": 2,
  "SAR": 0.06971,
  "ScanOptions": "FS",
  "ScanningSequence": "EP",
  "SequenceName": "*epfid2d1_100",
  "SequenceVariant": "SK",
  "SeriesDescription": "bold_100x100_s3_2x2x2_static_156",
  "SeriesNumber": 5,
  "ShimSetting": [-5468, -11462, -1276, 307, -14, -88, -198, 92],
  "SliceThickness": 2,
  "SliceTiming": [1.485, 0, 0.99, 0.0825, 1.0725, 0.165, 1.155, 0.2475, 1.2375, 0.33, 1.32, 0.4125, 1.4025, 0.5775, 1.5675, 0.66, 1.65, 0.7425, 1.7325, 0.825, 1.815, 0.9075, 1.8975, 0.495, 1.485, 0, 0.99, 0.0825, 1.0725, 0.165, 1.155, 0.2475, 1.2375, 0.33, 1.32, 0.4125, 1.4025, 0.5775, 1.5675, 0.66, 1.65, 0.7425, 1.7325, 0.825, 1.815, 0.9075, 1.8975, 0.495, 1.485, 0, 0.99, 0.0825, 1.0725, 0.165, 1.155, 0.2475, 1.2375, 0.33, 1.32, 0.4125, 1.4025, 0.5775, 1.5675, 0.66, 1.65, 0.7425, 1.7325, 0.825, 1.815, 0.9075, 1.8975, 0.495],
  "SoftwareVersions": "syngo MR E11",
  "SpacingBetweenSlices": 2,
  "StationName": "AWP166078",
  "TaskName": "action",
  "TotalReadoutTime": 0.0534586,
  "TxRefAmp": 227.833,
  "dcmmeta_affine": [
    [-2.0, 0.0, 0.0, 100.0],
    [0.0, 1.9166451692581177, -0.5713766813278198, -72.54215240478516],
    [0.0, 0.5713767409324646, 1.9166451692581177, -92.9390869140625],
    [0.0, 0.0, 0.0, 1.0]
],
  "dcmmeta_reorient_transform": [
    [0.0, -1.0, 0.0, 99.0],
    [1.0, 0.0, 0.0, 0.0],
    [0.0, 0.0, 1.0, 0.0],
    [0.0, 0.0, 0.0, 1.0]
],
  "dcmmeta_shape": [100, 100, 72, 156],
  "dcmmeta_slice_dim": 2,
  "dcmmeta_version": 0.6,
  "global": {
    "const": {
      "AcquisitionMatrix": [100, 0, 0, 100],
      "AngioFlag": "N",
      "BitsAllocated": 16,
      "BitsStored": 12,
      "BodyPartExamined": "BRAIN",
      "Columns": 900,
      "EchoNumbers": 1,
      "EchoTime": 34.0,
      "EchoTrainLength": 100,
      "FlipAngle": 90.0,
      "HighBit": 11,
      "ImageOrientationPatient": [1.0, 0.0, 0.0, 0.0, 0.95832257648472, -0.2856883606304],
      "ImagePositionPatient": [-900.0, -883.86378151325, 192.17789706492],
      "ImageType": [
        "ORIGINAL",
        "PRIMARY",
        "M",
        "ND",
        "MOSAIC"
],
      "ImagedNucleus": "1H",
      "ImagingFrequency": 123.257702,
      "InPlanePhaseEncodingDirection": "COL",
      "MRAcquisitionType": "2D",
      "MagneticFieldStrength": 3.0,
      "Manufacturer": "SIEMENS",
      "ManufacturerModelName": "Prisma",
      "Modality": "MR",
      "NumberOfAverages": 1.0,
      "NumberOfPhaseEncodingSteps": 100,
      "PercentPhaseFieldOfView": 100.0,
      "PercentSampling": 100.0,
      "PerformedProcedureStepStartTime": "141948.320000",
      "PhotometricInterpretation": "MONOCHROME2",
      "PixelBandwidth": 2380.0,
      "PixelRepresentation": 0,
      "PixelSpacing": [2.0, 2.0],
      "ProtocolName": "bold_100x100_s3_2x2x2_static_156",
      "RepetitionTime": 2000.0,
      "Rows": 900,
      "SAR": 0.0697099620386,
      "SamplesPerPixel": 1,
      "ScanOptions": "FS",
      "ScanningSequence": "EP",
      "SequenceName": "*epfid2d1_100",
      "SequenceVariant": "SK",
      "SeriesDescription": "bold_100x100_s3_2x2x2_static_156",
      "SeriesNumber": 5,
      "SeriesTime": "143433.347000",
      "SliceLocation": -68.341177302438,
      "SliceThickness": 2.0,
      "SmallestImagePixelValue": 0,
      "SoftwareVersions": "syngo MR E11",
      "SpacingBetweenSlices": 1.9999999601565,
      "SpecificCharacterSet": "ISO_IR 100",
      "StudyID": "1",
      "StudyTime": "141948.217000",
      "TransmitCoilName": "Body",
      "VariableFlipAngleFlag": "N",
      "WindowCenterWidthExplanation": "Algo1",
      "dBdt": 0.0},
    "slices": {}
  },
  "time": {
    "samples": {
      "AcquisitionNumber": [1, 2, 3, 4, 5, 6, 7, 8, 9, 10, 11, 12, 13, 14, 15, 16, 17, 18, 19, 20, 21, 22, 23, 24, 25, 26, 27, 28, 29, 30, 31, 32, 33, 34, 35, 36, 37, 38, 39, 40, 41, 42, 43, 44, 45, 46, 47, 48, 49, 50, 51, 52, 53, 54, 55, 56, 57, 58, 59, 60, 61, 62, 63, 64, 65, 66, 67, 68, 69, 70, 71, 72, 73, 74, 75, 76, 77, 78, 79, 80, 81, 82, 83, 84, 85, 86, 87, 88, 89, 90, 91, 92, 93, 94, 95, 96, 97, 98, 99, 100, 101, 102, 103, 104, 105, 106, 107, 108, 109, 110, 111, 112, 113, 114, 115, 116, 117, 118, 119, 120, 121, 122, 123, 124, 125, 126, 127, 128, 129, 130, 131, 132, 133, 134, 135, 136, 137, 138, 139, 140, 141, 142, 143, 144, 145, 146, 147, 148, 149, 150, 151, 152, 153, 154, 155, 156],
      "AcquisitionTime": ["143430.647500", "143432.647500", "143434.647500", "143436.647500", "143438.647500", "143440.647500", "143442.647500", "143444.647500", "143446.647500", "143448.647500", "143450.647500", "143452.647500", "143454.647500", "143456.647500", "143458.647500", "143500.647500", "143502.647500", "143504.647500", "143506.647500", "143508.647500", "143510.647500", "143512.647500", "143514.647500", "143516.647500", "143518.647500", "143520.647500", "143522.647500", "143524.647500", "143526.647500", "143528.647500", "143530.647500", "143532.647500", "143534.647500", "143536.647500", "143538.647500", "143540.647500", "143542.647500", "143544.647500", "143546.647500", "143548.647500", "143550.647500", "143552.647500", "143554.647500", "143556.647500", "143558.647500", "143600.647500", "143602.647500", "143604.647500", "143606.647500", "143608.647500", "143610.647500", "143612.647500", "143614.647500", "143616.647500", "143618.647500", "143620.647500", "143622.647500", "143624.647500", "143626.647500", "143628.647500", "143630.647500", "143632.647500", "143634.647500", "143636.647500", "143638.647500", "143640.647500", "143642.647500", "143644.647500", "143646.647500", "143648.647500", "143650.647500", "143652.647500", "143654.647500", "143656.647500", "143658.647500", "143700.647500", "143702.647500", "143704.647500", "143706.647500", "143708.647500", "143710.647500", "143712.647500", "143714.647500", "143716.647500", "143718.647500", "143720.647500", "143722.647500", "143724.647500", "143726.647500", "143728.647500", "143730.647500", "143732.647500", "143734.647500", "143736.647500", "143738.647500", "143740.647500", "143742.647500", "143744.647500", "143746.647500", "143748.647500", "143750.647500", "143752.647500", "143754.647500", "143756.647500", "143758.647500", "143800.647500", "143802.647500", "143804.647500", "143806.647500", "143808.647500", "143810.647500", "143812.647500", "143814.647500", "143816.647500", "143818.647500", "143820.647500", "143822.647500", "143824.647500", "143826.647500", "143828.647500", "143830.647500", "143832.647500", "143834.647500", "143836.647500", "143838.647500", "143840.647500", "143842.647500", "143844.647500", "143846.647500", "143848.647500", "143850.647500", "143852.647500", "143854.647500", "143856.647500", "143858.647500", "143900.647500", "143902.647500", "143904.647500", "143906.647500", "143908.647500", "143910.647500", "143912.647500", "143914.647500", "143916.647500", "143918.647500", "143920.647500", "143922.647500", "143924.647500", "143926.647500", "143928.647500", "143930.647500", "143932.647500", "143934.647500", "143936.647500", "143938.647500", "143940.647500"],
      "ContentTime": ["143433.351000", "143434.846000", "143436.867000", "143438.846000", "143440.847000", "143442.846000", "143444.847000", "143446.846000", "143448.847000", "143450.847000", "143452.847000", "143454.846000", "143456.846000", "143458.846000", "143500.846000", "143502.847000", "143504.846000", "143506.846000", "143508.846000", "143510.846000", "143512.846000", "143514.846000", "143516.846000", "143518.846000", "143520.846000", "143522.847000", "143524.847000", "143526.846000", "143528.847000", "143530.847000", "143532.847000", "143534.847000", "143536.846000", "143538.847000", "143540.847000", "143542.846000", "143544.847000", "143546.847000", "143548.846000", "143550.846000", "143552.847000", "143554.846000", "143556.846000", "143558.847000", "143600.847000", "143602.847000", "143604.847000", "143606.847000", "143608.847000", "143610.847000", "143612.847000", "143614.846000", "143616.846000", "143618.846000", "143620.847000", "143622.846000", "143624.846000", "143626.846000", "143628.846000", "143630.847000", "143632.847000", "143634.846000", "143636.847000", "143638.847000", "143640.847000", "143642.847000", "143644.846000", "143646.847000", "143648.847000", "143650.847000", "143652.846000", "143654.847000", "143656.847000", "143658.847000", "143700.847000", "143702.846000", "143704.847000", "143706.847000", "143708.847000", "143710.847000", "143712.846000", "143714.847000", "143716.846000", "143718.847000", "143720.846000", "143722.846000", "143724.846000", "143726.847000", "143728.846000", "143730.846000", "143732.847000", "143734.847000", "143736.847000", "143738.846000", "143740.846000", "143742.846000", "143744.847000", "143746.846000", "143748.847000", "143750.847000", "143752.847000", "143754.847000", "143756.846000", "143758.847000", "143800.847000", "143802.847000", "143804.847000", "143806.847000", "143808.847000", "143810.847000", "143812.846000", "143814.846000", "143816.847000", "143818.847000", "143820.846000", "143822.846000", "143824.846000", "143826.847000", "143828.847000", "143830.847000", "143832.847000", "143834.847000", "143836.847000", "143838.847000", "143840.847000", "143842.847000", "143844.847000", "143846.847000", "143848.846000", "143850.847000", "143852.846000", "143854.846000", "143856.847000", "143858.846000", "143900.847000", "143902.846000", "143904.847000", "143906.846000", "143908.846000", "143910.847000", "143912.847000", "143914.847000", "143916.847000", "143918.847000", "143920.847000", "143922.846000", "143924.847000", "143926.847000", "143928.846000", "143930.846000", "143932.847000", "143934.849000", "143936.848000", "143938.848000", "143940.847000", "143942.616000"],
      "InstanceCreationTime": ["143433.351000", "143434.846000", "143436.867000", "143438.846000", "143440.847000", "143442.846000", "143444.847000", "143446.846000", "143448.847000", "143450.847000", "143452.847000", "143454.846000", "143456.846000", "143458.846000", "143500.846000", "143502.847000", "143504.846000", "143506.846000", "143508.846000", "143510.846000", "143512.846000", "143514.846000", "143516.846000", "143518.846000", "143520.846000", "143522.847000", "143524.847000", "143526.846000", "143528.847000", "143530.847000", "143532.847000", "143534.847000", "143536.846000", "143538.847000", "143540.847000", "143542.846000", "143544.847000", "143546.847000", "143548.846000", "143550.846000", "143552.847000", "143554.846000", "143556.846000", "143558.847000", "143600.847000", "143602.847000", "143604.847000", "143606.847000", "143608.847000", "143610.847000", "143612.847000", "143614.846000", "143616.846000", "143618.846000", "143620.847000", "143622.846000", "143624.846000", "143626.846000", "143628.846000", "143630.847000", "143632.847000", "143634.846000", "143636.847000", "143638.847000", "143640.847000", "143642.847000", "143644.846000", "143646.847000", "143648.847000", "143650.847000", "143652.846000", "143654.847000", "143656.847000", "143658.847000", "143700.847000", "143702.846000", "143704.847000", "143706.847000", "143708.847000", "143710.847000", "143712.846000", "143714.847000", "143716.846000", "143718.847000", "143720.846000", "143722.846000", "143724.846000", "143726.847000", "143728.846000", "143730.846000", "143732.847000", "143734.847000", "143736.847000", "143738.846000", "143740.846000", "143742.846000", "143744.847000", "143746.846000", "143748.847000", "143750.847000", "143752.847000", "143754.847000", "143756.846000", "143758.847000", "143800.847000", "143802.847000", "143804.847000", "143806.847000", "143808.847000", "143810.847000", "143812.846000", "143814.846000", "143816.847000", "143818.847000", "143820.846000", "143822.846000", "143824.846000", "143826.847000", "143828.847000", "143830.847000", "143832.847000", "143834.847000", "143836.847000", "143838.847000", "143840.847000", "143842.847000", "143844.847000", "143846.847000", "143848.846000", "143850.847000", "143852.846000", "143854.846000", "143856.847000", "143858.846000", "143900.847000", "143902.846000", "143904.847000", "143906.846000", "143908.846000", "143910.847000", "143912.847000", "143914.847000", "143916.847000", "143918.847000", "143920.847000", "143922.846000", "143924.847000", "143926.847000", "143928.846000", "143930.846000", "143932.847000", "143934.849000", "143936.848000", "143938.848000", "143940.847000", "143942.616000"],
      "InstanceNumber": [1, 2, 3, 4, 5, 6, 7, 8, 9, 10, 11, 12, 13, 14, 15, 16, 17, 18, 19, 20, 21, 22, 23, 24, 25, 26, 27, 28, 29, 30, 31, 32, 33, 34, 35, 36, 37, 38, 39, 40, 41, 42, 43, 44, 45, 46, 47, 48, 49, 50, 51, 52, 53, 54, 55, 56, 57, 58, 59, 60, 61, 62, 63, 64, 65, 66, 67, 68, 69, 70, 71, 72, 73, 74, 75, 76, 77, 78, 79, 80, 81, 82, 83, 84, 85, 86, 87, 88, 89, 90, 91, 92, 93, 94, 95, 96, 97, 98, 99, 100, 101, 102, 103, 104, 105, 106, 107, 108, 109, 110, 111, 112, 113, 114, 115, 116, 117, 118, 119, 120, 121, 122, 123, 124, 125, 126, 127, 128, 129, 130, 131, 132, 133, 134, 135, 136, 137, 138, 139, 140, 141, 142, 143, 144, 145, 146, 147, 148, 149, 150, 151, 152, 153, 154, 155, 156],
      "LargestImagePixelValue": [3245, 3238, 3171, 3231, 3176, 3182, 3197, 3212, 3272, 3192, 3232, 3161, 3221, 3192, 3170, 3225, 3158, 3261, 3218, 3204, 3212, 3160, 3251, 3167, 3258, 3219, 3245, 3164, 3201, 3217, 3199, 3200, 3161, 3202, 3152, 3178, 3177, 3123, 3239, 3218, 3167, 3248, 3160, 3211, 3178, 3160, 3225, 3162, 3226, 3171, 3184, 3177, 3190, 3199, 3151, 3210, 3145, 3185, 3199, 3187, 3195, 3168, 3218, 3177, 3172, 3215, 3193, 3158, 3190, 3149, 3214, 3178, 3198, 3211, 3163, 3228, 3170, 3201, 3181, 3185, 3186, 3167, 3213, 3160, 3173, 3194, 3163, 3207, 3143, 3164, 3172, 3181, 3176, 3173, 3201, 3166, 3195, 3187, 3175, 3204, 3178, 3231, 3213, 3162, 3195, 3208, 3243, 3219, 3180, 3230, 3167, 3204, 3185, 3178, 3188, 3181, 3207, 3171, 3245, 3191, 3202, 3194, 3188, 3226, 3186, 3218, 3178, 3193, 3194, 3162, 3221, 3193, 3218, 3194, 3242, 3222, 3212, 3200, 3182, 3208, 3191, 3186, 3224, 3207, 3246, 3197, 3191, 3187, 3171, 3267, 3198, 3241, 3198, 3188, 3247, 3207],
      "WindowCenter": [804.0, 802.0, 802.0, 803.0, 801.0, 801.0, 802.0, 803.0, 804.0, 803.0, 802.0, 803.0, 804.0, 804.0, 803.0, 802.0, 801.0, 803.0, 803.0, 802.0, 802.0, 802.0, 804.0, 805.0, 806.0, 804.0, 804.0, 802.0, 802.0, 802.0, 803.0, 803.0, 802.0, 802.0, 801.0, 801.0, 801.0, 801.0, 802.0, 802.0, 802.0, 802.0, 800.0, 800.0, 800.0, 802.0, 803.0, 802.0, 803.0, 803.0, 804.0, 804.0, 805.0, 804.0, 802.0, 804.0, 805.0, 805.0, 805.0, 804.0, 804.0, 804.0, 806.0, 805.0, 803.0, 801.0, 800.0, 799.0, 800.0, 799.0, 800.0, 800.0, 802.0, 802.0, 801.0, 802.0, 803.0, 805.0, 805.0, 804.0, 804.0, 803.0, 803.0, 801.0, 803.0, 806.0, 805.0, 804.0, 802.0, 802.0, 801.0, 801.0, 801.0, 801.0, 801.0, 802.0, 803.0, 804.0, 805.0, 806.0, 804.0, 803.0, 802.0, 803.0, 803.0, 803.0, 802.0, 802.0, 801.0, 802.0, 802.0, 803.0, 804.0, 804.0, 805.0, 804.0, 803.0, 802.0, 805.0, 806.0, 804.0, 803.0, 801.0, 802.0, 802.0, 803.0, 802.0, 801.0, 801.0, 801.0, 804.0, 805.0, 805.0, 805.0, 805.0, 805.0, 806.0, 804.0, 802.0, 801.0, 801.0, 801.0, 801.0, 801.0, 802.0, 802.0, 803.0, 804.0, 803.0, 804.0, 805.0, 805.0, 805.0, 804.0, 804.0, 802.0],
      "WindowWidth": [1721.0, 1717.0, 1717.0, 1718.0, 1714.0, 1714.0, 1715.0, 1720.0, 1722.0, 1718.0, 1717.0, 1717.0, 1722.0, 1720.0, 1718.0, 1716.0, 1713.0, 1718.0, 1718.0, 1717.0, 1717.0, 1715.0, 1721.0, 1723.0, 1727.0, 1722.0, 1721.0, 1716.0, 1715.0, 1716.0, 1718.0, 1718.0, 1716.0, 1716.0, 1713.0, 1713.0, 1713.0, 1712.0, 1716.0, 1717.0, 1715.0, 1715.0, 1709.0, 1710.0, 1712.0, 1716.0, 1717.0, 1716.0, 1718.0, 1718.0, 1721.0, 1721.0, 1724.0, 1721.0, 1716.0, 1720.0, 1723.0, 1724.0, 1724.0, 1721.0, 1720.0, 1720.0, 1726.0, 1722.0, 1717.0, 1714.0, 1709.0, 1708.0, 1709.0, 1708.0, 1710.0, 1711.0, 1716.0, 1715.0, 1713.0, 1716.0, 1719.0, 1723.0, 1723.0, 1721.0, 1720.0, 1718.0, 1716.0, 1714.0, 1718.0, 1726.0, 1724.0, 1719.0, 1715.0, 1715.0, 1712.0, 1712.0, 1713.0, 1712.0, 1713.0, 1715.0, 1719.0, 1721.0, 1724.0, 1725.0, 1720.0, 1717.0, 1716.0, 1717.0, 1718.0, 1716.0, 1716.0, 1715.0, 1714.0, 1714.0, 1714.0, 1717.0, 1720.0, 1720.0, 1721.0, 1720.0, 1717.0, 1715.0, 1724.0, 1725.0, 1720.0, 1716.0, 1713.0, 1714.0, 1715.0, 1717.0, 1714.0, 1713.0, 1712.0, 1712.0, 1719.0, 1723.0, 1723.0, 1723.0, 1723.0, 1723.0, 1725.0, 1721.0, 1715.0, 1712.0, 1711.0, 1712.0, 1713.0, 1713.0, 1714.0, 1716.0, 1719.0, 1719.0, 1717.0, 1722.0, 1723.0, 1723.0, 1723.0, 1719.0, 1719.0, 1714.0]
    },
    "slices": {}
  }
}