{
  "AcquisitionMatrixPE": 100,
  "AcquisitionNumber": 1,
  "AcquisitionTime": "15:13:27.902500",
  "BandwidthPerPixelPhaseEncode": 18.519,
  "BaseResolution": 100,
  "BodyPartExamined": "BRAIN",
  "CoilCombinationMethod": "Sum of Squares",
  "ConsistencyInfo": "N4_VE11C_LATEST_20160120",
  "ConversionSoftware": "dcm2niix",
  "ConversionSoftwareVersion": "v1.0.20211006",
  "DerivedVendorReportedEchoSpacing": 0.000539986,
  "DeviceSerialNumber": "166078",
  "DwellTime": 2.1e-06,
  "EchoTime": 0.034,
  "EchoTrainLength": 100,
  "EffectiveEchoSpacing": 0.000539986,
  "FlipAngle": 90,
  "ImageOrientationPatientDICOM": [1, 0, 0, 0, 0.983885, -0.178802],
  "ImageOrientationText": "Tra>Cor(-10.3)",
  "ImageType": [
    "ORIGINAL",
    "PRIMARY",
    "M",
    "ND",
    "MOSAIC"
],
  "ImagingFrequency": 123.258,
  "InPlanePhaseEncodingDirectionDICOM": "COL",
  "InstitutionAddress": "Street StreetNo,Bei Jing,District,CN,ZIP",
  "InstitutionName": "BeiJing Normal University",
  "InstitutionalDepartmentName": "Department",
  "MRAcquisitionType": "2D",
  "MagneticFieldStrength": 3,
  "Manufacturer": "Siemens",
  "ManufacturersModelName": "Prisma",
  "Modality": "MR",
  "MultibandAccelerationFactor": 3,
  "PartialFourier": 1,
  "PatientPosition": "HFS",
  "PercentPhaseFOV": 100,
  "PercentSampling": 100,
  "PhaseEncodingDirection": "j-",
  "PhaseEncodingSteps": 100,
  "PhaseResolution": 1,
  "PixelBandwidth": 2380,
  "ProcedureStepDescription": "BNU_P2018_64CH^Zhen.ZongLei",
  "ProtocolName": "bold_100x100_s3_2x2x2_static_156",
  "PulseSequenceDetails": "%SiemensSeq%\\ep2d_bold",
  "ReceiveCoilActiveElements": "HC1-7;NC1",
  "ReceiveCoilName": "HeadNeck_64",
  "ReconMatrixPE": 100,
  "RefLinesPE": 32,
  "RepetitionTime": 2,
  "SAR": 0.0722742,
  "ScanOptions": "FS",
  "ScanningSequence": "EP",
  "SequenceName": "*epfid2d1_100",
  "SequenceVariant": "SK",
  "SeriesDescription": "bold_100x100_s3_2x2x2_static_156",
  "SeriesNumber": 13,
  "ShimSetting": [-5451, -11517, -1255, 409, 30, -306, -194, 26],
  "SliceThickness": 2,
  "SliceTiming": [1.485, 0, 0.99, 0.0825, 1.0725, 0.165, 1.155, 0.2475, 1.2375, 0.33, 1.32, 0.4125, 1.4025, 0.5775, 1.5675, 0.66, 1.65, 0.7425, 1.7325, 0.825, 1.815, 0.9075, 1.8975, 0.495, 1.485, 0, 0.99, 0.0825, 1.0725, 0.165, 1.155, 0.2475, 1.2375, 0.33, 1.32, 0.4125, 1.4025, 0.5775, 1.5675, 0.66, 1.65, 0.7425, 1.7325, 0.825, 1.815, 0.9075, 1.8975, 0.495, 1.485, 0, 0.99, 0.0825, 1.0725, 0.165, 1.155, 0.2475, 1.2375, 0.33, 1.32, 0.4125, 1.4025, 0.5775, 1.5675, 0.66, 1.65, 0.7425, 1.7325, 0.825, 1.815, 0.9075, 1.8975, 0.495],
  "SoftwareVersions": "syngo MR E11",
  "SpacingBetweenSlices": 2,
  "StationName": "AWP166078",
  "TaskName": "action",
  "TotalReadoutTime": 0.0534586,
  "TxRefAmp": 207.948,
  "dcmmeta_affine": [
    [-2.0, 0.0, 0.0, 101.3559341430664],
    [0.0, 1.9677700996398926, -0.357604444026947, -80.33110046386719],
    [0.0, 0.357604444026947, 1.9677700996398926, -76.04673767089844],
    [0.0, 0.0, 0.0, 1.0]
],
  "dcmmeta_reorient_transform": [
    [0.0, -1.0, 0.0, 99.0],
    [1.0, 0.0, 0.0, 0.0],
    [0.0, 0.0, 1.0, 0.0],
    [0.0, 0.0, 0.0, 1.0]
],
  "dcmmeta_shape": [100, 100, 72, 156],
  "dcmmeta_slice_dim": 2,
  "dcmmeta_version": 0.6,
  "global": {
    "const": {
      "AcquisitionMatrix": [100, 0, 0, 100],
      "AngioFlag": "N",
      "BitsAllocated": 16,
      "BitsStored": 12,
      "BodyPartExamined": "BRAIN",
      "Columns": 900,
      "EchoNumbers": 1,
      "EchoTime": 34.0,
      "EchoTrainLength": 100,
      "FlipAngle": 90.0,
      "HighBit": 11,
      "ImageOrientationPatient": [1.0, 0.0, 0.0, 0.0, 0.98388503666185, -0.178802222114],
      "ImagePositionPatient": [-901.35593223572, -901.58616312262, 102.39787957182],
      "ImageType": [
        "ORIGINAL",
        "PRIMARY",
        "M",
        "ND",
        "MOSAIC"
],
      "ImagedNucleus": "1H",
      "ImagingFrequency": 123.257745,
      "InPlanePhaseEncodingDirection": "COL",
      "MRAcquisitionType": "2D",
      "MagneticFieldStrength": 3.0,
      "Manufacturer": "SIEMENS",
      "ManufacturerModelName": "Prisma",
      "Modality": "MR",
      "NumberOfAverages": 1.0,
      "NumberOfPhaseEncodingSteps": 100,
      "PercentPhaseFieldOfView": 100.0,
      "PercentSampling": 100.0,
      "PerformedProcedureStepStartTime": "141859.498000",
      "PhotometricInterpretation": "MONOCHROME2",
      "PixelBandwidth": 2380.0,
      "PixelRepresentation": 0,
      "PixelSpacing": [2.0, 2.0],
      "ProtocolName": "bold_100x100_s3_2x2x2_static_156",
      "RepetitionTime": 2000.0,
      "Rows": 900,
      "SAR": 0.07227419260634,
      "SamplesPerPixel": 1,
      "ScanOptions": "FS",
      "ScanningSequence": "EP",
      "SequenceName": "*epfid2d1_100",
      "SequenceVariant": "SK",
      "SeriesDescription": "bold_100x100_s3_2x2x2_static_156",
      "SeriesNumber": 13,
      "SeriesTime": "151330.787000",
      "SliceLocation": -60.457867896974,
      "SliceThickness": 2.0,
      "SmallestImagePixelValue": 0,
      "SoftwareVersions": "syngo MR E11",
      "SpacingBetweenSlices": 1.9999999770499,
      "SpecificCharacterSet": "ISO_IR 100",
      "StudyID": "1",
      "StudyTime": "141859.413000",
      "TransmitCoilName": "Body",
      "VariableFlipAngleFlag": "N",
      "WindowCenterWidthExplanation": "Algo1",
      "dBdt": 0.0},
    "slices": {}
  },
  "time": {
    "samples": {
      "AcquisitionNumber": [1, 2, 3, 4, 5, 6, 7, 8, 9, 10, 11, 12, 13, 14, 15, 16, 17, 18, 19, 20, 21, 22, 23, 24, 25, 26, 27, 28, 29, 30, 31, 32, 33, 34, 35, 36, 37, 38, 39, 40, 41, 42, 43, 44, 45, 46, 47, 48, 49, 50, 51, 52, 53, 54, 55, 56, 57, 58, 59, 60, 61, 62, 63, 64, 65, 66, 67, 68, 69, 70, 71, 72, 73, 74, 75, 76, 77, 78, 79, 80, 81, 82, 83, 84, 85, 86, 87, 88, 89, 90, 91, 92, 93, 94, 95, 96, 97, 98, 99, 100, 101, 102, 103, 104, 105, 106, 107, 108, 109, 110, 111, 112, 113, 114, 115, 116, 117, 118, 119, 120, 121, 122, 123, 124, 125, 126, 127, 128, 129, 130, 131, 132, 133, 134, 135, 136, 137, 138, 139, 140, 141, 142, 143, 144, 145, 146, 147, 148, 149, 150, 151, 152, 153, 154, 155, 156],
      "AcquisitionTime": ["151327.902500", "151329.902500", "151331.902500", "151333.902500", "151335.902500", "151337.902500", "151339.902500", "151341.902500", "151343.902500", "151345.902500", "151347.902500", "151349.902500", "151351.902500", "151353.902500", "151355.902500", "151357.902500", "151359.902500", "151401.902500", "151403.902500", "151405.902500", "151407.902500", "151409.902500", "151411.902500", "151413.902500", "151415.902500", "151417.902500", "151419.902500", "151421.902500", "151423.902500", "151425.902500", "151427.902500", "151429.902500", "151431.902500", "151433.902500", "151435.902500", "151437.902500", "151439.902500", "151441.902500", "151443.902500", "151445.902500", "151447.902500", "151449.902500", "151451.902500", "151453.902500", "151455.902500", "151457.902500", "151459.902500", "151501.902500", "151503.902500", "151505.902500", "151507.902500", "151509.902500", "151511.902500", "151513.902500", "151515.902500", "151517.902500", "151519.902500", "151521.902500", "151523.902500", "151525.902500", "151527.902500", "151529.902500", "151531.902500", "151533.902500", "151535.902500", "151537.902500", "151539.902500", "151541.902500", "151543.902500", "151545.902500", "151547.902500", "151549.902500", "151551.902500", "151553.902500", "151555.902500", "151557.902500", "151559.902500", "151601.902500", "151603.902500", "151605.902500", "151607.902500", "151609.902500", "151611.902500", "151613.902500", "151615.902500", "151617.902500", "151619.902500", "151621.902500", "151623.902500", "151625.902500", "151627.902500", "151629.902500", "151631.902500", "151633.902500", "151635.902500", "151637.902500", "151639.902500", "151641.902500", "151643.902500", "151645.902500", "151647.902500", "151649.902500", "151651.902500", "151653.902500", "151655.902500", "151657.902500", "151659.902500", "151701.902500", "151703.902500", "151705.902500", "151707.902500", "151709.902500", "151711.902500", "151713.902500", "151715.902500", "151717.902500", "151719.902500", "151721.902500", "151723.902500", "151725.902500", "151727.902500", "151729.902500", "151731.902500", "151733.902500", "151735.902500", "151737.902500", "151739.902500", "151741.902500", "151743.902500", "151745.902500", "151747.902500", "151749.902500", "151751.902500", "151753.902500", "151755.902500", "151757.902500", "151759.902500", "151801.902500", "151803.902500", "151805.902500", "151807.902500", "151809.902500", "151811.902500", "151813.902500", "151815.902500", "151817.902500", "151819.902500", "151821.902500", "151823.902500", "151825.902500", "151827.902500", "151829.902500", "151831.902500", "151833.902500", "151835.902500", "151837.902500"],
      "ContentTime": ["151330.790000", "151332.272000", "151334.272000", "151336.272000", "151338.272000", "151340.272000", "151342.272000", "151344.271000", "151346.773000", "151348.272000", "151350.272000", "151352.272000", "151354.273000", "151356.272000", "151358.271000", "151400.271000", "151402.771000", "151404.273000", "151406.272000", "151408.273000", "151410.273000", "151412.272000", "151414.272000", "151416.272000", "151418.272000", "151420.271000", "151422.772000", "151424.272000", "151426.773000", "151428.272000", "151430.272000", "151432.272000", "151434.271000", "151436.271000", "151438.273000", "151440.273000", "151442.273000", "151444.272000", "151446.272000", "151448.273000", "151450.272000", "151452.272000", "151454.271000", "151456.272000", "151458.272000", "151500.272000", "151502.773000", "151504.273000", "151506.273000", "151508.271000", "151510.272000", "151512.272000", "151514.272000", "151516.273000", "151518.272000", "151520.273000", "151522.272000", "151524.273000", "151526.272000", "151528.272000", "151530.272000", "151532.272000", "151534.273000", "151536.273000", "151538.272000", "151540.273000", "151542.271000", "151544.271000", "151546.271000", "151548.273000", "151550.272000", "151552.773000", "151554.272000", "151556.272000", "151558.272000", "151600.271000", "151602.271000", "151604.271000", "151606.273000", "151608.272000", "151610.273000", "151612.272000", "151614.272000", "151616.273000", "151618.271000", "151620.271000", "151622.271000", "151624.273000", "151626.272000", "151628.272000", "151630.273000", "151632.272000", "151634.273000", "151636.271000", "151638.772000", "151640.272000", "151642.272000", "151644.272000", "151646.273000", "151648.272000", "151650.273000", "151652.271000", "151654.271000", "151656.272000", "151658.272000", "151700.272000", "151702.272000", "151704.773000", "151706.272000", "151708.272000", "151710.271000", "151712.271000", "151714.271000", "151716.272000", "151718.273000", "151720.773000", "151722.272000", "151724.273000", "151726.273000", "151728.271000", "151730.272000", "151732.272000", "151734.273000", "151736.273000", "151738.272000", "151740.272000", "151742.272000", "151744.272000", "151746.272000", "151748.271000", "151750.271000", "151752.273000", "151754.273000", "151756.272000", "151758.272000", "151800.273000", "151802.271000", "151804.272000", "151806.271000", "151808.272000", "151810.272000", "151812.273000", "151814.272000", "151816.272000", "151818.272000", "151820.272000", "151822.271000", "151824.272000", "151826.273000", "151828.272000", "151830.773000", "151832.273000", "151834.272000", "151836.272000", "151838.271000", "151840.164000"],
      "InstanceCreationTime": ["151330.790000", "151332.272000", "151334.272000", "151336.272000", "151338.272000", "151340.272000", "151342.272000", "151344.271000", "151346.773000", "151348.272000", "151350.272000", "151352.272000", "151354.273000", "151356.272000", "151358.271000", "151400.271000", "151402.771000", "151404.273000", "151406.272000", "151408.273000", "151410.273000", "151412.272000", "151414.272000", "151416.272000", "151418.272000", "151420.271000", "151422.772000", "151424.272000", "151426.773000", "151428.272000", "151430.272000", "151432.272000", "151434.271000", "151436.271000", "151438.273000", "151440.273000", "151442.273000", "151444.272000", "151446.272000", "151448.273000", "151450.272000", "151452.272000", "151454.271000", "151456.272000", "151458.272000", "151500.272000", "151502.773000", "151504.273000", "151506.273000", "151508.271000", "151510.272000", "151512.272000", "151514.272000", "151516.273000", "151518.272000", "151520.273000", "151522.272000", "151524.273000", "151526.272000", "151528.272000", "151530.272000", "151532.272000", "151534.273000", "151536.273000", "151538.272000", "151540.273000", "151542.271000", "151544.271000", "151546.271000", "151548.273000", "151550.272000", "151552.773000", "151554.272000", "151556.272000", "151558.272000", "151600.271000", "151602.271000", "151604.271000", "151606.273000", "151608.272000", "151610.273000", "151612.272000", "151614.272000", "151616.273000", "151618.271000", "151620.271000", "151622.271000", "151624.273000", "151626.272000", "151628.272000", "151630.273000", "151632.272000", "151634.273000", "151636.271000", "151638.772000", "151640.272000", "151642.272000", "151644.272000", "151646.273000", "151648.272000", "151650.273000", "151652.271000", "151654.271000", "151656.272000", "151658.272000", "151700.272000", "151702.272000", "151704.773000", "151706.272000", "151708.272000", "151710.271000", "151712.271000", "151714.271000", "151716.272000", "151718.273000", "151720.773000", "151722.272000", "151724.273000", "151726.273000", "151728.271000", "151730.272000", "151732.272000", "151734.273000", "151736.273000", "151738.272000", "151740.272000", "151742.272000", "151744.272000", "151746.272000", "151748.271000", "151750.271000", "151752.273000", "151754.273000", "151756.272000", "151758.272000", "151800.273000", "151802.271000", "151804.272000", "151806.271000", "151808.272000", "151810.272000", "151812.273000", "151814.272000", "151816.272000", "151818.272000", "151820.272000", "151822.271000", "151824.272000", "151826.273000", "151828.272000", "151830.773000", "151832.273000", "151834.272000", "151836.272000", "151838.271000", "151840.164000"],
      "InstanceNumber": [1, 2, 3, 4, 5, 6, 7, 8, 9, 10, 11, 12, 13, 14, 15, 16, 17, 18, 19, 20, 21, 22, 23, 24, 25, 26, 27, 28, 29, 30, 31, 32, 33, 34, 35, 36, 37, 38, 39, 40, 41, 42, 43, 44, 45, 46, 47, 48, 49, 50, 51, 52, 53, 54, 55, 56, 57, 58, 59, 60, 61, 62, 63, 64, 65, 66, 67, 68, 69, 70, 71, 72, 73, 74, 75, 76, 77, 78, 79, 80, 81, 82, 83, 84, 85, 86, 87, 88, 89, 90, 91, 92, 93, 94, 95, 96, 97, 98, 99, 100, 101, 102, 103, 104, 105, 106, 107, 108, 109, 110, 111, 112, 113, 114, 115, 116, 117, 118, 119, 120, 121, 122, 123, 124, 125, 126, 127, 128, 129, 130, 131, 132, 133, 134, 135, 136, 137, 138, 139, 140, 141, 142, 143, 144, 145, 146, 147, 148, 149, 150, 151, 152, 153, 154, 155, 156],
      "LargestImagePixelValue": [3264, 3109, 3135, 3064, 3099, 3086, 3084, 3097, 3071, 3123, 3067, 3088, 3158, 3054, 3122, 3061, 3103, 3096, 3078, 3106, 3088, 3049, 3077, 3064, 3079, 3102, 3146, 3087, 3117, 3127, 3113, 3103, 3160, 3074, 3073, 3059, 3070, 3130, 3104, 3084, 3045, 3089, 3118, 3066, 3119, 3064, 3100, 3099, 3060, 3124, 3077, 3115, 3082, 3075, 3139, 3093, 3077, 3135, 3062, 3116, 3099, 3128, 3067, 3126, 3057, 3091, 3070, 3095, 3126, 3114, 3128, 3062, 3115, 3104, 3105, 3070, 3092, 3048, 3075, 3124, 3073, 3140, 3053, 3120, 3065, 3110, 3079, 3086, 3052, 3103, 3105, 3098, 3131, 3090, 3130, 3080, 3098, 3103, 3056, 3097, 3038, 3079, 3114, 3064, 3104, 3064, 3104, 3116, 3043, 3086, 3037, 3060, 3100, 3049, 3107, 3044, 3090, 3021, 3084, 3033, 3076, 3133, 3064, 3037, 3086, 3104, 3085, 3092, 3041, 3070, 3056, 3094, 3117, 3057, 3102, 3061, 3126, 3042, 3087, 3026, 3109, 3080, 3100, 3080, 3089, 3053, 3086, 3083, 3093, 3118, 3053, 3073, 3044, 3102, 3119, 3041],
      "WindowCenter": [748.0, 746.0, 747.0, 746.0, 746.0, 745.0, 745.0, 746.0, 747.0, 747.0, 747.0, 745.0, 746.0, 745.0, 746.0, 745.0, 746.0, 746.0, 745.0, 746.0, 746.0, 745.0, 746.0, 747.0, 747.0, 747.0, 747.0, 746.0, 748.0, 749.0, 749.0, 747.0, 747.0, 746.0, 746.0, 746.0, 747.0, 747.0, 746.0, 746.0, 746.0, 746.0, 747.0, 746.0, 747.0, 746.0, 746.0, 745.0, 745.0, 746.0, 747.0, 746.0, 746.0, 747.0, 747.0, 746.0, 746.0, 746.0, 746.0, 747.0, 747.0, 747.0, 746.0, 746.0, 746.0, 746.0, 745.0, 746.0, 747.0, 748.0, 747.0, 746.0, 747.0, 747.0, 746.0, 746.0, 746.0, 745.0, 744.0, 744.0, 745.0, 746.0, 746.0, 746.0, 745.0, 746.0, 746.0, 746.0, 748.0, 748.0, 746.0, 746.0, 748.0, 747.0, 747.0, 746.0, 746.0, 746.0, 746.0, 745.0, 745.0, 746.0, 745.0, 744.0, 746.0, 746.0, 747.0, 747.0, 747.0, 746.0, 745.0, 745.0, 746.0, 745.0, 745.0, 745.0, 746.0, 745.0, 746.0, 745.0, 745.0, 746.0, 746.0, 746.0, 746.0, 745.0, 744.0, 744.0, 745.0, 746.0, 745.0, 745.0, 746.0, 745.0, 746.0, 745.0, 746.0, 745.0, 744.0, 744.0, 746.0, 746.0, 746.0, 745.0, 746.0, 745.0, 745.0, 744.0, 745.0, 745.0, 744.0, 744.0, 744.0, 745.0, 745.0, 744.0],
      "WindowWidth": [1619.0, 1614.0, 1617.0, 1614.0, 1613.0, 1612.0, 1613.0, 1614.0, 1616.0, 1618.0, 1616.0, 1612.0, 1614.0, 1612.0, 1614.0, 1613.0, 1614.0, 1613.0, 1611.0, 1613.0, 1614.0, 1612.0, 1614.0, 1617.0, 1617.0, 1617.0, 1618.0, 1616.0, 1621.0, 1624.0, 1621.0, 1617.0, 1618.0, 1615.0, 1616.0, 1616.0, 1617.0, 1616.0, 1616.0, 1614.0, 1614.0, 1614.0, 1617.0, 1616.0, 1619.0, 1615.0, 1615.0, 1613.0, 1613.0, 1614.0, 1616.0, 1615.0, 1615.0, 1618.0, 1618.0, 1615.0, 1615.0, 1614.0, 1614.0, 1617.0, 1617.0, 1616.0, 1614.0, 1615.0, 1615.0, 1614.0, 1613.0, 1614.0, 1618.0, 1619.0, 1617.0, 1615.0, 1618.0, 1616.0, 1615.0, 1615.0, 1614.0, 1611.0, 1609.0, 1610.0, 1611.0, 1614.0, 1614.0, 1614.0, 1613.0, 1614.0, 1613.0, 1614.0, 1620.0, 1619.0, 1615.0, 1615.0, 1619.0, 1618.0, 1616.0, 1613.0, 1615.0, 1615.0, 1615.0, 1611.0, 1611.0, 1613.0, 1612.0, 1611.0, 1614.0, 1616.0, 1617.0, 1617.0, 1617.0, 1614.0, 1613.0, 1611.0, 1613.0, 1611.0, 1612.0, 1610.0, 1614.0, 1612.0, 1615.0, 1613.0, 1613.0, 1614.0, 1614.0, 1614.0, 1615.0, 1612.0, 1610.0, 1610.0, 1612.0, 1613.0, 1612.0, 1611.0, 1614.0, 1613.0, 1614.0, 1611.0, 1615.0, 1611.0, 1610.0, 1608.0, 1614.0, 1614.0, 1614.0, 1612.0, 1615.0, 1612.0, 1612.0, 1610.0, 1612.0, 1613.0, 1609.0, 1609.0, 1609.0, 1612.0, 1612.0, 1609.0]
    },
    "slices": {}
  }
}