{
  "AcquisitionMatrixPE": 100,
  "AcquisitionNumber": 1,
  "AcquisitionTime": "14:27:59.595000",
  "BandwidthPerPixelPhaseEncode": 18.519,
  "BaseResolution": 100,
  "BodyPartExamined": "BRAIN",
  "CoilCombinationMethod": "Sum of Squares",
  "ConsistencyInfo": "N4_VE11C_LATEST_20160120",
  "ConversionSoftware": "dcm2niix",
  "ConversionSoftwareVersion": "v1.0.20211006",
  "DerivedVendorReportedEchoSpacing": 0.000539986,
  "DeviceSerialNumber": "166078",
  "DwellTime": 2.1e-06,
  "EchoTime": 0.034,
  "EchoTrainLength": 100,
  "EffectiveEchoSpacing": 0.000539986,
  "FlipAngle": 90,
  "ImageOrientationPatientDICOM": [1, 0, 0, 0, 0.983885, -0.178802],
  "ImageOrientationText": "Tra>Cor(-10.3)",
  "ImageType": [
    "ORIGINAL",
    "PRIMARY",
    "M",
    "ND",
    "MOSAIC"
],
  "ImagingFrequency": 123.258,
  "InPlanePhaseEncodingDirectionDICOM": "COL",
  "InstitutionAddress": "Street StreetNo,Bei Jing,District,CN,ZIP",
  "InstitutionName": "BeiJing Normal University",
  "InstitutionalDepartmentName": "Department",
  "MRAcquisitionType": "2D",
  "MagneticFieldStrength": 3,
  "Manufacturer": "Siemens",
  "ManufacturersModelName": "Prisma",
  "Modality": "MR",
  "MultibandAccelerationFactor": 3,
  "PartialFourier": 1,
  "PatientPosition": "HFS",
  "PercentPhaseFOV": 100,
  "PercentSampling": 100,
  "PhaseEncodingDirection": "j-",
  "PhaseEncodingSteps": 100,
  "PhaseResolution": 1,
  "PixelBandwidth": 2380,
  "ProcedureStepDescription": "BNU_P2018_64CH^Zhen.ZongLei",
  "ProtocolName": "bold_100x100_s3_2x2x2_static_156",
  "PulseSequenceDetails": "%SiemensSeq%\\ep2d_bold",
  "ReceiveCoilActiveElements": "HC1-7;NC1",
  "ReceiveCoilName": "HeadNeck_64",
  "ReconMatrixPE": 100,
  "RefLinesPE": 32,
  "RepetitionTime": 2,
  "SAR": 0.0722742,
  "ScanOptions": "FS",
  "ScanningSequence": "EP",
  "SequenceName": "*epfid2d1_100",
  "SequenceVariant": "SK",
  "SeriesDescription": "bold_100x100_s3_2x2x2_static_156",
  "SeriesNumber": 4,
  "ShimSetting": [-5451, -11517, -1255, 409, 30, -306, -194, 26],
  "SliceThickness": 2,
  "SliceTiming": [1.485, 0, 0.99, 0.0825, 1.0725, 0.165, 1.155, 0.2475, 1.2375, 0.33, 1.32, 0.4125, 1.4025, 0.5775, 1.5675, 0.66, 1.65, 0.7425, 1.7325, 0.825, 1.815, 0.9075, 1.8975, 0.495, 1.485, 0, 0.99, 0.0825, 1.0725, 0.165, 1.155, 0.2475, 1.2375, 0.33, 1.32, 0.4125, 1.4025, 0.5775, 1.5675, 0.66, 1.65, 0.7425, 1.7325, 0.825, 1.815, 0.9075, 1.8975, 0.495, 1.485, 0, 0.99, 0.0825, 1.0725, 0.165, 1.155, 0.2475, 1.2375, 0.33, 1.32, 0.4125, 1.4025, 0.5775, 1.5675, 0.66, 1.65, 0.7425, 1.7325, 0.825, 1.815, 0.9075, 1.8975, 0.495],
  "SoftwareVersions": "syngo MR E11",
  "SpacingBetweenSlices": 2,
  "StationName": "AWP166078",
  "TaskName": "action",
  "TotalReadoutTime": 0.0534586,
  "TxRefAmp": 207.948,
  "dcmmeta_affine": [
    [-2.0, 0.0, 0.0, 101.3559341430664],
    [0.0, 1.9677700996398926, -0.357604444026947, -80.33110046386719],
    [0.0, 0.357604444026947, 1.9677700996398926, -76.04673767089844],
    [0.0, 0.0, 0.0, 1.0]
],
  "dcmmeta_reorient_transform": [
    [0.0, -1.0, 0.0, 99.0],
    [1.0, 0.0, 0.0, 0.0],
    [0.0, 0.0, 1.0, 0.0],
    [0.0, 0.0, 0.0, 1.0]
],
  "dcmmeta_shape": [100, 100, 72, 156],
  "dcmmeta_slice_dim": 2,
  "dcmmeta_version": 0.6,
  "global": {
    "const": {
      "AcquisitionMatrix": [100, 0, 0, 100],
      "AngioFlag": "N",
      "BitsAllocated": 16,
      "BitsStored": 12,
      "BodyPartExamined": "BRAIN",
      "Columns": 900,
      "EchoNumbers": 1,
      "EchoTime": 34.0,
      "EchoTrainLength": 100,
      "FlipAngle": 90.0,
      "HighBit": 11,
      "ImageOrientationPatient": [1.0, 0.0, 0.0, 0.0, 0.98388503666185, -0.178802222114],
      "ImagePositionPatient": [-901.35593223572, -901.58616312262, 102.39787957182],
      "ImageType": [
        "ORIGINAL",
        "PRIMARY",
        "M",
        "ND",
        "MOSAIC"
],
      "ImagedNucleus": "1H",
      "ImagingFrequency": 123.257744,
      "InPlanePhaseEncodingDirection": "COL",
      "MRAcquisitionType": "2D",
      "MagneticFieldStrength": 3.0,
      "Manufacturer": "SIEMENS",
      "ManufacturerModelName": "Prisma",
      "Modality": "MR",
      "NumberOfAverages": 1.0,
      "NumberOfPhaseEncodingSteps": 100,
      "PercentPhaseFieldOfView": 100.0,
      "PercentSampling": 100.0,
      "PerformedProcedureStepStartTime": "141859.498000",
      "PhotometricInterpretation": "MONOCHROME2",
      "PixelBandwidth": 2380.0,
      "PixelRepresentation": 0,
      "PixelSpacing": [2.0, 2.0],
      "ProtocolName": "bold_100x100_s3_2x2x2_static_156",
      "RepetitionTime": 2000.0,
      "Rows": 900,
      "SAR": 0.07227419260634,
      "SamplesPerPixel": 1,
      "ScanOptions": "FS",
      "ScanningSequence": "EP",
      "SequenceName": "*epfid2d1_100",
      "SequenceVariant": "SK",
      "SeriesDescription": "bold_100x100_s3_2x2x2_static_156",
      "SeriesNumber": 4,
      "SeriesTime": "142801.879000",
      "SliceLocation": -60.457867896974,
      "SliceThickness": 2.0,
      "SmallestImagePixelValue": 0,
      "SoftwareVersions": "syngo MR E11",
      "SpacingBetweenSlices": 1.9999999770499,
      "SpecificCharacterSet": "ISO_IR 100",
      "StudyID": "1",
      "StudyTime": "141859.413000",
      "TransmitCoilName": "Body",
      "VariableFlipAngleFlag": "N",
      "WindowCenterWidthExplanation": "Algo1",
      "dBdt": 0.0},
    "slices": {}
  },
  "time": {
    "samples": {
      "AcquisitionNumber": [1, 2, 3, 4, 5, 6, 7, 8, 9, 10, 11, 12, 13, 14, 15, 16, 17, 18, 19, 20, 21, 22, 23, 24, 25, 26, 27, 28, 29, 30, 31, 32, 33, 34, 35, 36, 37, 38, 39, 40, 41, 42, 43, 44, 45, 46, 47, 48, 49, 50, 51, 52, 53, 54, 55, 56, 57, 58, 59, 60, 61, 62, 63, 64, 65, 66, 67, 68, 69, 70, 71, 72, 73, 74, 75, 76, 77, 78, 79, 80, 81, 82, 83, 84, 85, 86, 87, 88, 89, 90, 91, 92, 93, 94, 95, 96, 97, 98, 99, 100, 101, 102, 103, 104, 105, 106, 107, 108, 109, 110, 111, 112, 113, 114, 115, 116, 117, 118, 119, 120, 121, 122, 123, 124, 125, 126, 127, 128, 129, 130, 131, 132, 133, 134, 135, 136, 137, 138, 139, 140, 141, 142, 143, 144, 145, 146, 147, 148, 149, 150, 151, 152, 153, 154, 155, 156],
      "AcquisitionTime": ["142759.595000", "142801.595000", "142803.595000", "142805.595000", "142807.595000", "142809.595000", "142811.595000", "142813.595000", "142815.595000", "142817.595000", "142819.595000", "142821.595000", "142823.595000", "142825.595000", "142827.595000", "142829.595000", "142831.595000", "142833.595000", "142835.595000", "142837.595000", "142839.595000", "142841.595000", "142843.595000", "142845.595000", "142847.595000", "142849.595000", "142851.595000", "142853.595000", "142855.595000", "142857.595000", "142859.595000", "142901.595000", "142903.595000", "142905.595000", "142907.595000", "142909.595000", "142911.595000", "142913.595000", "142915.595000", "142917.595000", "142919.595000", "142921.595000", "142923.595000", "142925.595000", "142927.595000", "142929.595000", "142931.595000", "142933.595000", "142935.595000", "142937.595000", "142939.595000", "142941.595000", "142943.595000", "142945.595000", "142947.595000", "142949.595000", "142951.595000", "142953.595000", "142955.595000", "142957.595000", "142959.595000", "143001.595000", "143003.595000", "143005.595000", "143007.595000", "143009.595000", "143011.595000", "143013.595000", "143015.595000", "143017.595000", "143019.595000", "143021.595000", "143023.595000", "143025.595000", "143027.595000", "143029.595000", "143031.595000", "143033.595000", "143035.595000", "143037.595000", "143039.595000", "143041.595000", "143043.595000", "143045.595000", "143047.595000", "143049.595000", "143051.595000", "143053.595000", "143055.595000", "143057.595000", "143059.595000", "143101.595000", "143103.595000", "143105.595000", "143107.595000", "143109.595000", "143111.595000", "143113.595000", "143115.595000", "143117.595000", "143119.595000", "143121.595000", "143123.595000", "143125.595000", "143127.595000", "143129.595000", "143131.595000", "143133.595000", "143135.595000", "143137.595000", "143139.595000", "143141.595000", "143143.595000", "143145.595000", "143147.595000", "143149.595000", "143151.595000", "143153.595000", "143155.595000", "143157.595000", "143159.595000", "143201.595000", "143203.595000", "143205.595000", "143207.595000", "143209.595000", "143211.595000", "143213.595000", "143215.595000", "143217.595000", "143219.595000", "143221.595000", "143223.595000", "143225.595000", "143227.595000", "143229.595000", "143231.595000", "143233.595000", "143235.595000", "143237.595000", "143239.595000", "143241.595000", "143243.595000", "143245.595000", "143247.595000", "143249.595000", "143251.595000", "143253.595000", "143255.595000", "143257.595000", "143259.595000", "143301.595000", "143303.595000", "143305.595000", "143307.595000", "143309.595000"],
      "ContentTime": ["142801.883000", "142803.366000", "142805.365000", "142807.365000", "142809.364000", "142811.364000", "142813.365000", "142815.364000", "142817.364000", "142819.365000", "142821.365000", "142823.365000", "142825.365000", "142827.364000", "142829.365000", "142831.365000", "142833.365000", "142835.364000", "142837.365000", "142839.365000", "142841.365000", "142843.364000", "142845.364000", "142847.384000", "142849.364000", "142851.365000", "142853.365000", "142855.365000", "142857.365000", "142859.365000", "142901.365000", "142903.364000", "142905.365000", "142907.365000", "142909.366000", "142911.366000", "142913.366000", "142915.365000", "142917.364000", "142919.365000", "142921.364000", "142923.365000", "142925.365000", "142927.364000", "142929.365000", "142931.365000", "142933.365000", "142935.365000", "142937.365000", "142939.365000", "142941.365000", "142943.364000", "142945.367000", "142947.366000", "142949.365000", "142951.364000", "142953.365000", "142955.364000", "142957.365000", "142959.364000", "143001.364000", "143003.366000", "143005.365000", "143007.365000", "143009.364000", "143011.365000", "143013.365000", "143015.364000", "143017.364000", "143019.365000", "143021.365000", "143023.366000", "143025.364000", "143027.366000", "143029.364000", "143031.364000", "143033.365000", "143035.364000", "143037.364000", "143039.366000", "143041.366000", "143043.364000", "143045.365000", "143047.365000", "143049.364000", "143051.364000", "143053.365000", "143055.364000", "143057.365000", "143059.366000", "143101.364000", "143103.365000", "143105.365000", "143107.364000", "143109.364000", "143111.365000", "143113.366000", "143115.365000", "143117.365000", "143119.365000", "143121.365000", "143123.364000", "143125.364000", "143127.364000", "143129.365000", "143131.366000", "143133.365000", "143135.365000", "143137.364000", "143139.365000", "143141.365000", "143143.365000", "143145.365000", "143147.364000", "143149.366000", "143151.365000", "143153.365000", "143155.365000", "143157.364000", "143159.364000", "143201.364000", "143203.364000", "143205.365000", "143207.366000", "143209.366000", "143211.365000", "143213.365000", "143215.364000", "143217.365000", "143219.365000", "143221.364000", "143223.366000", "143225.366000", "143227.365000", "143229.365000", "143231.364000", "143233.365000", "143235.365000", "143237.365000", "143239.365000", "143241.366000", "143243.366000", "143245.365000", "143247.365000", "143249.365000", "143251.365000", "143253.365000", "143255.365000", "143257.364000", "143259.366000", "143301.365000", "143303.365000", "143305.365000", "143307.364000", "143309.365000", "143310.930000"],
      "InstanceCreationTime": ["142801.883000", "142803.366000", "142805.365000", "142807.365000", "142809.364000", "142811.364000", "142813.365000", "142815.364000", "142817.364000", "142819.365000", "142821.365000", "142823.365000", "142825.365000", "142827.364000", "142829.365000", "142831.365000", "142833.365000", "142835.364000", "142837.365000", "142839.365000", "142841.365000", "142843.364000", "142845.364000", "142847.384000", "142849.364000", "142851.365000", "142853.365000", "142855.365000", "142857.365000", "142859.365000", "142901.365000", "142903.364000", "142905.365000", "142907.365000", "142909.366000", "142911.366000", "142913.366000", "142915.365000", "142917.364000", "142919.365000", "142921.364000", "142923.365000", "142925.365000", "142927.364000", "142929.365000", "142931.365000", "142933.365000", "142935.365000", "142937.365000", "142939.365000", "142941.365000", "142943.364000", "142945.367000", "142947.366000", "142949.365000", "142951.364000", "142953.365000", "142955.364000", "142957.365000", "142959.364000", "143001.364000", "143003.366000", "143005.365000", "143007.365000", "143009.364000", "143011.365000", "143013.365000", "143015.364000", "143017.364000", "143019.365000", "143021.365000", "143023.366000", "143025.364000", "143027.366000", "143029.364000", "143031.364000", "143033.365000", "143035.364000", "143037.364000", "143039.366000", "143041.366000", "143043.364000", "143045.365000", "143047.365000", "143049.364000", "143051.364000", "143053.365000", "143055.364000", "143057.365000", "143059.366000", "143101.364000", "143103.365000", "143105.365000", "143107.364000", "143109.364000", "143111.365000", "143113.366000", "143115.365000", "143117.365000", "143119.365000", "143121.365000", "143123.364000", "143125.364000", "143127.364000", "143129.365000", "143131.366000", "143133.365000", "143135.365000", "143137.364000", "143139.365000", "143141.365000", "143143.365000", "143145.365000", "143147.364000", "143149.366000", "143151.365000", "143153.365000", "143155.365000", "143157.364000", "143159.364000", "143201.364000", "143203.364000", "143205.365000", "143207.366000", "143209.366000", "143211.365000", "143213.365000", "143215.364000", "143217.365000", "143219.365000", "143221.364000", "143223.366000", "143225.366000", "143227.365000", "143229.365000", "143231.364000", "143233.365000", "143235.365000", "143237.365000", "143239.365000", "143241.366000", "143243.366000", "143245.365000", "143247.365000", "143249.365000", "143251.365000", "143253.365000", "143255.365000", "143257.364000", "143259.366000", "143301.365000", "143303.365000", "143305.365000", "143307.364000", "143309.365000", "143310.930000"],
      "InstanceNumber": [1, 2, 3, 4, 5, 6, 7, 8, 9, 10, 11, 12, 13, 14, 15, 16, 17, 18, 19, 20, 21, 22, 23, 24, 25, 26, 27, 28, 29, 30, 31, 32, 33, 34, 35, 36, 37, 38, 39, 40, 41, 42, 43, 44, 45, 46, 47, 48, 49, 50, 51, 52, 53, 54, 55, 56, 57, 58, 59, 60, 61, 62, 63, 64, 65, 66, 67, 68, 69, 70, 71, 72, 73, 74, 75, 76, 77, 78, 79, 80, 81, 82, 83, 84, 85, 86, 87, 88, 89, 90, 91, 92, 93, 94, 95, 96, 97, 98, 99, 100, 101, 102, 103, 104, 105, 106, 107, 108, 109, 110, 111, 112, 113, 114, 115, 116, 117, 118, 119, 120, 121, 122, 123, 124, 125, 126, 127, 128, 129, 130, 131, 132, 133, 134, 135, 136, 137, 138, 139, 140, 141, 142, 143, 144, 145, 146, 147, 148, 149, 150, 151, 152, 153, 154, 155, 156],
      "LargestImagePixelValue": [2988, 2919, 2931, 2903, 2902, 2906, 2906, 2927, 2915, 2933, 2932, 2925, 2933, 2923, 2922, 2925, 2921, 2925, 2905, 2899, 2919, 2921, 2952, 2933, 2980, 2968, 2948, 2953, 2973, 2935, 2932, 2958, 2948, 2970, 2956, 2979, 2945, 2954, 2951, 2976, 2970, 3007, 2982, 3005, 2995, 2992, 2967, 3009, 2997, 2974, 2993, 3060, 2972, 3003, 3008, 2995, 2987, 2998, 3021, 3005, 3020, 3025, 3016, 3021, 3052, 3002, 3009, 3028, 3026, 3016, 3068, 3027, 2986, 3044, 3010, 3037, 3079, 3034, 3059, 3070, 3025, 3033, 3032, 3101, 3077, 3090, 3072, 3066, 3075, 3081, 3076, 3055, 3052, 3072, 3052, 3084, 3051, 3057, 3043, 3074, 3053, 3034, 3050, 3061, 3061, 3043, 3093, 3035, 3048, 3059, 3051, 3057, 3095, 3020, 3037, 3052, 3051, 3098, 3082, 3104, 3048, 3082, 3113, 3100, 3082, 3065, 3060, 3085, 3093, 3075, 3046, 3093, 3101, 3087, 3073, 3095, 3106, 3094, 3102, 3108, 3115, 3116, 3105, 3109, 3121, 3108, 3093, 3102, 3061, 3125, 3093, 3127, 3123, 3119, 3121, 3120],
      "WindowCenter": [737.0, 738.0, 738.0, 737.0, 736.0, 736.0, 736.0, 737.0, 739.0, 738.0, 739.0, 738.0, 738.0, 738.0, 737.0, 736.0, 737.0, 736.0, 735.0, 736.0, 739.0, 738.0, 738.0, 737.0, 737.0, 737.0, 737.0, 738.0, 738.0, 736.0, 735.0, 736.0, 739.0, 739.0, 738.0, 738.0, 738.0, 738.0, 738.0, 738.0, 738.0, 738.0, 738.0, 737.0, 739.0, 738.0, 737.0, 736.0, 738.0, 738.0, 738.0, 738.0, 738.0, 737.0, 737.0, 737.0, 739.0, 738.0, 737.0, 737.0, 739.0, 738.0, 738.0, 737.0, 739.0, 738.0, 736.0, 736.0, 738.0, 739.0, 740.0, 738.0, 738.0, 738.0, 738.0, 738.0, 739.0, 739.0, 738.0, 739.0, 739.0, 738.0, 739.0, 739.0, 740.0, 740.0, 739.0, 737.0, 739.0, 739.0, 738.0, 737.0, 738.0, 739.0, 739.0, 739.0, 739.0, 738.0, 739.0, 740.0, 739.0, 738.0, 739.0, 739.0, 740.0, 740.0, 740.0, 738.0, 739.0, 739.0, 739.0, 739.0, 740.0, 739.0, 737.0, 738.0, 740.0, 740.0, 740.0, 739.0, 739.0, 739.0, 740.0, 739.0, 739.0, 739.0, 739.0, 738.0, 739.0, 739.0, 738.0, 740.0, 740.0, 738.0, 738.0, 738.0, 739.0, 739.0, 738.0, 738.0, 740.0, 740.0, 739.0, 738.0, 739.0, 741.0, 741.0, 740.0, 739.0, 739.0, 738.0, 738.0, 738.0, 738.0, 739.0, 740.0],
      "WindowWidth": [1593.0, 1594.0, 1595.0, 1591.0, 1589.0, 1589.0, 1590.0, 1591.0, 1597.0, 1595.0, 1597.0, 1595.0, 1595.0, 1594.0, 1593.0, 1591.0, 1591.0, 1589.0, 1587.0, 1589.0, 1596.0, 1595.0, 1595.0, 1592.0, 1593.0, 1591.0, 1591.0, 1594.0, 1593.0, 1588.0, 1585.0, 1590.0, 1596.0, 1596.0, 1595.0, 1595.0, 1594.0, 1593.0, 1595.0, 1595.0, 1595.0, 1594.0, 1593.0, 1593.0, 1598.0, 1596.0, 1593.0, 1590.0, 1593.0, 1594.0, 1593.0, 1594.0, 1595.0, 1593.0, 1591.0, 1591.0, 1596.0, 1594.0, 1592.0, 1593.0, 1596.0, 1595.0, 1594.0, 1593.0, 1598.0, 1594.0, 1589.0, 1590.0, 1595.0, 1597.0, 1599.0, 1595.0, 1594.0, 1595.0, 1594.0, 1595.0, 1596.0, 1596.0, 1594.0, 1597.0, 1597.0, 1595.0, 1597.0, 1597.0, 1599.0, 1599.0, 1597.0, 1593.0, 1596.0, 1598.0, 1594.0, 1591.0, 1594.0, 1598.0, 1597.0, 1596.0, 1596.0, 1595.0, 1598.0, 1598.0, 1597.0, 1594.0, 1595.0, 1596.0, 1601.0, 1601.0, 1598.0, 1594.0, 1597.0, 1597.0, 1596.0, 1597.0, 1599.0, 1596.0, 1591.0, 1593.0, 1599.0, 1599.0, 1599.0, 1598.0, 1597.0, 1598.0, 1598.0, 1596.0, 1596.0, 1597.0, 1595.0, 1594.0, 1597.0, 1596.0, 1595.0, 1599.0, 1598.0, 1595.0, 1594.0, 1595.0, 1598.0, 1598.0, 1595.0, 1595.0, 1599.0, 1598.0, 1596.0, 1595.0, 1597.0, 1602.0, 1602.0, 1598.0, 1597.0, 1597.0, 1595.0, 1595.0, 1595.0, 1595.0, 1596.0, 1598.0]
    },
    "slices": {}
  }
}