{
  "AcquisitionMatrixPE": 100,
  "AcquisitionNumber": 1,
  "AcquisitionTime": "15:07:33.497500",
  "BandwidthPerPixelPhaseEncode": 18.519,
  "BaseResolution": 100,
  "BodyPartExamined": "BRAIN",
  "CoilCombinationMethod": "Sum of Squares",
  "ConsistencyInfo": "N4_VE11C_LATEST_20160120",
  "ConversionSoftware": "dcm2niix",
  "ConversionSoftwareVersion": "v1.0.20211006",
  "DerivedVendorReportedEchoSpacing": 0.000539986,
  "DeviceSerialNumber": "166078",
  "DwellTime": 2.1e-06,
  "EchoTime": 0.034,
  "EchoTrainLength": 100,
  "EffectiveEchoSpacing": 0.000539986,
  "FlipAngle": 90,
  "ImageOrientationPatientDICOM": [1, 0, 0, 0, 0.983885, -0.178802],
  "ImageOrientationText": "Tra>Cor(-10.3)",
  "ImageType": [
    "ORIGINAL",
    "PRIMARY",
    "M",
    "ND",
    "MOSAIC"
],
  "ImagingFrequency": 123.258,
  "InPlanePhaseEncodingDirectionDICOM": "COL",
  "InstitutionAddress": "Street StreetNo,Bei Jing,District,CN,ZIP",
  "InstitutionName": "BeiJing Normal University",
  "InstitutionalDepartmentName": "Department",
  "MRAcquisitionType": "2D",
  "MagneticFieldStrength": 3,
  "Manufacturer": "Siemens",
  "ManufacturersModelName": "Prisma",
  "Modality": "MR",
  "MultibandAccelerationFactor": 3,
  "PartialFourier": 1,
  "PatientPosition": "HFS",
  "PercentPhaseFOV": 100,
  "PercentSampling": 100,
  "PhaseEncodingDirection": "j-",
  "PhaseEncodingSteps": 100,
  "PhaseResolution": 1,
  "PixelBandwidth": 2380,
  "ProcedureStepDescription": "BNU_P2018_64CH^Zhen.ZongLei",
  "ProtocolName": "bold_100x100_s3_2x2x2_static_156",
  "PulseSequenceDetails": "%SiemensSeq%\\ep2d_bold",
  "ReceiveCoilActiveElements": "HC1-7;NC1",
  "ReceiveCoilName": "HeadNeck_64",
  "ReconMatrixPE": 100,
  "RefLinesPE": 32,
  "RepetitionTime": 2,
  "SAR": 0.0722742,
  "ScanOptions": "FS",
  "ScanningSequence": "EP",
  "SequenceName": "*epfid2d1_100",
  "SequenceVariant": "SK",
  "SeriesDescription": "bold_100x100_s3_2x2x2_static_156",
  "SeriesNumber": 12,
  "ShimSetting": [-5451, -11517, -1255, 409, 30, -306, -194, 26],
  "SliceThickness": 2,
  "SliceTiming": [1.485, 0, 0.99, 0.0825, 1.0725, 0.165, 1.155, 0.2475, 1.2375, 0.33, 1.32, 0.4125, 1.4025, 0.5775, 1.5675, 0.66, 1.65, 0.7425, 1.7325, 0.825, 1.815, 0.9075, 1.8975, 0.495, 1.485, 0, 0.99, 0.0825, 1.0725, 0.165, 1.155, 0.2475, 1.2375, 0.33, 1.32, 0.4125, 1.4025, 0.5775, 1.5675, 0.66, 1.65, 0.7425, 1.7325, 0.825, 1.815, 0.9075, 1.8975, 0.495, 1.485, 0, 0.99, 0.0825, 1.0725, 0.165, 1.155, 0.2475, 1.2375, 0.33, 1.32, 0.4125, 1.4025, 0.5775, 1.5675, 0.66, 1.65, 0.7425, 1.7325, 0.825, 1.815, 0.9075, 1.8975, 0.495],
  "SoftwareVersions": "syngo MR E11",
  "SpacingBetweenSlices": 2,
  "StationName": "AWP166078",
  "TaskName": "action",
  "TotalReadoutTime": 0.0534586,
  "TxRefAmp": 207.948,
  "dcmmeta_affine": [
    [-2.0, 0.0, 0.0, 101.3559341430664],
    [0.0, 1.9677700996398926, -0.357604444026947, -80.33110046386719],
    [0.0, 0.357604444026947, 1.9677700996398926, -76.04673767089844],
    [0.0, 0.0, 0.0, 1.0]
],
  "dcmmeta_reorient_transform": [
    [0.0, -1.0, 0.0, 99.0],
    [1.0, 0.0, 0.0, 0.0],
    [0.0, 0.0, 1.0, 0.0],
    [0.0, 0.0, 0.0, 1.0]
],
  "dcmmeta_shape": [100, 100, 72, 156],
  "dcmmeta_slice_dim": 2,
  "dcmmeta_version": 0.6,
  "global": {
    "const": {
      "AcquisitionMatrix": [100, 0, 0, 100],
      "AngioFlag": "N",
      "BitsAllocated": 16,
      "BitsStored": 12,
      "BodyPartExamined": "BRAIN",
      "Columns": 900,
      "EchoNumbers": 1,
      "EchoTime": 34.0,
      "EchoTrainLength": 100,
      "FlipAngle": 90.0,
      "HighBit": 11,
      "ImageOrientationPatient": [1.0, 0.0, 0.0, 0.0, 0.98388503666185, -0.178802222114],
      "ImagePositionPatient": [-901.35593223572, -901.58616312262, 102.39787957182],
      "ImageType": [
        "ORIGINAL",
        "PRIMARY",
        "M",
        "ND",
        "MOSAIC"
],
      "ImagedNucleus": "1H",
      "ImagingFrequency": 123.257743,
      "InPlanePhaseEncodingDirection": "COL",
      "MRAcquisitionType": "2D",
      "MagneticFieldStrength": 3.0,
      "Manufacturer": "SIEMENS",
      "ManufacturerModelName": "Prisma",
      "Modality": "MR",
      "NumberOfAverages": 1.0,
      "NumberOfPhaseEncodingSteps": 100,
      "PercentPhaseFieldOfView": 100.0,
      "PercentSampling": 100.0,
      "PerformedProcedureStepStartTime": "141859.498000",
      "PhotometricInterpretation": "MONOCHROME2",
      "PixelBandwidth": 2380.0,
      "PixelRepresentation": 0,
      "PixelSpacing": [2.0, 2.0],
      "ProtocolName": "bold_100x100_s3_2x2x2_static_156",
      "RepetitionTime": 2000.0,
      "Rows": 900,
      "SAR": 0.07227419260634,
      "SamplesPerPixel": 1,
      "ScanOptions": "FS",
      "ScanningSequence": "EP",
      "SequenceName": "*epfid2d1_100",
      "SequenceVariant": "SK",
      "SeriesDescription": "bold_100x100_s3_2x2x2_static_156",
      "SeriesNumber": 12,
      "SeriesTime": "150736.777000",
      "SliceLocation": -60.457867896974,
      "SliceThickness": 2.0,
      "SmallestImagePixelValue": 0,
      "SoftwareVersions": "syngo MR E11",
      "SpacingBetweenSlices": 1.9999999770499,
      "SpecificCharacterSet": "ISO_IR 100",
      "StudyID": "1",
      "StudyTime": "141859.413000",
      "TransmitCoilName": "Body",
      "VariableFlipAngleFlag": "N",
      "WindowCenterWidthExplanation": "Algo1",
      "dBdt": 0.0},
    "slices": {}
  },
  "time": {
    "samples": {
      "AcquisitionNumber": [1, 2, 3, 4, 5, 6, 7, 8, 9, 10, 11, 12, 13, 14, 15, 16, 17, 18, 19, 20, 21, 22, 23, 24, 25, 26, 27, 28, 29, 30, 31, 32, 33, 34, 35, 36, 37, 38, 39, 40, 41, 42, 43, 44, 45, 46, 47, 48, 49, 50, 51, 52, 53, 54, 55, 56, 57, 58, 59, 60, 61, 62, 63, 64, 65, 66, 67, 68, 69, 70, 71, 72, 73, 74, 75, 76, 77, 78, 79, 80, 81, 82, 83, 84, 85, 86, 87, 88, 89, 90, 91, 92, 93, 94, 95, 96, 97, 98, 99, 100, 101, 102, 103, 104, 105, 106, 107, 108, 109, 110, 111, 112, 113, 114, 115, 116, 117, 118, 119, 120, 121, 122, 123, 124, 125, 126, 127, 128, 129, 130, 131, 132, 133, 134, 135, 136, 137, 138, 139, 140, 141, 142, 143, 144, 145, 146, 147, 148, 149, 150, 151, 152, 153, 154, 155, 156],
      "AcquisitionTime": ["150733.497500", "150735.497500", "150737.497500", "150739.497500", "150741.497500", "150743.497500", "150745.497500", "150747.497500", "150749.497500", "150751.497500", "150753.497500", "150755.497500", "150757.497500", "150759.497500", "150801.497500", "150803.497500", "150805.497500", "150807.497500", "150809.497500", "150811.497500", "150813.497500", "150815.497500", "150817.497500", "150819.497500", "150821.497500", "150823.497500", "150825.497500", "150827.497500", "150829.497500", "150831.497500", "150833.497500", "150835.497500", "150837.497500", "150839.497500", "150841.497500", "150843.497500", "150845.497500", "150847.497500", "150849.497500", "150851.497500", "150853.497500", "150855.497500", "150857.497500", "150859.497500", "150901.497500", "150903.497500", "150905.497500", "150907.497500", "150909.497500", "150911.497500", "150913.497500", "150915.497500", "150917.497500", "150919.497500", "150921.497500", "150923.497500", "150925.497500", "150927.497500", "150929.497500", "150931.497500", "150933.497500", "150935.497500", "150937.497500", "150939.497500", "150941.497500", "150943.497500", "150945.497500", "150947.497500", "150949.497500", "150951.497500", "150953.497500", "150955.497500", "150957.497500", "150959.497500", "151001.497500", "151003.497500", "151005.497500", "151007.497500", "151009.497500", "151011.497500", "151013.497500", "151015.497500", "151017.497500", "151019.497500", "151021.497500", "151023.497500", "151025.497500", "151027.497500", "151029.497500", "151031.497500", "151033.497500", "151035.497500", "151037.497500", "151039.497500", "151041.497500", "151043.497500", "151045.497500", "151047.497500", "151049.497500", "151051.497500", "151053.497500", "151055.497500", "151057.497500", "151059.497500", "151101.497500", "151103.497500", "151105.497500", "151107.497500", "151109.497500", "151111.497500", "151113.497500", "151115.497500", "151117.497500", "151119.497500", "151121.497500", "151123.497500", "151125.497500", "151127.497500", "151129.497500", "151131.497500", "151133.497500", "151135.497500", "151137.497500", "151139.497500", "151141.497500", "151143.497500", "151145.497500", "151147.497500", "151149.497500", "151151.497500", "151153.497500", "151155.497500", "151157.497500", "151159.497500", "151201.497500", "151203.497500", "151205.497500", "151207.497500", "151209.497500", "151211.497500", "151213.497500", "151215.497500", "151217.497500", "151219.497500", "151221.497500", "151223.497500", "151225.497500", "151227.497500", "151229.497500", "151231.497500", "151233.497500", "151235.497500", "151237.497500", "151239.497500", "151241.497500", "151243.497500"],
      "ContentTime": ["150736.781000", "150738.276000", "150740.277000", "150742.277000", "150744.278000", "150746.278000", "150748.278000", "150749.777000", "150752.276000", "150754.276000", "150756.277000", "150758.277000", "150800.277000", "150802.277000", "150804.277000", "150806.277000", "150808.277000", "150810.276000", "150812.276000", "150814.277000", "150816.278000", "150817.778000", "150820.278000", "150821.778000", "150824.278000", "150826.278000", "150828.277000", "150829.776000", "150832.278000", "150834.277000", "150836.278000", "150838.277000", "150839.778000", "150842.278000", "150844.277000", "150846.277000", "150848.277000", "150850.278000", "150851.778000", "150854.278000", "150855.777000", "150858.278000", "150900.277000", "150902.277000", "150904.277000", "150906.278000", "150907.778000", "150909.778000", "150912.278000", "150913.778000", "150916.278000", "150918.277000", "150920.276000", "150922.276000", "150923.777000", "150926.277000", "150928.277000", "150930.277000", "150932.277000", "150934.277000", "150936.278000", "150938.276000", "150940.277000", "150942.277000", "150944.277000", "150946.277000", "150948.277000", "150950.277000", "150952.277000", "150954.276000", "150956.276000", "150958.277000", "151000.278000", "151002.278000", "151004.277000", "151005.777000", "151008.277000", "151010.277000", "151012.277000", "151014.277000", "151016.278000", "151017.778000", "151020.278000", "151022.278000", "151023.778000", "151026.277000", "151028.277000", "151030.276000", "151031.776000", "151034.278000", "151035.778000", "151038.278000", "151040.278000", "151042.277000", "151043.777000", "151045.778000", "151048.276000", "151050.277000", "151052.278000", "151054.278000", "151056.278000", "151058.278000", "151100.278000", "151102.278000", "151104.277000", "151105.776000", "151108.276000", "151110.278000", "151111.778000", "151114.278000", "151116.277000", "151118.277000", "151120.277000", "151122.277000", "151124.277000", "151126.278000", "151128.278000", "151130.278000", "151132.278000", "151134.278000", "151136.278000", "151138.278000", "151139.776000", "151142.277000", "151144.278000", "151146.278000", "151148.277000", "151149.777000", "151152.278000", "151154.277000", "151156.277000", "151158.278000", "151200.277000", "151201.777000", "151204.279000", "151206.277000", "151208.277000", "151210.278000", "151212.278000", "151214.276000", "151215.777000", "151218.277000", "151220.277000", "151221.778000", "151223.778000", "151226.278000", "151228.278000", "151230.277000", "151232.277000", "151234.277000", "151236.278000", "151238.278000", "151240.278000", "151242.278000", "151243.778000", "151245.881000"],
      "InstanceCreationTime": ["150736.781000", "150738.276000", "150740.277000", "150742.277000", "150744.278000", "150746.278000", "150748.278000", "150749.777000", "150752.276000", "150754.276000", "150756.277000", "150758.277000", "150800.277000", "150802.277000", "150804.277000", "150806.277000", "150808.277000", "150810.276000", "150812.276000", "150814.277000", "150816.278000", "150817.778000", "150820.278000", "150821.778000", "150824.278000", "150826.278000", "150828.277000", "150829.776000", "150832.278000", "150834.277000", "150836.278000", "150838.277000", "150839.778000", "150842.278000", "150844.277000", "150846.277000", "150848.277000", "150850.278000", "150851.778000", "150854.278000", "150855.777000", "150858.278000", "150900.277000", "150902.277000", "150904.277000", "150906.278000", "150907.778000", "150909.778000", "150912.278000", "150913.778000", "150916.278000", "150918.277000", "150920.276000", "150922.276000", "150923.777000", "150926.277000", "150928.277000", "150930.277000", "150932.277000", "150934.277000", "150936.278000", "150938.276000", "150940.277000", "150942.277000", "150944.277000", "150946.277000", "150948.277000", "150950.277000", "150952.277000", "150954.276000", "150956.276000", "150958.277000", "151000.278000", "151002.278000", "151004.277000", "151005.777000", "151008.277000", "151010.277000", "151012.277000", "151014.277000", "151016.278000", "151017.778000", "151020.278000", "151022.278000", "151023.778000", "151026.277000", "151028.277000", "151030.276000", "151031.776000", "151034.278000", "151035.778000", "151038.278000", "151040.278000", "151042.277000", "151043.777000", "151045.778000", "151048.276000", "151050.277000", "151052.278000", "151054.278000", "151056.278000", "151058.278000", "151100.278000", "151102.278000", "151104.277000", "151105.776000", "151108.276000", "151110.278000", "151111.778000", "151114.278000", "151116.277000", "151118.277000", "151120.277000", "151122.277000", "151124.277000", "151126.278000", "151128.278000", "151130.278000", "151132.278000", "151134.278000", "151136.278000", "151138.278000", "151139.776000", "151142.277000", "151144.278000", "151146.278000", "151148.277000", "151149.777000", "151152.278000", "151154.277000", "151156.277000", "151158.278000", "151200.277000", "151201.777000", "151204.279000", "151206.277000", "151208.277000", "151210.278000", "151212.278000", "151214.276000", "151215.777000", "151218.277000", "151220.277000", "151221.778000", "151223.778000", "151226.278000", "151228.278000", "151230.277000", "151232.277000", "151234.277000", "151236.278000", "151238.278000", "151240.278000", "151242.278000", "151243.778000", "151245.881000"],
      "InstanceNumber": [1, 2, 3, 4, 5, 6, 7, 8, 9, 10, 11, 12, 13, 14, 15, 16, 17, 18, 19, 20, 21, 22, 23, 24, 25, 26, 27, 28, 29, 30, 31, 32, 33, 34, 35, 36, 37, 38, 39, 40, 41, 42, 43, 44, 45, 46, 47, 48, 49, 50, 51, 52, 53, 54, 55, 56, 57, 58, 59, 60, 61, 62, 63, 64, 65, 66, 67, 68, 69, 70, 71, 72, 73, 74, 75, 76, 77, 78, 79, 80, 81, 82, 83, 84, 85, 86, 87, 88, 89, 90, 91, 92, 93, 94, 95, 96, 97, 98, 99, 100, 101, 102, 103, 104, 105, 106, 107, 108, 109, 110, 111, 112, 113, 114, 115, 116, 117, 118, 119, 120, 121, 122, 123, 124, 125, 126, 127, 128, 129, 130, 131, 132, 133, 134, 135, 136, 137, 138, 139, 140, 141, 142, 143, 144, 145, 146, 147, 148, 149, 150, 151, 152, 153, 154, 155, 156],
      "LargestImagePixelValue": [3173, 3122, 3045, 3033, 3006, 3031, 3040, 3021, 3062, 3044, 3043, 3022, 3073, 3081, 3048, 3048, 3037, 3058, 3097, 3046, 3091, 3100, 3044, 3067, 3060, 3057, 3026, 3033, 3037, 3019, 3097, 3027, 3046, 3080, 3024, 3052, 3012, 3055, 3041, 3047, 3093, 3032, 3070, 3054, 3028, 3081, 3074, 3028, 3068, 3033, 3057, 3055, 3055, 3092, 3076, 3071, 3082, 3038, 3070, 3037, 3068, 3059, 3017, 3081, 3086, 3063, 3070, 3040, 3053, 3092, 3057, 3102, 3077, 3096, 3039, 3067, 3055, 3066, 3095, 3068, 3087, 3056, 3098, 3028, 3101, 3052, 3064, 3037, 3097, 3106, 3065, 3074, 3092, 3030, 3063, 3038, 3052, 3076, 3038, 3058, 3039, 3082, 3051, 3105, 3080, 3057, 3039, 3069, 3090, 3078, 3119, 3055, 3090, 3095, 3030, 3083, 3064, 3068, 3052, 3125, 3032, 3077, 3062, 3094, 3064, 3078, 3091, 3094, 3137, 3069, 3098, 3132, 3084, 3099, 3038, 3080, 3094, 3071, 3103, 3069, 3076, 3103, 3061, 3103, 3132, 3063, 3117, 3066, 3093, 3067, 3106, 3071, 3069, 3107, 3039, 3068],
      "WindowCenter": [747.0, 746.0, 746.0, 745.0, 745.0, 745.0, 745.0, 744.0, 747.0, 745.0, 745.0, 744.0, 745.0, 745.0, 744.0, 744.0, 745.0, 745.0, 745.0, 744.0, 746.0, 746.0, 745.0, 745.0, 745.0, 745.0, 744.0, 744.0, 744.0, 744.0, 744.0, 743.0, 743.0, 743.0, 743.0, 743.0, 744.0, 745.0, 744.0, 744.0, 745.0, 746.0, 746.0, 745.0, 745.0, 745.0, 746.0, 746.0, 745.0, 744.0, 744.0, 744.0, 744.0, 745.0, 745.0, 744.0, 745.0, 744.0, 744.0, 744.0, 744.0, 744.0, 744.0, 744.0, 745.0, 745.0, 745.0, 744.0, 745.0, 745.0, 745.0, 746.0, 745.0, 745.0, 745.0, 747.0, 746.0, 745.0, 744.0, 744.0, 744.0, 743.0, 744.0, 744.0, 745.0, 744.0, 745.0, 744.0, 744.0, 746.0, 746.0, 745.0, 745.0, 744.0, 744.0, 744.0, 744.0, 745.0, 745.0, 744.0, 746.0, 746.0, 745.0, 745.0, 745.0, 745.0, 745.0, 744.0, 746.0, 745.0, 745.0, 744.0, 744.0, 743.0, 742.0, 743.0, 745.0, 746.0, 746.0, 745.0, 746.0, 745.0, 745.0, 746.0, 745.0, 746.0, 745.0, 745.0, 746.0, 745.0, 746.0, 746.0, 745.0, 745.0, 745.0, 745.0, 746.0, 745.0, 744.0, 744.0, 746.0, 746.0, 745.0, 745.0, 746.0, 747.0, 748.0, 746.0, 746.0, 745.0, 744.0, 744.0, 743.0, 744.0, 745.0, 745.0],
      "WindowWidth": [1618.0, 1615.0, 1614.0, 1613.0, 1612.0, 1612.0, 1611.0, 1610.0, 1616.0, 1613.0, 1613.0, 1610.0, 1613.0, 1612.0, 1610.0, 1610.0, 1612.0, 1613.0, 1611.0, 1610.0, 1615.0, 1615.0, 1613.0, 1613.0, 1613.0, 1611.0, 1610.0, 1608.0, 1608.0, 1609.0, 1610.0, 1607.0, 1607.0, 1606.0, 1606.0, 1606.0, 1610.0, 1611.0, 1610.0, 1609.0, 1611.0, 1614.0, 1614.0, 1611.0, 1611.0, 1612.0, 1614.0, 1614.0, 1613.0, 1609.0, 1610.0, 1609.0, 1610.0, 1612.0, 1611.0, 1609.0, 1611.0, 1609.0, 1609.0, 1609.0, 1609.0, 1608.0, 1610.0, 1610.0, 1613.0, 1612.0, 1611.0, 1610.0, 1612.0, 1612.0, 1612.0, 1614.0, 1613.0, 1613.0, 1613.0, 1617.0, 1616.0, 1612.0, 1610.0, 1608.0, 1610.0, 1608.0, 1610.0, 1609.0, 1611.0, 1609.0, 1611.0, 1608.0, 1610.0, 1615.0, 1614.0, 1612.0, 1611.0, 1608.0, 1610.0, 1609.0, 1610.0, 1612.0, 1610.0, 1610.0, 1613.0, 1614.0, 1611.0, 1612.0, 1612.0, 1613.0, 1613.0, 1610.0, 1614.0, 1613.0, 1613.0, 1610.0, 1609.0, 1606.0, 1604.0, 1607.0, 1612.0, 1615.0, 1615.0, 1612.0, 1614.0, 1612.0, 1613.0, 1614.0, 1613.0, 1613.0, 1612.0, 1611.0, 1615.0, 1613.0, 1614.0, 1614.0, 1612.0, 1612.0, 1612.0, 1613.0, 1616.0, 1613.0, 1610.0, 1609.0, 1615.0, 1614.0, 1611.0, 1611.0, 1616.0, 1617.0, 1619.0, 1615.0, 1615.0, 1612.0, 1609.0, 1608.0, 1607.0, 1610.0, 1611.0, 1611.0]
    },
    "slices": {}
  }
}