{
  "AcquisitionMatrixPE": 100,
  "AcquisitionNumber": 1,
  "AcquisitionTime": "14:52:22.667500",
  "BandwidthPerPixelPhaseEncode": 18.519,
  "BaseResolution": 100,
  "BodyPartExamined": "BRAIN",
  "CoilCombinationMethod": "Sum of Squares",
  "ConsistencyInfo": "N4_VE11C_LATEST_20160120",
  "ConversionSoftware": "dcm2niix",
  "ConversionSoftwareVersion": "v1.0.20211006",
  "DerivedVendorReportedEchoSpacing": 0.000539986,
  "DeviceSerialNumber": "166078",
  "DwellTime": 2.1e-06,
  "EchoTime": 0.034,
  "EchoTrainLength": 100,
  "EffectiveEchoSpacing": 0.000539986,
  "FlipAngle": 90,
  "ImageOrientationPatientDICOM": [1, 0, 0, 0, 0.983885, -0.178802],
  "ImageOrientationText": "Tra>Cor(-10.3)",
  "ImageType": [
    "ORIGINAL",
    "PRIMARY",
    "M",
    "ND",
    "MOSAIC"
],
  "ImagingFrequency": 123.258,
  "InPlanePhaseEncodingDirectionDICOM": "COL",
  "InstitutionAddress": "Street StreetNo,Bei Jing,District,CN,ZIP",
  "InstitutionName": "BeiJing Normal University",
  "InstitutionalDepartmentName": "Department",
  "MRAcquisitionType": "2D",
  "MagneticFieldStrength": 3,
  "Manufacturer": "Siemens",
  "ManufacturersModelName": "Prisma",
  "Modality": "MR",
  "MultibandAccelerationFactor": 3,
  "PartialFourier": 1,
  "PatientPosition": "HFS",
  "PercentPhaseFOV": 100,
  "PercentSampling": 100,
  "PhaseEncodingDirection": "j-",
  "PhaseEncodingSteps": 100,
  "PhaseResolution": 1,
  "PixelBandwidth": 2380,
  "ProcedureStepDescription": "BNU_P2018_64CH^Zhen.ZongLei",
  "ProtocolName": "bold_100x100_s3_2x2x2_static_156",
  "PulseSequenceDetails": "%SiemensSeq%\\ep2d_bold",
  "ReceiveCoilActiveElements": "HC1-7;NC1",
  "ReceiveCoilName": "HeadNeck_64",
  "ReconMatrixPE": 100,
  "RefLinesPE": 32,
  "RepetitionTime": 2,
  "SAR": 0.0722742,
  "ScanOptions": "FS",
  "ScanningSequence": "EP",
  "SequenceName": "*epfid2d1_100",
  "SequenceVariant": "SK",
  "SeriesDescription": "bold_100x100_s3_2x2x2_static_156",
  "SeriesNumber": 8,
  "ShimSetting": [-5451, -11517, -1255, 409, 30, -306, -194, 26],
  "SliceThickness": 2,
  "SliceTiming": [1.4825, 0, 0.9875, 0.0825, 1.07, 0.165, 1.1525, 0.2475, 1.235, 0.33, 1.3175, 0.4125, 1.4, 0.5775, 1.565, 0.66, 1.6475, 0.7425, 1.73, 0.825, 1.8125, 0.905, 1.895, 0.495, 1.4825, 0, 0.9875, 0.0825, 1.07, 0.165, 1.1525, 0.2475, 1.235, 0.33, 1.3175, 0.4125, 1.4, 0.5775, 1.565, 0.66, 1.6475, 0.7425, 1.73, 0.825, 1.8125, 0.905, 1.895, 0.495, 1.4825, 0, 0.9875, 0.0825, 1.07, 0.165, 1.1525, 0.2475, 1.235, 0.33, 1.3175, 0.4125, 1.4, 0.5775, 1.565, 0.66, 1.6475, 0.7425, 1.73, 0.825, 1.8125, 0.905, 1.895, 0.495],
  "SoftwareVersions": "syngo MR E11",
  "SpacingBetweenSlices": 2,
  "StationName": "AWP166078",
  "TaskName": "action",
  "TotalReadoutTime": 0.0534586,
  "TxRefAmp": 207.948,
  "dcmmeta_affine": [
    [-2.0, 0.0, 0.0, 101.3559341430664],
    [0.0, 1.9677700996398926, -0.357604444026947, -80.33110046386719],
    [0.0, 0.357604444026947, 1.9677700996398926, -76.04673767089844],
    [0.0, 0.0, 0.0, 1.0]
],
  "dcmmeta_reorient_transform": [
    [0.0, -1.0, 0.0, 99.0],
    [1.0, 0.0, 0.0, 0.0],
    [0.0, 0.0, 1.0, 0.0],
    [0.0, 0.0, 0.0, 1.0]
],
  "dcmmeta_shape": [100, 100, 72, 156],
  "dcmmeta_slice_dim": 2,
  "dcmmeta_version": 0.6,
  "global": {
    "const": {
      "AcquisitionMatrix": [100, 0, 0, 100],
      "AngioFlag": "N",
      "BitsAllocated": 16,
      "BitsStored": 12,
      "BodyPartExamined": "BRAIN",
      "Columns": 900,
      "EchoNumbers": 1,
      "EchoTime": 34.0,
      "EchoTrainLength": 100,
      "FlipAngle": 90.0,
      "HighBit": 11,
      "ImageOrientationPatient": [1.0, 0.0, 0.0, 0.0, 0.98388503666185, -0.178802222114],
      "ImagePositionPatient": [-901.35593223572, -901.58616312262, 102.39787957182],
      "ImageType": [
        "ORIGINAL",
        "PRIMARY",
        "M",
        "ND",
        "MOSAIC"
],
      "ImagedNucleus": "1H",
      "ImagingFrequency": 123.257746,
      "InPlanePhaseEncodingDirection": "COL",
      "MRAcquisitionType": "2D",
      "MagneticFieldStrength": 3.0,
      "Manufacturer": "SIEMENS",
      "ManufacturerModelName": "Prisma",
      "Modality": "MR",
      "NumberOfAverages": 1.0,
      "NumberOfPhaseEncodingSteps": 100,
      "PercentPhaseFieldOfView": 100.0,
      "PercentSampling": 100.0,
      "PerformedProcedureStepStartTime": "141859.498000",
      "PhotometricInterpretation": "MONOCHROME2",
      "PixelBandwidth": 2380.0,
      "PixelRepresentation": 0,
      "PixelSpacing": [2.0, 2.0],
      "ProtocolName": "bold_100x100_s3_2x2x2_static_156",
      "RepetitionTime": 2000.0,
      "Rows": 900,
      "SAR": 0.07227419260634,
      "SamplesPerPixel": 1,
      "ScanOptions": "FS",
      "ScanningSequence": "EP",
      "SequenceName": "*epfid2d1_100",
      "SequenceVariant": "SK",
      "SeriesDescription": "bold_100x100_s3_2x2x2_static_156",
      "SeriesNumber": 8,
      "SeriesTime": "145224.914000",
      "SliceLocation": -60.457867896974,
      "SliceThickness": 2.0,
      "SmallestImagePixelValue": 0,
      "SoftwareVersions": "syngo MR E11",
      "SpacingBetweenSlices": 1.9999999770499,
      "SpecificCharacterSet": "ISO_IR 100",
      "StudyID": "1",
      "StudyTime": "141859.413000",
      "TransmitCoilName": "Body",
      "VariableFlipAngleFlag": "N",
      "WindowCenterWidthExplanation": "Algo1",
      "dBdt": 0.0},
    "slices": {}
  },
  "time": {
    "samples": {
      "AcquisitionNumber": [1, 2, 3, 4, 5, 6, 7, 8, 9, 10, 11, 12, 13, 14, 15, 16, 17, 18, 19, 20, 21, 22, 23, 24, 25, 26, 27, 28, 29, 30, 31, 32, 33, 34, 35, 36, 37, 38, 39, 40, 41, 42, 43, 44, 45, 46, 47, 48, 49, 50, 51, 52, 53, 54, 55, 56, 57, 58, 59, 60, 61, 62, 63, 64, 65, 66, 67, 68, 69, 70, 71, 72, 73, 74, 75, 76, 77, 78, 79, 80, 81, 82, 83, 84, 85, 86, 87, 88, 89, 90, 91, 92, 93, 94, 95, 96, 97, 98, 99, 100, 101, 102, 103, 104, 105, 106, 107, 108, 109, 110, 111, 112, 113, 114, 115, 116, 117, 118, 119, 120, 121, 122, 123, 124, 125, 126, 127, 128, 129, 130, 131, 132, 133, 134, 135, 136, 137, 138, 139, 140, 141, 142, 143, 144, 145, 146, 147, 148, 149, 150, 151, 152, 153, 154, 155, 156],
      "AcquisitionTime": ["145222.667500", "145224.667500", "145226.667500", "145228.667500", "145230.667500", "145232.667500", "145234.667500", "145236.667500", "145238.667500", "145240.667500", "145242.667500", "145244.667500", "145246.667500", "145248.667500", "145250.667500", "145252.667500", "145254.667500", "145256.667500", "145258.667500", "145300.667500", "145302.667500", "145304.667500", "145306.667500", "145308.667500", "145310.667500", "145312.667500", "145314.667500", "145316.667500", "145318.667500", "145320.667500", "145322.667500", "145324.667500", "145326.667500", "145328.667500", "145330.667500", "145332.667500", "145334.667500", "145336.667500", "145338.667500", "145340.667500", "145342.667500", "145344.667500", "145346.667500", "145348.667500", "145350.667500", "145352.667500", "145354.667500", "145356.667500", "145358.667500", "145400.667500", "145402.667500", "145404.667500", "145406.667500", "145408.667500", "145410.667500", "145412.667500", "145414.667500", "145416.667500", "145418.667500", "145420.667500", "145422.667500", "145424.667500", "145426.667500", "145428.667500", "145430.667500", "145432.667500", "145434.667500", "145436.667500", "145438.667500", "145440.667500", "145442.667500", "145444.667500", "145446.667500", "145448.667500", "145450.667500", "145452.667500", "145454.667500", "145456.667500", "145458.667500", "145500.667500", "145502.667500", "145504.667500", "145506.667500", "145508.667500", "145510.667500", "145512.667500", "145514.667500", "145516.667500", "145518.667500", "145520.667500", "145522.667500", "145524.667500", "145526.667500", "145528.667500", "145530.667500", "145532.667500", "145534.667500", "145536.667500", "145538.667500", "145540.667500", "145542.667500", "145544.667500", "145546.667500", "145548.667500", "145550.667500", "145552.667500", "145554.667500", "145556.667500", "145558.667500", "145600.667500", "145602.667500", "145604.667500", "145606.667500", "145608.667500", "145610.667500", "145612.667500", "145614.667500", "145616.667500", "145618.667500", "145620.667500", "145622.667500", "145624.667500", "145626.667500", "145628.667500", "145630.667500", "145632.667500", "145634.667500", "145636.667500", "145638.667500", "145640.667500", "145642.667500", "145644.667500", "145646.667500", "145648.667500", "145650.667500", "145652.667500", "145654.667500", "145656.667500", "145658.667500", "145700.667500", "145702.667500", "145704.667500", "145706.667500", "145708.667500", "145710.667500", "145712.667500", "145714.667500", "145716.667500", "145718.667500", "145720.667500", "145722.667500", "145724.667500", "145726.667500", "145728.667500", "145730.667500", "145732.667500"],
      "ContentTime": ["145224.917000", "145226.413000", "145228.412000", "145230.413000", "145232.413000", "145234.414000", "145236.413000", "145238.414000", "145240.412000", "145242.413000", "145244.412000", "145246.412000", "145248.414000", "145250.413000", "145252.414000", "145254.413000", "145256.413000", "145258.413000", "145300.412000", "145302.413000", "145304.413000", "145306.414000", "145308.413000", "145310.414000", "145312.414000", "145314.413000", "145316.412000", "145318.413000", "145320.413000", "145322.413000", "145324.414000", "145326.413000", "145328.414000", "145330.414000", "145332.413000", "145334.413000", "145336.413000", "145338.412000", "145340.413000", "145342.414000", "145344.414000", "145346.413000", "145348.414000", "145350.413000", "145352.413000", "145354.412000", "145356.413000", "145358.413000", "145400.414000", "145402.414000", "145404.414000", "145406.413000", "145408.413000", "145410.413000", "145412.413000", "145414.413000", "145416.414000", "145418.414000", "145420.414000", "145422.414000", "145424.413000", "145426.413000", "145428.413000", "145430.413000", "145432.414000", "145434.414000", "145436.413000", "145438.414000", "145440.413000", "145442.412000", "145444.413000", "145446.412000", "145448.413000", "145450.414000", "145452.414000", "145454.414000", "145456.414000", "145458.413000", "145500.413000", "145502.413000", "145504.413000", "145506.413000", "145508.413000", "145510.413000", "145512.414000", "145514.414000", "145516.412000", "145518.412000", "145520.413000", "145522.413000", "145524.414000", "145526.414000", "145528.414000", "145530.414000", "145532.414000", "145534.413000", "145536.412000", "145538.412000", "145540.412000", "145542.413000", "145544.413000", "145546.414000", "145548.413000", "145550.414000", "145552.413000", "145554.413000", "145556.412000", "145558.412000", "145600.414000", "145602.418000", "145604.414000", "145606.414000", "145608.414000", "145610.413000", "145612.413000", "145614.412000", "145616.413000", "145618.413000", "145620.413000", "145622.413000", "145624.414000", "145626.413000", "145628.413000", "145630.412000", "145632.413000", "145634.413000", "145636.413000", "145638.414000", "145640.414000", "145642.414000", "145644.413000", "145646.413000", "145648.413000", "145650.413000", "145652.414000", "145654.414000", "145656.414000", "145658.414000", "145700.414000", "145702.413000", "145704.412000", "145706.413000", "145708.412000", "145710.414000", "145712.414000", "145714.413000", "145716.414000", "145718.414000", "145720.413000", "145722.413000", "145724.412000", "145726.412000", "145728.414000", "145730.414000", "145732.414000", "145734.197000"],
      "InstanceCreationTime": ["145224.917000", "145226.413000", "145228.412000", "145230.413000", "145232.413000", "145234.414000", "145236.413000", "145238.414000", "145240.412000", "145242.413000", "145244.412000", "145246.412000", "145248.414000", "145250.413000", "145252.414000", "145254.413000", "145256.413000", "145258.413000", "145300.412000", "145302.413000", "145304.413000", "145306.414000", "145308.413000", "145310.414000", "145312.414000", "145314.413000", "145316.412000", "145318.413000", "145320.413000", "145322.413000", "145324.414000", "145326.413000", "145328.414000", "145330.414000", "145332.413000", "145334.413000", "145336.413000", "145338.412000", "145340.413000", "145342.414000", "145344.414000", "145346.413000", "145348.414000", "145350.413000", "145352.413000", "145354.412000", "145356.413000", "145358.413000", "145400.414000", "145402.414000", "145404.414000", "145406.413000", "145408.413000", "145410.413000", "145412.413000", "145414.413000", "145416.414000", "145418.414000", "145420.414000", "145422.414000", "145424.413000", "145426.413000", "145428.413000", "145430.413000", "145432.414000", "145434.414000", "145436.413000", "145438.414000", "145440.413000", "145442.412000", "145444.413000", "145446.412000", "145448.413000", "145450.414000", "145452.414000", "145454.414000", "145456.414000", "145458.413000", "145500.413000", "145502.413000", "145504.413000", "145506.413000", "145508.413000", "145510.413000", "145512.414000", "145514.414000", "145516.412000", "145518.412000", "145520.413000", "145522.413000", "145524.414000", "145526.414000", "145528.414000", "145530.414000", "145532.414000", "145534.413000", "145536.412000", "145538.412000", "145540.412000", "145542.413000", "145544.413000", "145546.414000", "145548.413000", "145550.414000", "145552.413000", "145554.413000", "145556.412000", "145558.412000", "145600.414000", "145602.418000", "145604.414000", "145606.414000", "145608.414000", "145610.413000", "145612.413000", "145614.412000", "145616.413000", "145618.413000", "145620.413000", "145622.413000", "145624.414000", "145626.413000", "145628.413000", "145630.412000", "145632.413000", "145634.413000", "145636.413000", "145638.414000", "145640.414000", "145642.414000", "145644.413000", "145646.413000", "145648.413000", "145650.413000", "145652.414000", "145654.414000", "145656.414000", "145658.414000", "145700.414000", "145702.413000", "145704.412000", "145706.413000", "145708.412000", "145710.414000", "145712.414000", "145714.413000", "145716.414000", "145718.414000", "145720.413000", "145722.413000", "145724.412000", "145726.412000", "145728.414000", "145730.414000", "145732.414000", "145734.197000"],
      "InstanceNumber": [1, 2, 3, 4, 5, 6, 7, 8, 9, 10, 11, 12, 13, 14, 15, 16, 17, 18, 19, 20, 21, 22, 23, 24, 25, 26, 27, 28, 29, 30, 31, 32, 33, 34, 35, 36, 37, 38, 39, 40, 41, 42, 43, 44, 45, 46, 47, 48, 49, 50, 51, 52, 53, 54, 55, 56, 57, 58, 59, 60, 61, 62, 63, 64, 65, 66, 67, 68, 69, 70, 71, 72, 73, 74, 75, 76, 77, 78, 79, 80, 81, 82, 83, 84, 85, 86, 87, 88, 89, 90, 91, 92, 93, 94, 95, 96, 97, 98, 99, 100, 101, 102, 103, 104, 105, 106, 107, 108, 109, 110, 111, 112, 113, 114, 115, 116, 117, 118, 119, 120, 121, 122, 123, 124, 125, 126, 127, 128, 129, 130, 131, 132, 133, 134, 135, 136, 137, 138, 139, 140, 141, 142, 143, 144, 145, 146, 147, 148, 149, 150, 151, 152, 153, 154, 155, 156],
      "LargestImagePixelValue": [3009, 2976, 2970, 2963, 3024, 3036, 2993, 2977, 2949, 2959, 2962, 2940, 2922, 2878, 2885, 2886, 2873, 2907, 3033, 3039, 2974, 2860, 2900, 2918, 2895, 2901, 2911, 2884, 2911, 2907, 2900, 2905, 2945, 2966, 2985, 2933, 2896, 2956, 2896, 2906, 2912, 2895, 2891, 2921, 2915, 2965, 2945, 2946, 2912, 2892, 2908, 2985, 3016, 2921, 2928, 2982, 2906, 2879, 2868, 2978, 2943, 2920, 2903, 2947, 2969, 2984, 2983, 2965, 2953, 2974, 2947, 2921, 2929, 2987, 3026, 3004, 2973, 2979, 2967, 2904, 2910, 2887, 2925, 2926, 2910, 2907, 2892, 2906, 2898, 2909, 2927, 2977, 2954, 2958, 2951, 2918, 2929, 2910, 2939, 2948, 2961, 2930, 2888, 2925, 2954, 2945, 2953, 2953, 2912, 2915, 2914, 2949, 2937, 2951, 2969, 2918, 2876, 2885, 2933, 2936, 2888, 2883, 2941, 2908, 2936, 2929, 2952, 2927, 2918, 2935, 2939, 2944, 2950, 3006, 2948, 2940, 2935, 2940, 2893, 2928, 2928, 2956, 2937, 2901, 2899, 2897, 2899, 2900, 2938, 2944, 2963, 2960, 2909, 2903, 2925, 2904],
      "WindowCenter": [743.0, 742.0, 742.0, 742.0, 744.0, 745.0, 743.0, 742.0, 742.0, 742.0, 743.0, 742.0, 742.0, 742.0, 742.0, 741.0, 741.0, 741.0, 743.0, 743.0, 742.0, 740.0, 741.0, 742.0, 743.0, 742.0, 742.0, 741.0, 742.0, 742.0, 742.0, 742.0, 744.0, 744.0, 744.0, 743.0, 742.0, 742.0, 742.0, 742.0, 742.0, 741.0, 741.0, 742.0, 743.0, 743.0, 743.0, 742.0, 742.0, 741.0, 742.0, 743.0, 745.0, 743.0, 742.0, 742.0, 742.0, 741.0, 742.0, 744.0, 743.0, 742.0, 741.0, 743.0, 745.0, 744.0, 743.0, 742.0, 744.0, 744.0, 743.0, 742.0, 742.0, 743.0, 744.0, 743.0, 744.0, 743.0, 742.0, 741.0, 743.0, 742.0, 742.0, 742.0, 742.0, 741.0, 741.0, 740.0, 741.0, 740.0, 740.0, 742.0, 744.0, 743.0, 743.0, 742.0, 742.0, 742.0, 742.0, 743.0, 744.0, 742.0, 741.0, 741.0, 743.0, 742.0, 742.0, 742.0, 742.0, 740.0, 740.0, 740.0, 742.0, 743.0, 742.0, 741.0, 740.0, 740.0, 743.0, 743.0, 741.0, 742.0, 743.0, 742.0, 742.0, 742.0, 743.0, 743.0, 743.0, 743.0, 743.0, 742.0, 744.0, 745.0, 744.0, 743.0, 743.0, 741.0, 740.0, 741.0, 743.0, 744.0, 743.0, 742.0, 741.0, 741.0, 741.0, 742.0, 743.0, 743.0, 742.0, 743.0, 743.0, 742.0, 742.0, 742.0],
      "WindowWidth": [1606.0, 1605.0, 1604.0, 1604.0, 1610.0, 1612.0, 1607.0, 1605.0, 1605.0, 1606.0, 1607.0, 1605.0, 1606.0, 1604.0, 1604.0, 1603.0, 1602.0, 1603.0, 1608.0, 1606.0, 1604.0, 1599.0, 1603.0, 1604.0, 1606.0, 1606.0, 1604.0, 1601.0, 1604.0, 1605.0, 1604.0, 1604.0, 1609.0, 1609.0, 1610.0, 1607.0, 1605.0, 1605.0, 1605.0, 1604.0, 1604.0, 1601.0, 1602.0, 1604.0, 1607.0, 1606.0, 1606.0, 1605.0, 1605.0, 1602.0, 1606.0, 1609.0, 1612.0, 1607.0, 1604.0, 1605.0, 1604.0, 1602.0, 1606.0, 1609.0, 1607.0, 1603.0, 1602.0, 1607.0, 1612.0, 1610.0, 1607.0, 1605.0, 1609.0, 1609.0, 1606.0, 1604.0, 1605.0, 1608.0, 1608.0, 1607.0, 1609.0, 1606.0, 1603.0, 1602.0, 1607.0, 1606.0, 1605.0, 1603.0, 1606.0, 1603.0, 1602.0, 1600.0, 1600.0, 1599.0, 1600.0, 1606.0, 1609.0, 1608.0, 1606.0, 1603.0, 1604.0, 1603.0, 1605.0, 1606.0, 1609.0, 1604.0, 1600.0, 1601.0, 1606.0, 1605.0, 1605.0, 1604.0, 1603.0, 1599.0, 1599.0, 1599.0, 1603.0, 1607.0, 1603.0, 1601.0, 1599.0, 1598.0, 1606.0, 1605.0, 1603.0, 1603.0, 1606.0, 1604.0, 1604.0, 1604.0, 1606.0, 1606.0, 1607.0, 1606.0, 1606.0, 1604.0, 1608.0, 1612.0, 1609.0, 1607.0, 1606.0, 1602.0, 1599.0, 1602.0, 1607.0, 1609.0, 1607.0, 1603.0, 1602.0, 1601.0, 1602.0, 1604.0, 1607.0, 1606.0, 1605.0, 1606.0, 1607.0, 1605.0, 1605.0, 1604.0]
    },
    "slices": {}
  }
}