{
  "AcquisitionMatrixPE": 100,
  "AcquisitionNumber": 1,
  "AcquisitionTime": "14:46:32.207500",
  "BandwidthPerPixelPhaseEncode": 18.519,
  "BaseResolution": 100,
  "BodyPartExamined": "BRAIN",
  "CoilCombinationMethod": "Sum of Squares",
  "ConsistencyInfo": "N4_VE11C_LATEST_20160120",
  "ConversionSoftware": "dcm2niix",
  "ConversionSoftwareVersion": "v1.0.20211006",
  "DerivedVendorReportedEchoSpacing": 0.000539986,
  "DeviceSerialNumber": "166078",
  "DwellTime": 2.1e-06,
  "EchoTime": 0.034,
  "EchoTrainLength": 100,
  "EffectiveEchoSpacing": 0.000539986,
  "FlipAngle": 90,
  "ImageOrientationPatientDICOM": [1, 0, 0, 0, 0.983885, -0.178802],
  "ImageOrientationText": "Tra>Cor(-10.3)",
  "ImageType": [
    "ORIGINAL",
    "PRIMARY",
    "M",
    "ND",
    "MOSAIC"
],
  "ImagingFrequency": 123.258,
  "InPlanePhaseEncodingDirectionDICOM": "COL",
  "InstitutionAddress": "Street StreetNo,Bei Jing,District,CN,ZIP",
  "InstitutionName": "BeiJing Normal University",
  "InstitutionalDepartmentName": "Department",
  "MRAcquisitionType": "2D",
  "MagneticFieldStrength": 3,
  "Manufacturer": "Siemens",
  "ManufacturersModelName": "Prisma",
  "Modality": "MR",
  "MultibandAccelerationFactor": 3,
  "PartialFourier": 1,
  "PatientPosition": "HFS",
  "PercentPhaseFOV": 100,
  "PercentSampling": 100,
  "PhaseEncodingDirection": "j-",
  "PhaseEncodingSteps": 100,
  "PhaseResolution": 1,
  "PixelBandwidth": 2380,
  "ProcedureStepDescription": "BNU_P2018_64CH^Zhen.ZongLei",
  "ProtocolName": "bold_100x100_s3_2x2x2_static_156",
  "PulseSequenceDetails": "%SiemensSeq%\\ep2d_bold",
  "ReceiveCoilActiveElements": "HC1-7;NC1",
  "ReceiveCoilName": "HeadNeck_64",
  "ReconMatrixPE": 100,
  "RefLinesPE": 32,
  "RepetitionTime": 2,
  "SAR": 0.0722742,
  "ScanOptions": "FS",
  "ScanningSequence": "EP",
  "SequenceName": "*epfid2d1_100",
  "SequenceVariant": "SK",
  "SeriesDescription": "bold_100x100_s3_2x2x2_static_156",
  "SeriesNumber": 7,
  "ShimSetting": [-5451, -11517, -1255, 409, 30, -306, -194, 26],
  "SliceThickness": 2,
  "SliceTiming": [1.4825, 0, 0.9875, 0.08, 1.07, 0.1625, 1.1525, 0.245, 1.235, 0.3275, 1.3175, 0.41, 1.4, 0.575, 1.565, 0.6575, 1.6475, 0.74, 1.73, 0.8225, 1.8125, 0.905, 1.895, 0.4925, 1.4825, 0, 0.9875, 0.08, 1.07, 0.1625, 1.1525, 0.245, 1.235, 0.3275, 1.3175, 0.41, 1.4, 0.575, 1.565, 0.6575, 1.6475, 0.74, 1.73, 0.8225, 1.8125, 0.905, 1.895, 0.4925, 1.4825, 0, 0.9875, 0.08, 1.07, 0.1625, 1.1525, 0.245, 1.235, 0.3275, 1.3175, 0.41, 1.4, 0.575, 1.565, 0.6575, 1.6475, 0.74, 1.73, 0.8225, 1.8125, 0.905, 1.895, 0.4925],
  "SoftwareVersions": "syngo MR E11",
  "SpacingBetweenSlices": 2,
  "StationName": "AWP166078",
  "TaskName": "action",
  "TotalReadoutTime": 0.0534586,
  "TxRefAmp": 207.948,
  "dcmmeta_affine": [
    [-2.0, 0.0, 0.0, 101.3559341430664],
    [0.0, 1.9677700996398926, -0.357604444026947, -80.33110046386719],
    [0.0, 0.357604444026947, 1.9677700996398926, -76.04673767089844],
    [0.0, 0.0, 0.0, 1.0]
],
  "dcmmeta_reorient_transform": [
    [0.0, -1.0, 0.0, 99.0],
    [1.0, 0.0, 0.0, 0.0],
    [0.0, 0.0, 1.0, 0.0],
    [0.0, 0.0, 0.0, 1.0]
],
  "dcmmeta_shape": [100, 100, 72, 156],
  "dcmmeta_slice_dim": 2,
  "dcmmeta_version": 0.6,
  "global": {
    "const": {
      "AcquisitionMatrix": [100, 0, 0, 100],
      "AngioFlag": "N",
      "BitsAllocated": 16,
      "BitsStored": 12,
      "BodyPartExamined": "BRAIN",
      "Columns": 900,
      "EchoNumbers": 1,
      "EchoTime": 34.0,
      "EchoTrainLength": 100,
      "FlipAngle": 90.0,
      "HighBit": 11,
      "ImageOrientationPatient": [1.0, 0.0, 0.0, 0.0, 0.98388503666185, -0.178802222114],
      "ImagePositionPatient": [-901.35593223572, -901.58616312262, 102.39787957182],
      "ImageType": [
        "ORIGINAL",
        "PRIMARY",
        "M",
        "ND",
        "MOSAIC"
],
      "ImagedNucleus": "1H",
      "ImagingFrequency": 123.257746,
      "InPlanePhaseEncodingDirection": "COL",
      "MRAcquisitionType": "2D",
      "MagneticFieldStrength": 3.0,
      "Manufacturer": "SIEMENS",
      "ManufacturerModelName": "Prisma",
      "Modality": "MR",
      "NumberOfAverages": 1.0,
      "NumberOfPhaseEncodingSteps": 100,
      "PercentPhaseFieldOfView": 100.0,
      "PercentSampling": 100.0,
      "PerformedProcedureStepStartTime": "141859.498000",
      "PhotometricInterpretation": "MONOCHROME2",
      "PixelBandwidth": 2380.0,
      "PixelRepresentation": 0,
      "PixelSpacing": [2.0, 2.0],
      "ProtocolName": "bold_100x100_s3_2x2x2_static_156",
      "RepetitionTime": 2000.0,
      "Rows": 900,
      "SAR": 0.07227419260634,
      "SamplesPerPixel": 1,
      "ScanOptions": "FS",
      "ScanningSequence": "EP",
      "SequenceName": "*epfid2d1_100",
      "SequenceVariant": "SK",
      "SeriesDescription": "bold_100x100_s3_2x2x2_static_156",
      "SeriesNumber": 7,
      "SeriesTime": "144634.959000",
      "SliceLocation": -60.457867896974,
      "SliceThickness": 2.0,
      "SmallestImagePixelValue": 0,
      "SoftwareVersions": "syngo MR E11",
      "SpacingBetweenSlices": 1.9999999770499,
      "SpecificCharacterSet": "ISO_IR 100",
      "StudyID": "1",
      "StudyTime": "141859.413000",
      "TransmitCoilName": "Body",
      "VariableFlipAngleFlag": "N",
      "WindowCenterWidthExplanation": "Algo1",
      "dBdt": 0.0},
    "slices": {}
  },
  "time": {
    "samples": {
      "AcquisitionNumber": [1, 2, 3, 4, 5, 6, 7, 8, 9, 10, 11, 12, 13, 14, 15, 16, 17, 18, 19, 20, 21, 22, 23, 24, 25, 26, 27, 28, 29, 30, 31, 32, 33, 34, 35, 36, 37, 38, 39, 40, 41, 42, 43, 44, 45, 46, 47, 48, 49, 50, 51, 52, 53, 54, 55, 56, 57, 58, 59, 60, 61, 62, 63, 64, 65, 66, 67, 68, 69, 70, 71, 72, 73, 74, 75, 76, 77, 78, 79, 80, 81, 82, 83, 84, 85, 86, 87, 88, 89, 90, 91, 92, 93, 94, 95, 96, 97, 98, 99, 100, 101, 102, 103, 104, 105, 106, 107, 108, 109, 110, 111, 112, 113, 114, 115, 116, 117, 118, 119, 120, 121, 122, 123, 124, 125, 126, 127, 128, 129, 130, 131, 132, 133, 134, 135, 136, 137, 138, 139, 140, 141, 142, 143, 144, 145, 146, 147, 148, 149, 150, 151, 152, 153, 154, 155, 156],
      "AcquisitionTime": ["144632.207500", "144634.207500", "144636.207500", "144638.207500", "144640.207500", "144642.207500", "144644.207500", "144646.207500", "144648.207500", "144650.207500", "144652.207500", "144654.207500", "144656.207500", "144658.207500", "144700.207500", "144702.207500", "144704.207500", "144706.207500", "144708.207500", "144710.207500", "144712.207500", "144714.207500", "144716.207500", "144718.207500", "144720.207500", "144722.207500", "144724.207500", "144726.207500", "144728.207500", "144730.207500", "144732.207500", "144734.207500", "144736.207500", "144738.207500", "144740.207500", "144742.207500", "144744.207500", "144746.207500", "144748.207500", "144750.207500", "144752.207500", "144754.207500", "144756.207500", "144758.207500", "144800.207500", "144802.207500", "144804.207500", "144806.207500", "144808.207500", "144810.207500", "144812.207500", "144814.207500", "144816.207500", "144818.207500", "144820.207500", "144822.207500", "144824.207500", "144826.207500", "144828.207500", "144830.207500", "144832.207500", "144834.207500", "144836.207500", "144838.207500", "144840.207500", "144842.207500", "144844.207500", "144846.207500", "144848.207500", "144850.207500", "144852.207500", "144854.207500", "144856.207500", "144858.207500", "144900.207500", "144902.207500", "144904.207500", "144906.207500", "144908.207500", "144910.207500", "144912.207500", "144914.207500", "144916.207500", "144918.207500", "144920.207500", "144922.207500", "144924.207500", "144926.207500", "144928.207500", "144930.207500", "144932.207500", "144934.207500", "144936.207500", "144938.207500", "144940.207500", "144942.207500", "144944.207500", "144946.207500", "144948.207500", "144950.207500", "144952.207500", "144954.207500", "144956.207500", "144958.207500", "145000.207500", "145002.207500", "145004.207500", "145006.207500", "145008.207500", "145010.207500", "145012.207500", "145014.207500", "145016.207500", "145018.207500", "145020.207500", "145022.207500", "145024.207500", "145026.207500", "145028.207500", "145030.207500", "145032.207500", "145034.207500", "145036.207500", "145038.207500", "145040.207500", "145042.207500", "145044.207500", "145046.207500", "145048.207500", "145050.207500", "145052.207500", "145054.207500", "145056.207500", "145058.207500", "145100.207500", "145102.207500", "145104.207500", "145106.207500", "145108.207500", "145110.207500", "145112.207500", "145114.207500", "145116.207500", "145118.207500", "145120.207500", "145122.207500", "145124.207500", "145126.207500", "145128.207500", "145130.207500", "145132.207500", "145134.207500", "145136.207500", "145138.207500", "145140.207500", "145142.207500"],
      "ContentTime": ["144634.962000", "144636.457000", "144638.458000", "144640.458000", "144642.458000", "144644.458000", "144646.458000", "144648.457000", "144650.457000", "144652.457000", "144654.457000", "144656.457000", "144658.459000", "144700.458000", "144702.458000", "144704.459000", "144706.457000", "144708.457000", "144710.457000", "144712.457000", "144714.457000", "144716.458000", "144718.458000", "144720.458000", "144722.457000", "144724.457000", "144726.458000", "144728.458000", "144730.458000", "144732.459000", "144734.458000", "144736.459000", "144738.459000", "144740.457000", "144742.457000", "144744.458000", "144746.457000", "144748.457000", "144750.459000", "144752.459000", "144754.459000", "144756.458000", "144758.458000", "144800.458000", "144802.457000", "144804.458000", "144806.457000", "144808.458000", "144810.458000", "144812.458000", "144814.458000", "144816.458000", "144818.457000", "144820.458000", "144822.458000", "144824.458000", "144826.458000", "144828.459000", "144830.458000", "144832.457000", "144834.457000", "144836.458000", "144838.457000", "144840.458000", "144842.459000", "144844.458000", "144846.459000", "144848.458000", "144850.457000", "144852.458000", "144854.457000", "144856.457000", "144858.458000", "144900.459000", "144902.459000", "144904.459000", "144906.459000", "144908.457000", "144910.457000", "144912.458000", "144914.458000", "144916.458000", "144918.459000", "144920.458000", "144922.459000", "144924.459000", "144926.457000", "144928.458000", "144930.457000", "144932.457000", "144934.457000", "144936.458000", "144938.459000", "144940.459000", "144942.458000", "144944.458000", "144946.457000", "144948.458000", "144950.457000", "144952.458000", "144954.458000", "144956.458000", "144958.458000", "145000.457000", "145002.457000", "145004.457000", "145006.457000", "145008.458000", "145010.459000", "145012.458000", "145014.459000", "145016.459000", "145018.457000", "145020.457000", "145022.458000", "145024.458000", "145026.458000", "145028.459000", "145030.459000", "145032.459000", "145034.459000", "145036.458000", "145038.458000", "145040.458000", "145042.457000", "145044.458000", "145046.459000", "145048.459000", "145050.459000", "145052.458000", "145054.458000", "145056.458000", "145058.457000", "145100.458000", "145102.459000", "145104.459000", "145106.458000", "145108.459000", "145110.458000", "145112.457000", "145114.457000", "145116.458000", "145118.458000", "145120.458000", "145122.459000", "145124.459000", "145126.458000", "145128.457000", "145130.457000", "145132.457000", "145134.458000", "145136.458000", "145138.459000", "145140.459000", "145142.471000", "145144.160000"],
      "InstanceCreationTime": ["144634.962000", "144636.457000", "144638.458000", "144640.458000", "144642.458000", "144644.458000", "144646.458000", "144648.457000", "144650.457000", "144652.457000", "144654.457000", "144656.457000", "144658.459000", "144700.458000", "144702.458000", "144704.459000", "144706.457000", "144708.457000", "144710.457000", "144712.457000", "144714.457000", "144716.458000", "144718.458000", "144720.458000", "144722.457000", "144724.457000", "144726.458000", "144728.458000", "144730.458000", "144732.459000", "144734.458000", "144736.459000", "144738.459000", "144740.457000", "144742.457000", "144744.458000", "144746.457000", "144748.457000", "144750.459000", "144752.459000", "144754.459000", "144756.458000", "144758.458000", "144800.458000", "144802.457000", "144804.458000", "144806.457000", "144808.458000", "144810.458000", "144812.458000", "144814.458000", "144816.458000", "144818.457000", "144820.458000", "144822.458000", "144824.458000", "144826.458000", "144828.459000", "144830.458000", "144832.457000", "144834.457000", "144836.458000", "144838.457000", "144840.458000", "144842.459000", "144844.458000", "144846.459000", "144848.458000", "144850.457000", "144852.458000", "144854.457000", "144856.457000", "144858.458000", "144900.459000", "144902.459000", "144904.459000", "144906.459000", "144908.457000", "144910.457000", "144912.458000", "144914.458000", "144916.458000", "144918.459000", "144920.458000", "144922.459000", "144924.459000", "144926.457000", "144928.458000", "144930.457000", "144932.457000", "144934.457000", "144936.458000", "144938.459000", "144940.459000", "144942.458000", "144944.458000", "144946.457000", "144948.458000", "144950.457000", "144952.458000", "144954.458000", "144956.458000", "144958.458000", "145000.457000", "145002.457000", "145004.457000", "145006.457000", "145008.458000", "145010.459000", "145012.458000", "145014.459000", "145016.459000", "145018.457000", "145020.457000", "145022.458000", "145024.458000", "145026.458000", "145028.459000", "145030.459000", "145032.459000", "145034.459000", "145036.458000", "145038.458000", "145040.458000", "145042.457000", "145044.458000", "145046.459000", "145048.459000", "145050.459000", "145052.458000", "145054.458000", "145056.458000", "145058.457000", "145100.458000", "145102.459000", "145104.459000", "145106.458000", "145108.459000", "145110.458000", "145112.457000", "145114.457000", "145116.458000", "145118.458000", "145120.458000", "145122.459000", "145124.459000", "145126.458000", "145128.457000", "145130.457000", "145132.457000", "145134.458000", "145136.458000", "145138.459000", "145140.459000", "145142.471000", "145144.160000"],
      "InstanceNumber": [1, 2, 3, 4, 5, 6, 7, 8, 9, 10, 11, 12, 13, 14, 15, 16, 17, 18, 19, 20, 21, 22, 23, 24, 25, 26, 27, 28, 29, 30, 31, 32, 33, 34, 35, 36, 37, 38, 39, 40, 41, 42, 43, 44, 45, 46, 47, 48, 49, 50, 51, 52, 53, 54, 55, 56, 57, 58, 59, 60, 61, 62, 63, 64, 65, 66, 67, 68, 69, 70, 71, 72, 73, 74, 75, 76, 77, 78, 79, 80, 81, 82, 83, 84, 85, 86, 87, 88, 89, 90, 91, 92, 93, 94, 95, 96, 97, 98, 99, 100, 101, 102, 103, 104, 105, 106, 107, 108, 109, 110, 111, 112, 113, 114, 115, 116, 117, 118, 119, 120, 121, 122, 123, 124, 125, 126, 127, 128, 129, 130, 131, 132, 133, 134, 135, 136, 137, 138, 139, 140, 141, 142, 143, 144, 145, 146, 147, 148, 149, 150, 151, 152, 153, 154, 155, 156],
      "LargestImagePixelValue": [3009, 3002, 3018, 3048, 3018, 3014, 3025, 3029, 3013, 3017, 2980, 3006, 3001, 3004, 3009, 2991, 2979, 3022, 3010, 2971, 2989, 3003, 2980, 2939, 3017, 2965, 2951, 2978, 2962, 2971, 3033, 2973, 2976, 2991, 2995, 3009, 2999, 3019, 3012, 2957, 3017, 2992, 3004, 2932, 2903, 2912, 2943, 2990, 3002, 2971, 2958, 2967, 2995, 2973, 3032, 2987, 2943, 2981, 3002, 2988, 2963, 2979, 2957, 2994, 2986, 3003, 3008, 3011, 2999, 3023, 3024, 3018, 3009, 3019, 2991, 2936, 2916, 2964, 2980, 2981, 2922, 2961, 2925, 2948, 2924, 2948, 2996, 3035, 2983, 2921, 2988, 2933, 2936, 2938, 2971, 2939, 2939, 3012, 3003, 2985, 2987, 3007, 2974, 3003, 2923, 2962, 2950, 2928, 2974, 2992, 2960, 2991, 2996, 2972, 2917, 2933, 2903, 2926, 2975, 2981, 2917, 2899, 2925, 2917, 2915, 2928, 2953, 2920, 2926, 2960, 2960, 3006, 2964, 2898, 2907, 2995, 2925, 2907, 2934, 2967, 2943, 2877, 2886, 2904, 2922, 2959, 2930, 2911, 2923, 2942, 2958, 2912, 2964, 2955, 2992, 2996],
      "WindowCenter": [743.0, 742.0, 743.0, 742.0, 742.0, 741.0, 742.0, 742.0, 743.0, 743.0, 743.0, 743.0, 743.0, 742.0, 742.0, 743.0, 744.0, 743.0, 742.0, 741.0, 742.0, 743.0, 742.0, 741.0, 742.0, 741.0, 742.0, 741.0, 741.0, 741.0, 741.0, 741.0, 742.0, 743.0, 743.0, 742.0, 743.0, 743.0, 744.0, 744.0, 745.0, 743.0, 740.0, 739.0, 739.0, 739.0, 740.0, 741.0, 743.0, 742.0, 742.0, 742.0, 744.0, 742.0, 742.0, 741.0, 741.0, 742.0, 744.0, 743.0, 742.0, 742.0, 742.0, 744.0, 744.0, 743.0, 743.0, 742.0, 743.0, 744.0, 744.0, 745.0, 745.0, 744.0, 742.0, 741.0, 741.0, 741.0, 741.0, 742.0, 742.0, 741.0, 742.0, 741.0, 741.0, 741.0, 742.0, 742.0, 742.0, 741.0, 741.0, 741.0, 742.0, 742.0, 743.0, 742.0, 743.0, 744.0, 743.0, 743.0, 744.0, 744.0, 743.0, 743.0, 742.0, 742.0, 743.0, 742.0, 743.0, 743.0, 743.0, 742.0, 743.0, 742.0, 741.0, 741.0, 742.0, 742.0, 743.0, 743.0, 741.0, 741.0, 741.0, 741.0, 742.0, 742.0, 741.0, 740.0, 741.0, 742.0, 743.0, 744.0, 743.0, 742.0, 742.0, 744.0, 744.0, 742.0, 742.0, 742.0, 742.0, 741.0, 741.0, 742.0, 742.0, 743.0, 744.0, 744.0, 744.0, 744.0, 744.0, 743.0, 744.0, 744.0, 744.0, 744.0],
      "WindowWidth": [1608.0, 1605.0, 1607.0, 1605.0, 1604.0, 1603.0, 1604.0, 1606.0, 1609.0, 1608.0, 1608.0, 1608.0, 1607.0, 1605.0, 1605.0, 1607.0, 1609.0, 1607.0, 1604.0, 1603.0, 1605.0, 1606.0, 1605.0, 1603.0, 1604.0, 1603.0, 1604.0, 1602.0, 1602.0, 1603.0, 1602.0, 1603.0, 1606.0, 1607.0, 1608.0, 1606.0, 1607.0, 1609.0, 1610.0, 1609.0, 1612.0, 1607.0, 1600.0, 1595.0, 1597.0, 1597.0, 1600.0, 1603.0, 1606.0, 1605.0, 1604.0, 1606.0, 1609.0, 1605.0, 1604.0, 1603.0, 1603.0, 1604.0, 1609.0, 1608.0, 1604.0, 1603.0, 1606.0, 1610.0, 1610.0, 1607.0, 1606.0, 1604.0, 1606.0, 1609.0, 1609.0, 1613.0, 1614.0, 1609.0, 1605.0, 1601.0, 1603.0, 1602.0, 1603.0, 1605.0, 1604.0, 1602.0, 1604.0, 1603.0, 1601.0, 1601.0, 1605.0, 1605.0, 1603.0, 1601.0, 1603.0, 1602.0, 1604.0, 1606.0, 1607.0, 1606.0, 1608.0, 1609.0, 1609.0, 1608.0, 1610.0, 1609.0, 1607.0, 1606.0, 1606.0, 1604.0, 1606.0, 1606.0, 1609.0, 1608.0, 1606.0, 1606.0, 1608.0, 1606.0, 1603.0, 1602.0, 1604.0, 1605.0, 1608.0, 1606.0, 1603.0, 1602.0, 1603.0, 1603.0, 1606.0, 1603.0, 1602.0, 1600.0, 1603.0, 1605.0, 1606.0, 1611.0, 1609.0, 1603.0, 1606.0, 1611.0, 1610.0, 1606.0, 1604.0, 1605.0, 1605.0, 1601.0, 1603.0, 1604.0, 1606.0, 1608.0, 1611.0, 1609.0, 1610.0, 1609.0, 1609.0, 1607.0, 1610.0, 1609.0, 1609.0, 1609.0]
    },
    "slices": {}
  }
}