{
  "AcquisitionMatrixPE": 100,
  "AcquisitionNumber": 1,
  "AcquisitionTime": "15:01:46.300000",
  "BandwidthPerPixelPhaseEncode": 18.519,
  "BaseResolution": 100,
  "BodyPartExamined": "BRAIN",
  "CoilCombinationMethod": "Sum of Squares",
  "ConsistencyInfo": "N4_VE11C_LATEST_20160120",
  "ConversionSoftware": "dcm2niix",
  "ConversionSoftwareVersion": "v1.0.20211006",
  "DerivedVendorReportedEchoSpacing": 0.000539986,
  "DeviceSerialNumber": "166078",
  "DwellTime": 2.1e-06,
  "EchoTime": 0.034,
  "EchoTrainLength": 100,
  "EffectiveEchoSpacing": 0.000539986,
  "FlipAngle": 90,
  "ImageOrientationPatientDICOM": [1, 0, 0, 0, 0.983885, -0.178802],
  "ImageOrientationText": "Tra>Cor(-10.3)",
  "ImageType": [
    "ORIGINAL",
    "PRIMARY",
    "M",
    "ND",
    "MOSAIC"
],
  "ImagingFrequency": 123.258,
  "InPlanePhaseEncodingDirectionDICOM": "COL",
  "InstitutionAddress": "Street StreetNo,Bei Jing,District,CN,ZIP",
  "InstitutionName": "BeiJing Normal University",
  "InstitutionalDepartmentName": "Department",
  "MRAcquisitionType": "2D",
  "MagneticFieldStrength": 3,
  "Manufacturer": "Siemens",
  "ManufacturersModelName": "Prisma",
  "Modality": "MR",
  "MultibandAccelerationFactor": 3,
  "PartialFourier": 1,
  "PatientPosition": "HFS",
  "PercentPhaseFOV": 100,
  "PercentSampling": 100,
  "PhaseEncodingDirection": "j-",
  "PhaseEncodingSteps": 100,
  "PhaseResolution": 1,
  "PixelBandwidth": 2380,
  "ProcedureStepDescription": "BNU_P2018_64CH^Zhen.ZongLei",
  "ProtocolName": "bold_100x100_s3_2x2x2_static_156",
  "PulseSequenceDetails": "%SiemensSeq%\\ep2d_bold",
  "ReceiveCoilActiveElements": "HC1-7;NC1",
  "ReceiveCoilName": "HeadNeck_64",
  "ReconMatrixPE": 100,
  "RefLinesPE": 32,
  "RepetitionTime": 2,
  "SAR": 0.0722742,
  "ScanOptions": "FS",
  "ScanningSequence": "EP",
  "SequenceName": "*epfid2d1_100",
  "SequenceVariant": "SK",
  "SeriesDescription": "bold_100x100_s3_2x2x2_static_156",
  "SeriesNumber": 11,
  "ShimSetting": [-5451, -11517, -1255, 409, 30, -306, -194, 26],
  "SliceThickness": 2,
  "SliceTiming": [1.485, 0, 0.99, 0.0825, 1.0725, 0.165, 1.155, 0.2475, 1.2375, 0.33, 1.32, 0.4125, 1.4025, 0.5775, 1.5675, 0.66, 1.65, 0.7425, 1.73, 0.825, 1.8125, 0.9075, 1.895, 0.495, 1.485, 0, 0.99, 0.0825, 1.0725, 0.165, 1.155, 0.2475, 1.2375, 0.33, 1.32, 0.4125, 1.4025, 0.5775, 1.5675, 0.66, 1.65, 0.7425, 1.73, 0.825, 1.8125, 0.9075, 1.895, 0.495, 1.485, 0, 0.99, 0.0825, 1.0725, 0.165, 1.155, 0.2475, 1.2375, 0.33, 1.32, 0.4125, 1.4025, 0.5775, 1.5675, 0.66, 1.65, 0.7425, 1.73, 0.825, 1.8125, 0.9075, 1.895, 0.495],
  "SoftwareVersions": "syngo MR E11",
  "SpacingBetweenSlices": 2,
  "StationName": "AWP166078",
  "TaskName": "action",
  "TotalReadoutTime": 0.0534586,
  "TxRefAmp": 207.948,
  "dcmmeta_affine": [
    [-2.0, 0.0, 0.0, 101.3559341430664],
    [0.0, 1.9677700996398926, -0.357604444026947, -80.33110046386719],
    [0.0, 0.357604444026947, 1.9677700996398926, -76.04673767089844],
    [0.0, 0.0, 0.0, 1.0]
],
  "dcmmeta_reorient_transform": [
    [0.0, -1.0, 0.0, 99.0],
    [1.0, 0.0, 0.0, 0.0],
    [0.0, 0.0, 1.0, 0.0],
    [0.0, 0.0, 0.0, 1.0]
],
  "dcmmeta_shape": [100, 100, 72, 156],
  "dcmmeta_slice_dim": 2,
  "dcmmeta_version": 0.6,
  "global": {
    "const": {
      "AcquisitionMatrix": [100, 0, 0, 100],
      "AngioFlag": "N",
      "BitsAllocated": 16,
      "BitsStored": 12,
      "BodyPartExamined": "BRAIN",
      "Columns": 900,
      "EchoNumbers": 1,
      "EchoTime": 34.0,
      "EchoTrainLength": 100,
      "FlipAngle": 90.0,
      "HighBit": 11,
      "ImageOrientationPatient": [1.0, 0.0, 0.0, 0.0, 0.98388503666185, -0.178802222114],
      "ImagePositionPatient": [-901.35593223572, -901.58616312262, 102.39787957182],
      "ImageType": [
        "ORIGINAL",
        "PRIMARY",
        "M",
        "ND",
        "MOSAIC"
],
      "ImagedNucleus": "1H",
      "ImagingFrequency": 123.25774,
      "InPlanePhaseEncodingDirection": "COL",
      "MRAcquisitionType": "2D",
      "MagneticFieldStrength": 3.0,
      "Manufacturer": "SIEMENS",
      "ManufacturerModelName": "Prisma",
      "Modality": "MR",
      "NumberOfAverages": 1.0,
      "NumberOfPhaseEncodingSteps": 100,
      "PercentPhaseFieldOfView": 100.0,
      "PercentSampling": 100.0,
      "PerformedProcedureStepStartTime": "141859.498000",
      "PhotometricInterpretation": "MONOCHROME2",
      "PixelBandwidth": 2380.0,
      "PixelRepresentation": 0,
      "PixelSpacing": [2.0, 2.0],
      "ProtocolName": "bold_100x100_s3_2x2x2_static_156",
      "RepetitionTime": 2000.0,
      "Rows": 900,
      "SAR": 0.07227419260634,
      "SamplesPerPixel": 1,
      "ScanOptions": "FS",
      "ScanningSequence": "EP",
      "SequenceName": "*epfid2d1_100",
      "SequenceVariant": "SK",
      "SeriesDescription": "bold_100x100_s3_2x2x2_static_156",
      "SeriesNumber": 11,
      "SeriesTime": "150148.714000",
      "SliceLocation": -60.457867896974,
      "SliceThickness": 2.0,
      "SmallestImagePixelValue": 0,
      "SoftwareVersions": "syngo MR E11",
      "SpacingBetweenSlices": 1.9999999770499,
      "SpecificCharacterSet": "ISO_IR 100",
      "StudyID": "1",
      "StudyTime": "141859.413000",
      "TransmitCoilName": "Body",
      "VariableFlipAngleFlag": "N",
      "WindowCenterWidthExplanation": "Algo1",
      "dBdt": 0.0},
    "slices": {}
  },
  "time": {
    "samples": {
      "AcquisitionNumber": [1, 2, 3, 4, 5, 6, 7, 8, 9, 10, 11, 12, 13, 14, 15, 16, 17, 18, 19, 20, 21, 22, 23, 24, 25, 26, 27, 28, 29, 30, 31, 32, 33, 34, 35, 36, 37, 38, 39, 40, 41, 42, 43, 44, 45, 46, 47, 48, 49, 50, 51, 52, 53, 54, 55, 56, 57, 58, 59, 60, 61, 62, 63, 64, 65, 66, 67, 68, 69, 70, 71, 72, 73, 74, 75, 76, 77, 78, 79, 80, 81, 82, 83, 84, 85, 86, 87, 88, 89, 90, 91, 92, 93, 94, 95, 96, 97, 98, 99, 100, 101, 102, 103, 104, 105, 106, 107, 108, 109, 110, 111, 112, 113, 114, 115, 116, 117, 118, 119, 120, 121, 122, 123, 124, 125, 126, 127, 128, 129, 130, 131, 132, 133, 134, 135, 136, 137, 138, 139, 140, 141, 142, 143, 144, 145, 146, 147, 148, 149, 150, 151, 152, 153, 154, 155, 156],
      "AcquisitionTime": ["150146.300000", "150148.300000", "150150.300000", "150152.300000", "150154.300000", "150156.300000", "150158.300000", "150200.300000", "150202.300000", "150204.300000", "150206.300000", "150208.300000", "150210.300000", "150212.300000", "150214.300000", "150216.300000", "150218.300000", "150220.300000", "150222.300000", "150224.300000", "150226.300000", "150228.300000", "150230.300000", "150232.300000", "150234.300000", "150236.300000", "150238.300000", "150240.300000", "150242.300000", "150244.300000", "150246.300000", "150248.300000", "150250.300000", "150252.300000", "150254.300000", "150256.300000", "150258.300000", "150300.300000", "150302.300000", "150304.300000", "150306.300000", "150308.300000", "150310.300000", "150312.300000", "150314.300000", "150316.300000", "150318.300000", "150320.300000", "150322.300000", "150324.300000", "150326.300000", "150328.300000", "150330.300000", "150332.300000", "150334.300000", "150336.300000", "150338.300000", "150340.300000", "150342.300000", "150344.300000", "150346.300000", "150348.300000", "150350.300000", "150352.300000", "150354.300000", "150356.300000", "150358.300000", "150400.300000", "150402.300000", "150404.300000", "150406.300000", "150408.300000", "150410.300000", "150412.300000", "150414.300000", "150416.300000", "150418.300000", "150420.300000", "150422.300000", "150424.300000", "150426.300000", "150428.300000", "150430.300000", "150432.300000", "150434.300000", "150436.300000", "150438.300000", "150440.300000", "150442.300000", "150444.300000", "150446.300000", "150448.300000", "150450.300000", "150452.300000", "150454.300000", "150456.300000", "150458.300000", "150500.300000", "150502.300000", "150504.300000", "150506.300000", "150508.300000", "150510.300000", "150512.300000", "150514.300000", "150516.300000", "150518.300000", "150520.300000", "150522.300000", "150524.300000", "150526.300000", "150528.300000", "150530.300000", "150532.300000", "150534.300000", "150536.300000", "150538.300000", "150540.300000", "150542.300000", "150544.300000", "150546.300000", "150548.300000", "150550.300000", "150552.300000", "150554.300000", "150556.300000", "150558.300000", "150600.300000", "150602.300000", "150604.300000", "150606.300000", "150608.300000", "150610.300000", "150612.300000", "150614.300000", "150616.300000", "150618.300000", "150620.300000", "150622.300000", "150624.300000", "150626.300000", "150628.300000", "150630.300000", "150632.300000", "150634.300000", "150636.300000", "150638.300000", "150640.300000", "150642.300000", "150644.300000", "150646.300000", "150648.300000", "150650.300000", "150652.300000", "150654.300000", "150656.300000"],
      "ContentTime": ["150148.717000", "150150.213000", "150152.213000", "150154.213000", "150156.213000", "150158.213000", "150200.214000", "150202.214000", "150204.213000", "150206.212000", "150208.214000", "150210.214000", "150212.213000", "150214.214000", "150216.213000", "150218.214000", "150220.214000", "150222.213000", "150224.214000", "150226.213000", "150228.213000", "150230.214000", "150232.214000", "150234.213000", "150236.214000", "150238.214000", "150240.213000", "150242.214000", "150244.214000", "150246.213000", "150248.213000", "150250.213000", "150252.213000", "150254.214000", "150256.213000", "150258.213000", "150300.213000", "150302.214000", "150304.213000", "150306.214000", "150308.214000", "150310.213000", "150312.213000", "150314.214000", "150316.212000", "150318.213000", "150320.214000", "150322.213000", "150324.214000", "150326.213000", "150328.214000", "150330.213000", "150332.213000", "150334.213000", "150336.213000", "150338.213000", "150340.214000", "150342.213000", "150344.214000", "150346.214000", "150348.214000", "150350.213000", "150352.214000", "150354.213000", "150356.213000", "150358.213000", "150400.213000", "150402.213000", "150404.214000", "150406.214000", "150408.214000", "150410.213000", "150412.214000", "150414.213000", "150416.214000", "150418.214000", "150420.214000", "150422.213000", "150424.213000", "150426.212000", "150428.213000", "150430.213000", "150432.214000", "150434.213000", "150436.214000", "150438.214000", "150440.214000", "150442.214000", "150444.214000", "150446.214000", "150448.213000", "150450.214000", "150452.214000", "150454.213000", "150456.214000", "150458.214000", "150500.213000", "150502.213000", "150504.214000", "150506.213000", "150508.213000", "150510.214000", "150512.213000", "150514.214000", "150516.214000", "150518.214000", "150520.213000", "150522.213000", "150524.214000", "150526.214000", "150528.213000", "150530.214000", "150532.214000", "150534.213000", "150536.213000", "150538.214000", "150540.213000", "150542.213000", "150544.213000", "150546.214000", "150548.214000", "150550.214000", "150552.214000", "150554.213000", "150556.214000", "150558.213000", "150600.214000", "150602.213000", "150604.214000", "150606.214000", "150608.213000", "150610.214000", "150612.213000", "150614.213000", "150616.214000", "150618.213000", "150620.214000", "150622.214000", "150624.214000", "150626.214000", "150628.214000", "150630.213000", "150632.213000", "150634.213000", "150636.214000", "150638.213000", "150640.214000", "150642.233000", "150644.214000", "150646.213000", "150648.214000", "150650.213000", "150652.213000", "150654.214000", "150656.213000", "150658.014000"],
      "InstanceCreationTime": ["150148.717000", "150150.213000", "150152.213000", "150154.213000", "150156.213000", "150158.213000", "150200.214000", "150202.214000", "150204.213000", "150206.212000", "150208.214000", "150210.214000", "150212.213000", "150214.214000", "150216.213000", "150218.214000", "150220.214000", "150222.213000", "150224.214000", "150226.213000", "150228.213000", "150230.214000", "150232.214000", "150234.213000", "150236.214000", "150238.214000", "150240.213000", "150242.214000", "150244.214000", "150246.213000", "150248.213000", "150250.213000", "150252.213000", "150254.214000", "150256.213000", "150258.213000", "150300.213000", "150302.214000", "150304.213000", "150306.214000", "150308.214000", "150310.213000", "150312.213000", "150314.214000", "150316.212000", "150318.213000", "150320.214000", "150322.213000", "150324.214000", "150326.213000", "150328.214000", "150330.213000", "150332.213000", "150334.213000", "150336.213000", "150338.213000", "150340.214000", "150342.213000", "150344.214000", "150346.214000", "150348.214000", "150350.213000", "150352.214000", "150354.213000", "150356.213000", "150358.213000", "150400.213000", "150402.213000", "150404.214000", "150406.214000", "150408.214000", "150410.213000", "150412.214000", "150414.213000", "150416.214000", "150418.214000", "150420.214000", "150422.213000", "150424.213000", "150426.212000", "150428.213000", "150430.213000", "150432.214000", "150434.213000", "150436.214000", "150438.214000", "150440.214000", "150442.214000", "150444.214000", "150446.214000", "150448.213000", "150450.214000", "150452.214000", "150454.213000", "150456.214000", "150458.214000", "150500.213000", "150502.213000", "150504.214000", "150506.213000", "150508.213000", "150510.214000", "150512.213000", "150514.214000", "150516.214000", "150518.214000", "150520.213000", "150522.213000", "150524.214000", "150526.214000", "150528.213000", "150530.214000", "150532.214000", "150534.213000", "150536.213000", "150538.214000", "150540.213000", "150542.213000", "150544.213000", "150546.214000", "150548.214000", "150550.214000", "150552.214000", "150554.213000", "150556.214000", "150558.213000", "150600.214000", "150602.213000", "150604.214000", "150606.214000", "150608.213000", "150610.214000", "150612.213000", "150614.213000", "150616.214000", "150618.213000", "150620.214000", "150622.214000", "150624.214000", "150626.214000", "150628.214000", "150630.213000", "150632.213000", "150634.213000", "150636.214000", "150638.213000", "150640.214000", "150642.233000", "150644.214000", "150646.213000", "150648.214000", "150650.213000", "150652.213000", "150654.214000", "150656.213000", "150658.014000"],
      "InstanceNumber": [1, 2, 3, 4, 5, 6, 7, 8, 9, 10, 11, 12, 13, 14, 15, 16, 17, 18, 19, 20, 21, 22, 23, 24, 25, 26, 27, 28, 29, 30, 31, 32, 33, 34, 35, 36, 37, 38, 39, 40, 41, 42, 43, 44, 45, 46, 47, 48, 49, 50, 51, 52, 53, 54, 55, 56, 57, 58, 59, 60, 61, 62, 63, 64, 65, 66, 67, 68, 69, 70, 71, 72, 73, 74, 75, 76, 77, 78, 79, 80, 81, 82, 83, 84, 85, 86, 87, 88, 89, 90, 91, 92, 93, 94, 95, 96, 97, 98, 99, 100, 101, 102, 103, 104, 105, 106, 107, 108, 109, 110, 111, 112, 113, 114, 115, 116, 117, 118, 119, 120, 121, 122, 123, 124, 125, 126, 127, 128, 129, 130, 131, 132, 133, 134, 135, 136, 137, 138, 139, 140, 141, 142, 143, 144, 145, 146, 147, 148, 149, 150, 151, 152, 153, 154, 155, 156],
      "LargestImagePixelValue": [3030, 2966, 2976, 2971, 2953, 2962, 2950, 2938, 2962, 2916, 2923, 2904, 2909, 2908, 2932, 2893, 2892, 2895, 2906, 2905, 2904, 2916, 2916, 2901, 2903, 2930, 2895, 2911, 2919, 2896, 2905, 2916, 2937, 2912, 2936, 2978, 2923, 2933, 2972, 2907, 2931, 2954, 2897, 2933, 2962, 2986, 2947, 2960, 2919, 2958, 2940, 2928, 2954, 2974, 2953, 2924, 2941, 2924, 2935, 2954, 2947, 2961, 2956, 2982, 2983, 2988, 2970, 2916, 2955, 2940, 2975, 2969, 2960, 2978, 2926, 2936, 2915, 2954, 2989, 2951, 2963, 2932, 2986, 2950, 2933, 2959, 2956, 2925, 2929, 2990, 2964, 2956, 2964, 2982, 3044, 2978, 2998, 3015, 2968, 3006, 2988, 2973, 3003, 2958, 3006, 3019, 3004, 3015, 2936, 2999, 3013, 2973, 2988, 3029, 2961, 2983, 3036, 2982, 3045, 2943, 2999, 3042, 2987, 3036, 2975, 3008, 3047, 2988, 3022, 2987, 2991, 3054, 2994, 2989, 3014, 2957, 2993, 3012, 2970, 3007, 3014, 2996, 3060, 3003, 3042, 2985, 3043, 2982, 3034, 3029, 2991, 3027, 2966, 3058, 3058, 2981],
      "WindowCenter": [747.0, 746.0, 746.0, 744.0, 743.0, 742.0, 743.0, 743.0, 744.0, 744.0, 744.0, 744.0, 745.0, 744.0, 745.0, 744.0, 744.0, 744.0, 744.0, 744.0, 745.0, 745.0, 745.0, 744.0, 744.0, 745.0, 745.0, 743.0, 743.0, 744.0, 743.0, 743.0, 744.0, 744.0, 744.0, 745.0, 744.0, 744.0, 744.0, 743.0, 745.0, 745.0, 743.0, 743.0, 744.0, 745.0, 744.0, 743.0, 743.0, 743.0, 743.0, 743.0, 744.0, 744.0, 742.0, 743.0, 744.0, 744.0, 744.0, 744.0, 744.0, 744.0, 745.0, 744.0, 744.0, 743.0, 744.0, 743.0, 743.0, 743.0, 745.0, 745.0, 744.0, 743.0, 742.0, 742.0, 743.0, 744.0, 743.0, 743.0, 744.0, 744.0, 743.0, 743.0, 744.0, 744.0, 743.0, 742.0, 744.0, 745.0, 745.0, 745.0, 745.0, 745.0, 746.0, 745.0, 745.0, 744.0, 744.0, 745.0, 745.0, 745.0, 744.0, 744.0, 744.0, 745.0, 745.0, 745.0, 744.0, 743.0, 744.0, 743.0, 743.0, 744.0, 742.0, 743.0, 746.0, 745.0, 745.0, 744.0, 745.0, 745.0, 744.0, 744.0, 743.0, 744.0, 744.0, 743.0, 744.0, 744.0, 745.0, 745.0, 744.0, 744.0, 745.0, 745.0, 745.0, 744.0, 744.0, 743.0, 744.0, 744.0, 745.0, 744.0, 745.0, 744.0, 745.0, 744.0, 745.0, 744.0, 743.0, 744.0, 745.0, 745.0, 745.0, 744.0],
      "WindowWidth": [1618.0, 1615.0, 1614.0, 1610.0, 1605.0, 1604.0, 1607.0, 1606.0, 1610.0, 1611.0, 1609.0, 1611.0, 1613.0, 1611.0, 1613.0, 1610.0, 1610.0, 1611.0, 1610.0, 1610.0, 1612.0, 1613.0, 1614.0, 1610.0, 1610.0, 1612.0, 1612.0, 1608.0, 1608.0, 1609.0, 1608.0, 1608.0, 1609.0, 1609.0, 1611.0, 1613.0, 1611.0, 1609.0, 1609.0, 1608.0, 1613.0, 1613.0, 1606.0, 1606.0, 1610.0, 1613.0, 1608.0, 1608.0, 1608.0, 1606.0, 1607.0, 1607.0, 1610.0, 1608.0, 1605.0, 1606.0, 1610.0, 1609.0, 1610.0, 1609.0, 1609.0, 1610.0, 1612.0, 1610.0, 1610.0, 1608.0, 1608.0, 1606.0, 1607.0, 1607.0, 1612.0, 1611.0, 1609.0, 1606.0, 1605.0, 1605.0, 1606.0, 1608.0, 1608.0, 1607.0, 1609.0, 1608.0, 1607.0, 1606.0, 1609.0, 1609.0, 1608.0, 1605.0, 1608.0, 1612.0, 1611.0, 1611.0, 1612.0, 1613.0, 1615.0, 1611.0, 1612.0, 1610.0, 1610.0, 1612.0, 1613.0, 1612.0, 1609.0, 1608.0, 1610.0, 1611.0, 1612.0, 1612.0, 1609.0, 1608.0, 1610.0, 1607.0, 1606.0, 1609.0, 1605.0, 1608.0, 1613.0, 1612.0, 1612.0, 1609.0, 1612.0, 1612.0, 1609.0, 1610.0, 1608.0, 1608.0, 1608.0, 1606.0, 1609.0, 1609.0, 1613.0, 1613.0, 1610.0, 1608.0, 1612.0, 1612.0, 1612.0, 1611.0, 1608.0, 1608.0, 1610.0, 1610.0, 1611.0, 1609.0, 1612.0, 1608.0, 1611.0, 1610.0, 1611.0, 1608.0, 1607.0, 1609.0, 1610.0, 1611.0, 1610.0, 1609.0]
    },
    "slices": {}
  }
}