{
  "AcquisitionMatrixPE": 100,
  "AcquisitionNumber": 1,
  "AcquisitionTime": "14:04:59.617500",
  "BandwidthPerPixelPhaseEncode": 18.519,
  "BaseResolution": 100,
  "BodyPartExamined": "BRAIN",
  "CoilCombinationMethod": "Sum of Squares",
  "ConsistencyInfo": "N4_VE11C_LATEST_20160120",
  "ConversionSoftware": "dcm2niix",
  "ConversionSoftwareVersion": "v1.0.20211006",
  "DerivedVendorReportedEchoSpacing": 0.000539986,
  "DeviceSerialNumber": "166078",
  "DwellTime": 2.1e-06,
  "EchoTime": 0.034,
  "EchoTrainLength": 100,
  "EffectiveEchoSpacing": 0.000539986,
  "FlipAngle": 90,
  "ImageOrientationPatientDICOM": [1, 0, 0, 0, 0.982935, -0.183951],
  "ImageOrientationText": "Tra>Cor(-10.6)",
  "ImageType": [
    "ORIGINAL",
    "PRIMARY",
    "M",
    "ND",
    "MOSAIC"
],
  "ImagingFrequency": 123.258,
  "InPlanePhaseEncodingDirectionDICOM": "COL",
  "InstitutionAddress": "Street StreetNo,Bei Jing,District,CN,ZIP",
  "InstitutionName": "BeiJing Normal University",
  "InstitutionalDepartmentName": "Department",
  "MRAcquisitionType": "2D",
  "MagneticFieldStrength": 3,
  "Manufacturer": "Siemens",
  "ManufacturersModelName": "Prisma",
  "Modality": "MR",
  "MultibandAccelerationFactor": 3,
  "PartialFourier": 1,
  "PatientPosition": "HFS",
  "PercentPhaseFOV": 100,
  "PercentSampling": 100,
  "PhaseEncodingDirection": "j-",
  "PhaseEncodingSteps": 100,
  "PhaseResolution": 1,
  "PixelBandwidth": 2380,
  "ProcedureStepDescription": "BNU_P2018_64CH^Zhen.ZongLei",
  "ProtocolName": "bold_100x100_s3_2x2x2_static_156",
  "PulseSequenceDetails": "%SiemensSeq%\\ep2d_bold",
  "ReceiveCoilActiveElements": "HC1-7;NC1",
  "ReceiveCoilName": "HeadNeck_64",
  "ReconMatrixPE": 100,
  "RefLinesPE": 32,
  "RepetitionTime": 2,
  "SAR": 0.0713138,
  "ScanOptions": "FS",
  "ScanningSequence": "EP",
  "SequenceName": "*epfid2d1_100",
  "SequenceVariant": "SK",
  "SeriesDescription": "bold_100x100_s3_2x2x2_static_156",
  "SeriesNumber": 15,
  "ShimSetting": [-5463, -11523, -1210, 272, -54, -382, -114, 33],
  "SliceThickness": 2,
  "SliceTiming": [1.485, 0, 0.99, 0.0825, 1.0725, 0.165, 1.155, 0.2475, 1.2375, 0.33, 1.32, 0.4125, 1.4025, 0.5775, 1.5675, 0.66, 1.65, 0.7425, 1.7325, 0.825, 1.815, 0.9075, 1.8975, 0.495, 1.485, 0, 0.99, 0.0825, 1.0725, 0.165, 1.155, 0.2475, 1.2375, 0.33, 1.32, 0.4125, 1.4025, 0.5775, 1.5675, 0.66, 1.65, 0.7425, 1.7325, 0.825, 1.815, 0.9075, 1.8975, 0.495, 1.485, 0, 0.99, 0.0825, 1.0725, 0.165, 1.155, 0.2475, 1.2375, 0.33, 1.32, 0.4125, 1.4025, 0.5775, 1.5675, 0.66, 1.65, 0.7425, 1.7325, 0.825, 1.815, 0.9075, 1.8975, 0.495],
  "SoftwareVersions": "syngo MR E11",
  "SpacingBetweenSlices": 2,
  "StationName": "AWP166078",
  "TaskName": "action",
  "TotalReadoutTime": 0.0534586,
  "TxRefAmp": 231.784,
  "dcmmeta_affine": [
    [-2.0, 0.0, 0.0, 100.67796325683594],
    [0.0, 1.96587073802948, -0.3679027259349823, -81.28649139404297],
    [0.0, 0.3679027259349823, 1.96587073802948, -70.44034576416016],
    [0.0, 0.0, 0.0, 1.0]
],
  "dcmmeta_reorient_transform": [
    [0.0, -1.0, 0.0, 99.0],
    [1.0, 0.0, 0.0, 0.0],
    [0.0, 0.0, 1.0, 0.0],
    [0.0, 0.0, 0.0, 1.0]
],
  "dcmmeta_shape": [100, 100, 72, 156],
  "dcmmeta_slice_dim": 2,
  "dcmmeta_version": 0.6,
  "global": {
    "const": {
      "AcquisitionMatrix": [100, 0, 0, 100],
      "AngioFlag": "N",
      "BitsAllocated": 16,
      "BitsStored": 12,
      "BodyPartExamined": "BRAIN",
      "Columns": 900,
      "EchoNumbers": 1,
      "EchoTime": 34.0,
      "EchoTrainLength": 100,
      "FlipAngle": 90.0,
      "HighBit": 11,
      "ImageOrientationPatient": [1.0, 0.0, 0.0, 0.0, 0.98293534700206, -0.1839513620878],
      "ImagePositionPatient": [-900.67796611786, -899.68298814414, 113.1431170533],
      "ImageType": [
        "ORIGINAL",
        "PRIMARY",
        "M",
        "ND",
        "MOSAIC"
],
      "ImagedNucleus": "1H",
      "ImagingFrequency": 123.257713,
      "InPlanePhaseEncodingDirection": "COL",
      "MRAcquisitionType": "2D",
      "MagneticFieldStrength": 3.0,
      "Manufacturer": "SIEMENS",
      "ManufacturerModelName": "Prisma",
      "Modality": "MR",
      "NumberOfAverages": 1.0,
      "NumberOfPhaseEncodingSteps": 100,
      "PercentPhaseFieldOfView": 100.0,
      "PercentSampling": 100.0,
      "PerformedProcedureStepStartTime": "125742.017000",
      "PhotometricInterpretation": "MONOCHROME2",
      "PixelBandwidth": 2380.0,
      "PixelRepresentation": 0,
      "PixelSpacing": [2.0, 2.0],
      "ProtocolName": "bold_100x100_s3_2x2x2_static_156",
      "RepetitionTime": 2000.0,
      "Rows": 900,
      "SAR": 0.07131380390722,
      "SamplesPerPixel": 1,
      "ScanOptions": "FS",
      "ScanningSequence": "EP",
      "SequenceName": "*epfid2d1_100",
      "SequenceVariant": "SK",
      "SeriesDescription": "bold_100x100_s3_2x2x2_static_156",
      "SeriesNumber": 15,
      "SeriesTime": "140502.591000",
      "SliceLocation": -54.28554209462,
      "SliceThickness": 2.0,
      "SmallestImagePixelValue": 0,
      "SoftwareVersions": "syngo MR E11",
      "SpacingBetweenSlices": 2.0000000111406,
      "SpecificCharacterSet": "ISO_IR 100",
      "StudyID": "1",
      "StudyTime": "125741.935000",
      "TransmitCoilName": "Body",
      "VariableFlipAngleFlag": "N",
      "WindowCenterWidthExplanation": "Algo1",
      "dBdt": 0.0},
    "slices": {}
  },
  "time": {
    "samples": {
      "AcquisitionNumber": [1, 2, 3, 4, 5, 6, 7, 8, 9, 10, 11, 12, 13, 14, 15, 16, 17, 18, 19, 20, 21, 22, 23, 24, 25, 26, 27, 28, 29, 30, 31, 32, 33, 34, 35, 36, 37, 38, 39, 40, 41, 42, 43, 44, 45, 46, 47, 48, 49, 50, 51, 52, 53, 54, 55, 56, 57, 58, 59, 60, 61, 62, 63, 64, 65, 66, 67, 68, 69, 70, 71, 72, 73, 74, 75, 76, 77, 78, 79, 80, 81, 82, 83, 84, 85, 86, 87, 88, 89, 90, 91, 92, 93, 94, 95, 96, 97, 98, 99, 100, 101, 102, 103, 104, 105, 106, 107, 108, 109, 110, 111, 112, 113, 114, 115, 116, 117, 118, 119, 120, 121, 122, 123, 124, 125, 126, 127, 128, 129, 130, 131, 132, 133, 134, 135, 136, 137, 138, 139, 140, 141, 142, 143, 144, 145, 146, 147, 148, 149, 150, 151, 152, 153, 154, 155, 156],
      "AcquisitionTime": ["140459.617500", "140501.617500", "140503.617500", "140505.617500", "140507.617500", "140509.617500", "140511.617500", "140513.617500", "140515.617500", "140517.617500", "140519.617500", "140521.617500", "140523.617500", "140525.617500", "140527.617500", "140529.617500", "140531.617500", "140533.617500", "140535.617500", "140537.617500", "140539.617500", "140541.617500", "140543.617500", "140545.617500", "140547.617500", "140549.617500", "140551.617500", "140553.617500", "140555.617500", "140557.617500", "140559.617500", "140601.617500", "140603.617500", "140605.617500", "140607.617500", "140609.617500", "140611.617500", "140613.617500", "140615.617500", "140617.617500", "140619.617500", "140621.617500", "140623.617500", "140625.617500", "140627.617500", "140629.617500", "140631.617500", "140633.617500", "140635.617500", "140637.617500", "140639.617500", "140641.617500", "140643.617500", "140645.617500", "140647.617500", "140649.617500", "140651.617500", "140653.617500", "140655.617500", "140657.617500", "140659.617500", "140701.617500", "140703.617500", "140705.617500", "140707.617500", "140709.617500", "140711.617500", "140713.617500", "140715.617500", "140717.617500", "140719.617500", "140721.617500", "140723.617500", "140725.617500", "140727.617500", "140729.617500", "140731.617500", "140733.617500", "140735.617500", "140737.617500", "140739.617500", "140741.617500", "140743.617500", "140745.617500", "140747.617500", "140749.617500", "140751.617500", "140753.617500", "140755.617500", "140757.617500", "140759.617500", "140801.617500", "140803.617500", "140805.617500", "140807.617500", "140809.617500", "140811.617500", "140813.617500", "140815.617500", "140817.617500", "140819.617500", "140821.617500", "140823.617500", "140825.617500", "140827.617500", "140829.617500", "140831.617500", "140833.617500", "140835.617500", "140837.617500", "140839.617500", "140841.617500", "140843.617500", "140845.617500", "140847.617500", "140849.617500", "140851.617500", "140853.617500", "140855.617500", "140857.617500", "140859.617500", "140901.617500", "140903.617500", "140905.617500", "140907.617500", "140909.617500", "140911.617500", "140913.617500", "140915.617500", "140917.617500", "140919.617500", "140921.617500", "140923.617500", "140925.617500", "140927.617500", "140929.617500", "140931.617500", "140933.617500", "140935.617500", "140937.617500", "140939.617500", "140941.617500", "140943.617500", "140945.617500", "140947.617500", "140949.617500", "140951.617500", "140953.617500", "140955.617500", "140957.617500", "140959.617500", "141001.617500", "141003.617500", "141005.617500", "141007.617500", "141009.617500"],
      "ContentTime": ["140502.595000", "140504.090000", "140506.091000", "140508.090000", "140510.090000", "140512.091000", "140514.091000", "140516.090000", "140518.092000", "140520.091000", "140522.090000", "140524.091000", "140526.091000", "140528.091000", "140530.090000", "140532.091000", "140534.090000", "140536.090000", "140538.091000", "140540.091000", "140542.091000", "140544.090000", "140546.090000", "140548.091000", "140550.090000", "140552.091000", "140554.090000", "140556.091000", "140558.091000", "140600.091000", "140602.090000", "140604.091000", "140606.091000", "140608.091000", "140610.092000", "140612.091000", "140614.090000", "140616.090000", "140618.090000", "140620.091000", "140622.091000", "140624.090000", "140626.090000", "140628.091000", "140630.091000", "140632.090000", "140634.090000", "140636.090000", "140638.090000", "140640.091000", "140642.091000", "140644.090000", "140646.090000", "140648.090000", "140650.090000", "140652.090000", "140654.090000", "140656.090000", "140658.090000", "140700.090000", "140702.091000", "140704.090000", "140706.090000", "140708.090000", "140710.090000", "140712.090000", "140714.090000", "140716.090000", "140718.090000", "140720.091000", "140722.090000", "140724.091000", "140726.090000", "140728.090000", "140730.090000", "140732.090000", "140734.090000", "140736.090000", "140738.091000", "140740.091000", "140742.091000", "140744.091000", "140746.091000", "140748.090000", "140750.090000", "140752.090000", "140754.090000", "140756.091000", "140758.091000", "140800.090000", "140802.091000", "140804.091000", "140806.090000", "140808.091000", "140810.091000", "140812.091000", "140814.091000", "140816.090000", "140818.091000", "140820.091000", "140822.090000", "140824.090000", "140826.090000", "140828.091000", "140830.092000", "140832.091000", "140834.091000", "140836.091000", "140838.090000", "140840.091000", "140842.090000", "140844.091000", "140846.091000", "140848.092000", "140850.091000", "140852.091000", "140854.091000", "140856.090000", "140858.090000", "140900.091000", "140902.090000", "140904.091000", "140906.090000", "140908.090000", "140910.090000", "140912.090000", "140914.091000", "140916.091000", "140918.090000", "140920.091000", "140922.092000", "140924.091000", "140926.091000", "140928.090000", "140930.091000", "140932.090000", "140934.090000", "140936.090000", "140938.091000", "140940.091000", "140942.090000", "140944.091000", "140946.091000", "140948.091000", "140950.091000", "140952.091000", "140954.090000", "140956.091000", "140958.092000", "141000.090000", "141002.091000", "141004.091000", "141006.091000", "141008.091000", "141010.091000", "141011.754000"],
      "InstanceCreationTime": ["140502.595000", "140504.090000", "140506.091000", "140508.090000", "140510.090000", "140512.091000", "140514.091000", "140516.090000", "140518.092000", "140520.091000", "140522.090000", "140524.091000", "140526.091000", "140528.091000", "140530.090000", "140532.091000", "140534.090000", "140536.090000", "140538.091000", "140540.091000", "140542.091000", "140544.090000", "140546.090000", "140548.091000", "140550.090000", "140552.091000", "140554.090000", "140556.091000", "140558.091000", "140600.091000", "140602.090000", "140604.091000", "140606.091000", "140608.091000", "140610.092000", "140612.091000", "140614.090000", "140616.090000", "140618.090000", "140620.091000", "140622.091000", "140624.090000", "140626.090000", "140628.091000", "140630.091000", "140632.090000", "140634.090000", "140636.090000", "140638.090000", "140640.091000", "140642.091000", "140644.090000", "140646.090000", "140648.090000", "140650.090000", "140652.090000", "140654.090000", "140656.090000", "140658.090000", "140700.090000", "140702.091000", "140704.090000", "140706.090000", "140708.090000", "140710.090000", "140712.090000", "140714.090000", "140716.090000", "140718.090000", "140720.091000", "140722.090000", "140724.091000", "140726.090000", "140728.090000", "140730.090000", "140732.090000", "140734.090000", "140736.090000", "140738.091000", "140740.091000", "140742.091000", "140744.091000", "140746.091000", "140748.090000", "140750.090000", "140752.090000", "140754.090000", "140756.091000", "140758.091000", "140800.090000", "140802.091000", "140804.091000", "140806.090000", "140808.091000", "140810.091000", "140812.091000", "140814.091000", "140816.090000", "140818.091000", "140820.091000", "140822.090000", "140824.090000", "140826.090000", "140828.091000", "140830.092000", "140832.091000", "140834.091000", "140836.091000", "140838.090000", "140840.091000", "140842.090000", "140844.091000", "140846.091000", "140848.092000", "140850.091000", "140852.091000", "140854.091000", "140856.090000", "140858.090000", "140900.091000", "140902.090000", "140904.091000", "140906.090000", "140908.090000", "140910.090000", "140912.090000", "140914.091000", "140916.091000", "140918.090000", "140920.091000", "140922.092000", "140924.091000", "140926.091000", "140928.090000", "140930.091000", "140932.090000", "140934.090000", "140936.090000", "140938.091000", "140940.091000", "140942.090000", "140944.091000", "140946.091000", "140948.091000", "140950.091000", "140952.091000", "140954.090000", "140956.091000", "140958.092000", "141000.090000", "141002.091000", "141004.091000", "141006.091000", "141008.091000", "141010.091000", "141011.754000"],
      "InstanceNumber": [1, 2, 3, 4, 5, 6, 7, 8, 9, 10, 11, 12, 13, 14, 15, 16, 17, 18, 19, 20, 21, 22, 23, 24, 25, 26, 27, 28, 29, 30, 31, 32, 33, 34, 35, 36, 37, 38, 39, 40, 41, 42, 43, 44, 45, 46, 47, 48, 49, 50, 51, 52, 53, 54, 55, 56, 57, 58, 59, 60, 61, 62, 63, 64, 65, 66, 67, 68, 69, 70, 71, 72, 73, 74, 75, 76, 77, 78, 79, 80, 81, 82, 83, 84, 85, 86, 87, 88, 89, 90, 91, 92, 93, 94, 95, 96, 97, 98, 99, 100, 101, 102, 103, 104, 105, 106, 107, 108, 109, 110, 111, 112, 113, 114, 115, 116, 117, 118, 119, 120, 121, 122, 123, 124, 125, 126, 127, 128, 129, 130, 131, 132, 133, 134, 135, 136, 137, 138, 139, 140, 141, 142, 143, 144, 145, 146, 147, 148, 149, 150, 151, 152, 153, 154, 155, 156],
      "LargestImagePixelValue": [3886, 3675, 3691, 3643, 3705, 3692, 3673, 3677, 3663, 3666, 3665, 3678, 3651, 3623, 3616, 3648, 3698, 3650, 3713, 3693, 3684, 3681, 3660, 3747, 3714, 3681, 3674, 3670, 3668, 3673, 3703, 3686, 3659, 3642, 3604, 3667, 3649, 3662, 3684, 3708, 3695, 3662, 3722, 3666, 3648, 3642, 3637, 3732, 3682, 3690, 3679, 3686, 3721, 3656, 3738, 3711, 3752, 3698, 3656, 3701, 3724, 3687, 3676, 3714, 3730, 3765, 3757, 3750, 3735, 3806, 3782, 3800, 3798, 3790, 3785, 3798, 3716, 3728, 3691, 3752, 3745, 3741, 3704, 3716, 3720, 3718, 3767, 3794, 3755, 3737, 3653, 3727, 3695, 3731, 3677, 3673, 3661, 3686, 3683, 3698, 3690, 3719, 3776, 3722, 3766, 3727, 3766, 3754, 3739, 3723, 3721, 3723, 3739, 3694, 3791, 3711, 3746, 3751, 3783, 3754, 3749, 3686, 3718, 3723, 3697, 3710, 3702, 3681, 3733, 3680, 3784, 3693, 3747, 3765, 3704, 3734, 3784, 3757, 3718, 3765, 3705, 3790, 3776, 3729, 3702, 3734, 3736, 3736, 3654, 3690, 3673, 3652, 3688, 3682, 3686, 3629],
      "WindowCenter": [824.0, 822.0, 821.0, 820.0, 821.0, 823.0, 821.0, 820.0, 819.0, 822.0, 824.0, 823.0, 820.0, 817.0, 817.0, 819.0, 821.0, 822.0, 821.0, 821.0, 820.0, 820.0, 819.0, 820.0, 820.0, 822.0, 822.0, 821.0, 820.0, 820.0, 821.0, 821.0, 819.0, 817.0, 816.0, 818.0, 819.0, 819.0, 819.0, 819.0, 818.0, 819.0, 819.0, 818.0, 817.0, 818.0, 818.0, 820.0, 820.0, 819.0, 818.0, 816.0, 816.0, 818.0, 822.0, 822.0, 820.0, 819.0, 818.0, 820.0, 821.0, 820.0, 818.0, 818.0, 820.0, 822.0, 821.0, 818.0, 817.0, 817.0, 817.0, 818.0, 818.0, 818.0, 818.0, 818.0, 817.0, 819.0, 820.0, 819.0, 818.0, 819.0, 819.0, 821.0, 821.0, 818.0, 817.0, 817.0, 818.0, 818.0, 816.0, 816.0, 814.0, 815.0, 816.0, 817.0, 817.0, 817.0, 816.0, 817.0, 818.0, 817.0, 817.0, 819.0, 821.0, 822.0, 821.0, 820.0, 821.0, 822.0, 821.0, 818.0, 817.0, 819.0, 820.0, 818.0, 815.0, 816.0, 817.0, 818.0, 818.0, 817.0, 817.0, 818.0, 817.0, 817.0, 816.0, 818.0, 819.0, 818.0, 819.0, 820.0, 823.0, 822.0, 820.0, 817.0, 817.0, 819.0, 818.0, 816.0, 815.0, 817.0, 819.0, 820.0, 818.0, 817.0, 817.0, 818.0, 819.0, 819.0, 819.0, 819.0, 820.0, 820.0, 819.0, 816.0],
      "WindowWidth": [1784.0, 1775.0, 1773.0, 1770.0, 1775.0, 1778.0, 1774.0, 1770.0, 1770.0, 1777.0, 1781.0, 1780.0, 1771.0, 1763.0, 1764.0, 1769.0, 1775.0, 1776.0, 1775.0, 1774.0, 1773.0, 1772.0, 1769.0, 1772.0, 1774.0, 1778.0, 1779.0, 1776.0, 1773.0, 1773.0, 1775.0, 1776.0, 1770.0, 1764.0, 1761.0, 1767.0, 1770.0, 1770.0, 1770.0, 1769.0, 1769.0, 1770.0, 1771.0, 1768.0, 1766.0, 1769.0, 1769.0, 1774.0, 1773.0, 1770.0, 1766.0, 1760.0, 1762.0, 1767.0, 1777.0, 1778.0, 1773.0, 1770.0, 1767.0, 1771.0, 1774.0, 1771.0, 1768.0, 1767.0, 1773.0, 1778.0, 1774.0, 1767.0, 1763.0, 1764.0, 1765.0, 1766.0, 1767.0, 1768.0, 1768.0, 1768.0, 1765.0, 1769.0, 1772.0, 1768.0, 1766.0, 1768.0, 1771.0, 1774.0, 1773.0, 1766.0, 1765.0, 1764.0, 1766.0, 1765.0, 1761.0, 1759.0, 1756.0, 1758.0, 1762.0, 1764.0, 1765.0, 1762.0, 1760.0, 1763.0, 1766.0, 1764.0, 1765.0, 1768.0, 1773.0, 1776.0, 1775.0, 1771.0, 1774.0, 1778.0, 1774.0, 1766.0, 1763.0, 1770.0, 1772.0, 1764.0, 1759.0, 1759.0, 1764.0, 1765.0, 1767.0, 1763.0, 1764.0, 1764.0, 1764.0, 1762.0, 1761.0, 1766.0, 1767.0, 1766.0, 1768.0, 1770.0, 1778.0, 1777.0, 1770.0, 1762.0, 1764.0, 1767.0, 1765.0, 1761.0, 1758.0, 1762.0, 1769.0, 1772.0, 1766.0, 1762.0, 1763.0, 1765.0, 1767.0, 1769.0, 1768.0, 1769.0, 1771.0, 1773.0, 1768.0, 1760.0]
    },
    "slices": {}
  }
}