{
  "AcquisitionMatrixPE": 100,
  "AcquisitionNumber": 1,
  "AcquisitionTime": "13:09:58.977500",
  "BandwidthPerPixelPhaseEncode": 18.519,
  "BaseResolution": 100,
  "BodyPartExamined": "BRAIN",
  "CoilCombinationMethod": "Sum of Squares",
  "ConsistencyInfo": "N4_VE11C_LATEST_20160120",
  "ConversionSoftware": "dcm2niix",
  "ConversionSoftwareVersion": "v1.0.20211006",
  "DerivedVendorReportedEchoSpacing": 0.000539986,
  "DeviceSerialNumber": "166078",
  "DwellTime": 2.1e-06,
  "EchoTime": 0.034,
  "EchoTrainLength": 100,
  "EffectiveEchoSpacing": 0.000539986,
  "FlipAngle": 90,
  "ImageOrientationPatientDICOM": [1, 0, 0, 0, 0.982935, -0.183951],
  "ImageOrientationText": "Tra>Cor(-10.6)",
  "ImageType": [
    "ORIGINAL",
    "PRIMARY",
    "M",
    "ND",
    "MOSAIC"
],
  "ImagingFrequency": 123.258,
  "InPlanePhaseEncodingDirectionDICOM": "COL",
  "InstitutionAddress": "Street StreetNo,Bei Jing,District,CN,ZIP",
  "InstitutionName": "BeiJing Normal University",
  "InstitutionalDepartmentName": "Department",
  "MRAcquisitionType": "2D",
  "MagneticFieldStrength": 3,
  "Manufacturer": "Siemens",
  "ManufacturersModelName": "Prisma",
  "Modality": "MR",
  "MultibandAccelerationFactor": 3,
  "PartialFourier": 1,
  "PatientPosition": "HFS",
  "PercentPhaseFOV": 100,
  "PercentSampling": 100,
  "PhaseEncodingDirection": "j-",
  "PhaseEncodingSteps": 100,
  "PhaseResolution": 1,
  "PixelBandwidth": 2380,
  "ProcedureStepDescription": "BNU_P2018_64CH^Zhen.ZongLei",
  "ProtocolName": "bold_100x100_s3_2x2x2_static_156",
  "PulseSequenceDetails": "%SiemensSeq%\\ep2d_bold",
  "ReceiveCoilActiveElements": "HC1-7;NC1",
  "ReceiveCoilName": "HeadNeck_64",
  "ReconMatrixPE": 100,
  "RefLinesPE": 32,
  "RepetitionTime": 2,
  "SAR": 0.0713138,
  "ScanOptions": "FS",
  "ScanningSequence": "EP",
  "SequenceName": "*epfid2d1_100",
  "SequenceVariant": "SK",
  "SeriesDescription": "bold_100x100_s3_2x2x2_static_156",
  "SeriesNumber": 4,
  "ShimSetting": [-5463, -11523, -1210, 272, -54, -382, -114, 33],
  "SliceThickness": 2,
  "SliceTiming": [1.485, 0, 0.99, 0.0825, 1.0725, 0.165, 1.155, 0.2475, 1.2375, 0.33, 1.32, 0.4125, 1.4025, 0.5775, 1.5675, 0.66, 1.65, 0.7425, 1.7325, 0.825, 1.815, 0.9075, 1.8975, 0.495, 1.485, 0, 0.99, 0.0825, 1.0725, 0.165, 1.155, 0.2475, 1.2375, 0.33, 1.32, 0.4125, 1.4025, 0.5775, 1.5675, 0.66, 1.65, 0.7425, 1.7325, 0.825, 1.815, 0.9075, 1.8975, 0.495, 1.485, 0, 0.99, 0.0825, 1.0725, 0.165, 1.155, 0.2475, 1.2375, 0.33, 1.32, 0.4125, 1.4025, 0.5775, 1.5675, 0.66, 1.65, 0.7425, 1.7325, 0.825, 1.815, 0.9075, 1.8975, 0.495],
  "SoftwareVersions": "syngo MR E11",
  "SpacingBetweenSlices": 2,
  "StationName": "AWP166078",
  "TaskName": "action",
  "TotalReadoutTime": 0.0534586,
  "TxRefAmp": 231.784,
  "dcmmeta_affine": [
    [-2.0, 0.0, 0.0, 100.67796325683594],
    [0.0, 1.96587073802948, -0.3679027259349823, -81.28649139404297],
    [0.0, 0.3679027259349823, 1.96587073802948, -70.44034576416016],
    [0.0, 0.0, 0.0, 1.0]
],
  "dcmmeta_reorient_transform": [
    [0.0, -1.0, 0.0, 99.0],
    [1.0, 0.0, 0.0, 0.0],
    [0.0, 0.0, 1.0, 0.0],
    [0.0, 0.0, 0.0, 1.0]
],
  "dcmmeta_shape": [100, 100, 72, 156],
  "dcmmeta_slice_dim": 2,
  "dcmmeta_version": 0.6,
  "global": {
    "const": {
      "AcquisitionMatrix": [100, 0, 0, 100],
      "AngioFlag": "N",
      "BitsAllocated": 16,
      "BitsStored": 12,
      "BodyPartExamined": "BRAIN",
      "Columns": 900,
      "EchoNumbers": 1,
      "EchoTime": 34.0,
      "EchoTrainLength": 100,
      "FlipAngle": 90.0,
      "HighBit": 11,
      "ImageOrientationPatient": [1.0, 0.0, 0.0, 0.0, 0.98293534700206, -0.1839513620878],
      "ImagePositionPatient": [-900.67796611786, -899.68298814414, 113.1431170533],
      "ImageType": [
        "ORIGINAL",
        "PRIMARY",
        "M",
        "ND",
        "MOSAIC"
],
      "ImagedNucleus": "1H",
      "ImagingFrequency": 123.2577,
      "InPlanePhaseEncodingDirection": "COL",
      "MRAcquisitionType": "2D",
      "MagneticFieldStrength": 3.0,
      "Manufacturer": "SIEMENS",
      "ManufacturerModelName": "Prisma",
      "Modality": "MR",
      "NumberOfAverages": 1.0,
      "NumberOfPhaseEncodingSteps": 100,
      "PercentPhaseFieldOfView": 100.0,
      "PercentSampling": 100.0,
      "PerformedProcedureStepStartTime": "125742.017000",
      "PhotometricInterpretation": "MONOCHROME2",
      "PixelBandwidth": 2380.0,
      "PixelRepresentation": 0,
      "PixelSpacing": [2.0, 2.0],
      "ProtocolName": "bold_100x100_s3_2x2x2_static_156",
      "RepetitionTime": 2000.0,
      "Rows": 900,
      "SAR": 0.07131380390722,
      "SamplesPerPixel": 1,
      "ScanOptions": "FS",
      "ScanningSequence": "EP",
      "SequenceName": "*epfid2d1_100",
      "SequenceVariant": "SK",
      "SeriesDescription": "bold_100x100_s3_2x2x2_static_156",
      "SeriesNumber": 4,
      "SeriesTime": "131001.398000",
      "SliceLocation": -54.28554209462,
      "SliceThickness": 2.0,
      "SmallestImagePixelValue": 0,
      "SoftwareVersions": "syngo MR E11",
      "SpacingBetweenSlices": 2.0000000111406,
      "SpecificCharacterSet": "ISO_IR 100",
      "StudyID": "1",
      "StudyTime": "125741.935000",
      "TransmitCoilName": "Body",
      "VariableFlipAngleFlag": "N",
      "WindowCenterWidthExplanation": "Algo1",
      "dBdt": 0.0},
    "slices": {}
  },
  "time": {
    "samples": {
      "AcquisitionNumber": [1, 2, 3, 4, 5, 6, 7, 8, 9, 10, 11, 12, 13, 14, 15, 16, 17, 18, 19, 20, 21, 22, 23, 24, 25, 26, 27, 28, 29, 30, 31, 32, 33, 34, 35, 36, 37, 38, 39, 40, 41, 42, 43, 44, 45, 46, 47, 48, 49, 50, 51, 52, 53, 54, 55, 56, 57, 58, 59, 60, 61, 62, 63, 64, 65, 66, 67, 68, 69, 70, 71, 72, 73, 74, 75, 76, 77, 78, 79, 80, 81, 82, 83, 84, 85, 86, 87, 88, 89, 90, 91, 92, 93, 94, 95, 96, 97, 98, 99, 100, 101, 102, 103, 104, 105, 106, 107, 108, 109, 110, 111, 112, 113, 114, 115, 116, 117, 118, 119, 120, 121, 122, 123, 124, 125, 126, 127, 128, 129, 130, 131, 132, 133, 134, 135, 136, 137, 138, 139, 140, 141, 142, 143, 144, 145, 146, 147, 148, 149, 150, 151, 152, 153, 154, 155, 156],
      "AcquisitionTime": ["130958.977500", "131000.977500", "131002.977500", "131004.977500", "131006.977500", "131008.977500", "131010.977500", "131012.977500", "131014.977500", "131016.977500", "131018.977500", "131020.977500", "131022.977500", "131024.977500", "131026.977500", "131028.977500", "131030.977500", "131032.977500", "131034.977500", "131036.977500", "131038.977500", "131040.977500", "131042.977500", "131044.977500", "131046.977500", "131048.977500", "131050.977500", "131052.977500", "131054.977500", "131056.977500", "131058.977500", "131100.977500", "131102.977500", "131104.977500", "131106.977500", "131108.977500", "131110.977500", "131112.977500", "131114.977500", "131116.977500", "131118.977500", "131120.977500", "131122.977500", "131124.977500", "131126.977500", "131128.977500", "131130.977500", "131132.977500", "131134.977500", "131136.977500", "131138.977500", "131140.977500", "131142.977500", "131144.977500", "131146.977500", "131148.977500", "131150.977500", "131152.977500", "131154.977500", "131156.977500", "131158.977500", "131200.977500", "131202.977500", "131204.977500", "131206.977500", "131208.977500", "131210.977500", "131212.977500", "131214.977500", "131216.977500", "131218.977500", "131220.977500", "131222.977500", "131224.977500", "131226.977500", "131228.977500", "131230.977500", "131232.977500", "131234.977500", "131236.977500", "131238.977500", "131240.977500", "131242.977500", "131244.977500", "131246.977500", "131248.977500", "131250.977500", "131252.977500", "131254.977500", "131256.977500", "131258.977500", "131300.977500", "131302.977500", "131304.977500", "131306.977500", "131308.977500", "131310.977500", "131312.977500", "131314.977500", "131316.977500", "131318.977500", "131320.977500", "131322.977500", "131324.977500", "131326.977500", "131328.977500", "131330.977500", "131332.977500", "131334.977500", "131336.977500", "131338.977500", "131340.977500", "131342.977500", "131344.977500", "131346.977500", "131348.977500", "131350.977500", "131352.977500", "131354.977500", "131356.977500", "131358.977500", "131400.977500", "131402.977500", "131404.977500", "131406.977500", "131408.977500", "131410.977500", "131412.977500", "131414.977500", "131416.977500", "131418.977500", "131420.977500", "131422.977500", "131424.977500", "131426.977500", "131428.977500", "131430.977500", "131432.977500", "131434.977500", "131436.977500", "131438.977500", "131440.977500", "131442.977500", "131444.977500", "131446.977500", "131448.977500", "131450.977500", "131452.977500", "131454.977500", "131456.977500", "131458.977500", "131500.977500", "131502.977500", "131504.977500", "131506.977500", "131508.977500"],
      "ContentTime": ["131001.402000", "131002.897000", "131004.897000", "131006.897000", "131009.398000", "131010.897000", "131013.398000", "131014.898000", "131017.398000", "131018.898000", "131020.898000", "131022.897000", "131024.898000", "131026.898000", "131028.896000", "131030.898000", "131032.897000", "131034.897000", "131036.897000", "131038.898000", "131040.897000", "131042.897000", "131044.897000", "131046.897000", "131049.398000", "131050.898000", "131052.897000", "131055.398000", "131056.898000", "131059.397000", "131100.897000", "131102.898000", "131104.897000", "131106.898000", "131108.898000", "131110.898000", "131112.897000", "131114.898000", "131116.898000", "131119.398000", "131120.897000", "131122.898000", "131124.897000", "131126.897000", "131128.898000", "131130.898000", "131132.897000", "131135.397000", "131136.898000", "131138.896000", "131140.897000", "131142.897000", "131145.398000", "131147.397000", "131148.897000", "131150.898000", "131152.898000", "131154.897000", "131157.396000", "131158.898000", "131200.897000", "131203.398000", "131205.397000", "131206.897000", "131208.897000", "131210.897000", "131212.897000", "131214.896000", "131217.398000", "131219.397000", "131220.898000", "131222.898000", "131224.898000", "131227.397000", "131228.897000", "131230.898000", "131232.897000", "131234.898000", "131236.898000", "131238.897000", "131240.898000", "131242.897000", "131244.898000", "131246.897000", "131248.896000", "131250.897000", "131252.898000", "131254.897000", "131256.897000", "131258.897000", "131300.897000", "131303.397000", "131305.397000", "131307.396000", "131308.897000", "131310.897000", "131312.898000", "131314.898000", "131316.897000", "131318.897000", "131320.897000", "131322.897000", "131324.896000", "131326.897000", "131328.898000", "131331.397000", "131333.398000", "131334.897000", "131336.898000", "131339.397000", "131340.897000", "131342.897000", "131344.897000", "131346.897000", "131348.898000", "131351.398000", "131352.898000", "131354.897000", "131356.897000", "131358.896000", "131400.897000", "131402.898000", "131404.897000", "131406.897000", "131408.897000", "131410.897000", "131412.898000", "131415.398000", "131416.897000", "131418.897000", "131420.897000", "131423.398000", "131425.397000", "131426.898000", "131429.398000", "131430.898000", "131432.897000", "131434.897000", "131436.897000", "131438.897000", "131440.897000", "131442.897000", "131445.397000", "131446.914000", "131448.897000", "131450.897000", "131452.897000", "131454.897000", "131456.897000", "131458.898000", "131501.398000", "131502.898000", "131504.898000", "131506.897000", "131508.897000", "131510.879000"],
      "InstanceCreationTime": ["131001.402000", "131002.897000", "131004.897000", "131006.897000", "131009.398000", "131010.897000", "131013.398000", "131014.898000", "131017.398000", "131018.898000", "131020.898000", "131022.897000", "131024.898000", "131026.898000", "131028.896000", "131030.898000", "131032.897000", "131034.897000", "131036.897000", "131038.898000", "131040.897000", "131042.897000", "131044.897000", "131046.897000", "131049.398000", "131050.898000", "131052.897000", "131055.398000", "131056.898000", "131059.397000", "131100.897000", "131102.898000", "131104.897000", "131106.898000", "131108.898000", "131110.898000", "131112.897000", "131114.898000", "131116.898000", "131119.398000", "131120.897000", "131122.898000", "131124.897000", "131126.897000", "131128.898000", "131130.898000", "131132.897000", "131135.397000", "131136.898000", "131138.896000", "131140.897000", "131142.897000", "131145.398000", "131147.397000", "131148.897000", "131150.898000", "131152.898000", "131154.897000", "131157.396000", "131158.898000", "131200.897000", "131203.398000", "131205.397000", "131206.897000", "131208.897000", "131210.897000", "131212.897000", "131214.896000", "131217.398000", "131219.397000", "131220.898000", "131222.898000", "131224.898000", "131227.397000", "131228.897000", "131230.898000", "131232.897000", "131234.898000", "131236.898000", "131238.897000", "131240.898000", "131242.897000", "131244.898000", "131246.897000", "131248.896000", "131250.897000", "131252.898000", "131254.897000", "131256.897000", "131258.897000", "131300.897000", "131303.397000", "131305.397000", "131307.396000", "131308.897000", "131310.897000", "131312.898000", "131314.898000", "131316.897000", "131318.897000", "131320.897000", "131322.897000", "131324.896000", "131326.897000", "131328.898000", "131331.397000", "131333.398000", "131334.897000", "131336.898000", "131339.397000", "131340.897000", "131342.897000", "131344.897000", "131346.897000", "131348.898000", "131351.398000", "131352.898000", "131354.897000", "131356.897000", "131358.896000", "131400.897000", "131402.898000", "131404.897000", "131406.897000", "131408.897000", "131410.897000", "131412.898000", "131415.398000", "131416.897000", "131418.897000", "131420.897000", "131423.398000", "131425.397000", "131426.898000", "131429.398000", "131430.898000", "131432.897000", "131434.897000", "131436.897000", "131438.897000", "131440.897000", "131442.897000", "131445.397000", "131446.914000", "131448.897000", "131450.897000", "131452.897000", "131454.897000", "131456.897000", "131458.898000", "131501.398000", "131502.898000", "131504.898000", "131506.897000", "131508.897000", "131510.879000"],
      "InstanceNumber": [1, 2, 3, 4, 5, 6, 7, 8, 9, 10, 11, 12, 13, 14, 15, 16, 17, 18, 19, 20, 21, 22, 23, 24, 25, 26, 27, 28, 29, 30, 31, 32, 33, 34, 35, 36, 37, 38, 39, 40, 41, 42, 43, 44, 45, 46, 47, 48, 49, 50, 51, 52, 53, 54, 55, 56, 57, 58, 59, 60, 61, 62, 63, 64, 65, 66, 67, 68, 69, 70, 71, 72, 73, 74, 75, 76, 77, 78, 79, 80, 81, 82, 83, 84, 85, 86, 87, 88, 89, 90, 91, 92, 93, 94, 95, 96, 97, 98, 99, 100, 101, 102, 103, 104, 105, 106, 107, 108, 109, 110, 111, 112, 113, 114, 115, 116, 117, 118, 119, 120, 121, 122, 123, 124, 125, 126, 127, 128, 129, 130, 131, 132, 133, 134, 135, 136, 137, 138, 139, 140, 141, 142, 143, 144, 145, 146, 147, 148, 149, 150, 151, 152, 153, 154, 155, 156],
      "LargestImagePixelValue": [4095, 3976, 3955, 4015, 4059, 3993, 4016, 4016, 4013, 4020, 4061, 4089, 4065, 4095, 4052, 4017, 4095, 4095, 4059, 4065, 4095, 4088, 4066, 4075, 4095, 4095, 4095, 4070, 4095, 4095, 4095, 4088, 4095, 4095, 4095, 4095, 4095, 4095, 4095, 4095, 4095, 4095, 4095, 4095, 4095, 4095, 4095, 4095, 4095, 4095, 4095, 4095, 4095, 4095, 4095, 4095, 4095, 4095, 4095, 4095, 4095, 4095, 4095, 4095, 4095, 4095, 4095, 4095, 4095, 4095, 4095, 4095, 4095, 4095, 4095, 4095, 4095, 4095, 4095, 4095, 4095, 4095, 4095, 4095, 4095, 4095, 4095, 4095, 4095, 4095, 4095, 4095, 4095, 4095, 4095, 4095, 4095, 4095, 4095, 4095, 4095, 4095, 4095, 4095, 4095, 4095, 4095, 4095, 4095, 4095, 4095, 4095, 4095, 4095, 4095, 4095, 4095, 4095, 4095, 4095, 4095, 4095, 4095, 4095, 4095, 4095, 4095, 4095, 4095, 4095, 4095, 4095, 4095, 4095, 4095, 4095, 4095, 4095, 4095, 4095, 4095, 4095, 4095, 4095, 4095, 4095, 4095, 4095, 4095, 4095, 4095, 4095, 4095, 4095, 4095, 4095],
      "WindowCenter": [825.0, 824.0, 825.0, 825.0, 826.0, 824.0, 824.0, 825.0, 825.0, 825.0, 825.0, 825.0, 825.0, 824.0, 823.0, 823.0, 825.0, 825.0, 823.0, 823.0, 823.0, 823.0, 823.0, 823.0, 824.0, 823.0, 823.0, 823.0, 824.0, 823.0, 822.0, 822.0, 824.0, 824.0, 824.0, 825.0, 826.0, 827.0, 826.0, 826.0, 826.0, 826.0, 826.0, 826.0, 826.0, 825.0, 826.0, 826.0, 826.0, 825.0, 825.0, 825.0, 825.0, 825.0, 823.0, 822.0, 824.0, 824.0, 824.0, 824.0, 824.0, 825.0, 826.0, 825.0, 824.0, 823.0, 823.0, 824.0, 825.0, 825.0, 825.0, 825.0, 825.0, 826.0, 826.0, 825.0, 824.0, 823.0, 825.0, 825.0, 825.0, 826.0, 826.0, 825.0, 825.0, 825.0, 826.0, 826.0, 825.0, 824.0, 824.0, 825.0, 826.0, 825.0, 824.0, 825.0, 827.0, 827.0, 827.0, 826.0, 825.0, 824.0, 823.0, 823.0, 823.0, 823.0, 824.0, 825.0, 825.0, 825.0, 825.0, 824.0, 823.0, 824.0, 825.0, 825.0, 824.0, 824.0, 825.0, 826.0, 827.0, 826.0, 825.0, 825.0, 825.0, 825.0, 825.0, 824.0, 825.0, 826.0, 827.0, 826.0, 825.0, 824.0, 824.0, 825.0, 827.0, 826.0, 824.0, 823.0, 823.0, 825.0, 825.0, 824.0, 824.0, 823.0, 824.0, 825.0, 825.0, 824.0, 824.0, 823.0, 825.0, 826.0, 826.0, 826.0],
      "WindowWidth": [1797.0, 1794.0, 1797.0, 1798.0, 1798.0, 1794.0, 1794.0, 1796.0, 1796.0, 1796.0, 1794.0, 1796.0, 1796.0, 1794.0, 1792.0, 1792.0, 1796.0, 1796.0, 1790.0, 1790.0, 1792.0, 1790.0, 1790.0, 1792.0, 1795.0, 1792.0, 1792.0, 1790.0, 1793.0, 1791.0, 1788.0, 1787.0, 1792.0, 1793.0, 1795.0, 1797.0, 1800.0, 1800.0, 1800.0, 1797.0, 1798.0, 1799.0, 1799.0, 1798.0, 1798.0, 1796.0, 1798.0, 1800.0, 1797.0, 1795.0, 1794.0, 1795.0, 1796.0, 1794.0, 1788.0, 1787.0, 1792.0, 1794.0, 1793.0, 1791.0, 1792.0, 1795.0, 1797.0, 1796.0, 1792.0, 1790.0, 1790.0, 1793.0, 1796.0, 1796.0, 1795.0, 1795.0, 1795.0, 1797.0, 1799.0, 1795.0, 1793.0, 1791.0, 1795.0, 1795.0, 1797.0, 1799.0, 1799.0, 1797.0, 1796.0, 1796.0, 1797.0, 1797.0, 1794.0, 1792.0, 1791.0, 1794.0, 1798.0, 1794.0, 1792.0, 1794.0, 1800.0, 1801.0, 1801.0, 1798.0, 1795.0, 1793.0, 1790.0, 1789.0, 1791.0, 1791.0, 1793.0, 1794.0, 1796.0, 1795.0, 1796.0, 1791.0, 1789.0, 1792.0, 1795.0, 1795.0, 1793.0, 1792.0, 1795.0, 1799.0, 1800.0, 1797.0, 1795.0, 1794.0, 1796.0, 1797.0, 1795.0, 1793.0, 1795.0, 1798.0, 1801.0, 1798.0, 1796.0, 1793.0, 1793.0, 1795.0, 1801.0, 1799.0, 1792.0, 1790.0, 1791.0, 1794.0, 1795.0, 1793.0, 1791.0, 1789.0, 1792.0, 1794.0, 1796.0, 1793.0, 1791.0, 1791.0, 1794.0, 1797.0, 1798.0, 1798.0]
    },
    "slices": {}
  }
}