{
  "AcquisitionMatrixPE": 100,
  "AcquisitionNumber": 1,
  "AcquisitionTime": "13:21:26.692500",
  "BandwidthPerPixelPhaseEncode": 18.519,
  "BaseResolution": 100,
  "BodyPartExamined": "BRAIN",
  "CoilCombinationMethod": "Sum of Squares",
  "ConsistencyInfo": "N4_VE11C_LATEST_20160120",
  "ConversionSoftware": "dcm2niix",
  "ConversionSoftwareVersion": "v1.0.20211006",
  "DerivedVendorReportedEchoSpacing": 0.000539986,
  "DeviceSerialNumber": "166078",
  "DwellTime": 2.1e-06,
  "EchoTime": 0.034,
  "EchoTrainLength": 100,
  "EffectiveEchoSpacing": 0.000539986,
  "FlipAngle": 90,
  "ImageOrientationPatientDICOM": [1, 0, 0, 0, 0.982935, -0.183951],
  "ImageOrientationText": "Tra>Cor(-10.6)",
  "ImageType": [
    "ORIGINAL",
    "PRIMARY",
    "M",
    "ND",
    "MOSAIC"
],
  "ImagingFrequency": 123.258,
  "InPlanePhaseEncodingDirectionDICOM": "COL",
  "InstitutionAddress": "Street StreetNo,Bei Jing,District,CN,ZIP",
  "InstitutionName": "BeiJing Normal University",
  "InstitutionalDepartmentName": "Department",
  "MRAcquisitionType": "2D",
  "MagneticFieldStrength": 3,
  "Manufacturer": "Siemens",
  "ManufacturersModelName": "Prisma",
  "Modality": "MR",
  "MultibandAccelerationFactor": 3,
  "PartialFourier": 1,
  "PatientPosition": "HFS",
  "PercentPhaseFOV": 100,
  "PercentSampling": 100,
  "PhaseEncodingDirection": "j-",
  "PhaseEncodingSteps": 100,
  "PhaseResolution": 1,
  "PixelBandwidth": 2380,
  "ProcedureStepDescription": "BNU_P2018_64CH^Zhen.ZongLei",
  "ProtocolName": "bold_100x100_s3_2x2x2_static_156",
  "PulseSequenceDetails": "%SiemensSeq%\\ep2d_bold",
  "ReceiveCoilActiveElements": "HC1-7;NC1",
  "ReceiveCoilName": "HeadNeck_64",
  "ReconMatrixPE": 100,
  "RefLinesPE": 32,
  "RepetitionTime": 2,
  "SAR": 0.0713138,
  "ScanOptions": "FS",
  "ScanningSequence": "EP",
  "SequenceName": "*epfid2d1_100",
  "SequenceVariant": "SK",
  "SeriesDescription": "bold_100x100_s3_2x2x2_static_156",
  "SeriesNumber": 6,
  "ShimSetting": [-5463, -11523, -1210, 272, -54, -382, -114, 33],
  "SliceThickness": 2,
  "SliceTiming": [1.485, 0, 0.99, 0.0825, 1.0725, 0.165, 1.155, 0.2475, 1.2375, 0.33, 1.32, 0.4125, 1.4025, 0.5775, 1.5675, 0.66, 1.65, 0.7425, 1.7325, 0.825, 1.815, 0.9075, 1.8975, 0.495, 1.485, 0, 0.99, 0.0825, 1.0725, 0.165, 1.155, 0.2475, 1.2375, 0.33, 1.32, 0.4125, 1.4025, 0.5775, 1.5675, 0.66, 1.65, 0.7425, 1.7325, 0.825, 1.815, 0.9075, 1.8975, 0.495, 1.485, 0, 0.99, 0.0825, 1.0725, 0.165, 1.155, 0.2475, 1.2375, 0.33, 1.32, 0.4125, 1.4025, 0.5775, 1.5675, 0.66, 1.65, 0.7425, 1.7325, 0.825, 1.815, 0.9075, 1.8975, 0.495],
  "SoftwareVersions": "syngo MR E11",
  "SpacingBetweenSlices": 2,
  "StationName": "AWP166078",
  "TaskName": "action",
  "TotalReadoutTime": 0.0534586,
  "TxRefAmp": 231.784,
  "dcmmeta_affine": [
    [-2.0, 0.0, 0.0, 100.67796325683594],
    [0.0, 1.96587073802948, -0.3679027259349823, -81.28649139404297],
    [0.0, 0.3679027259349823, 1.96587073802948, -70.44034576416016],
    [0.0, 0.0, 0.0, 1.0]
],
  "dcmmeta_reorient_transform": [
    [0.0, -1.0, 0.0, 99.0],
    [1.0, 0.0, 0.0, 0.0],
    [0.0, 0.0, 1.0, 0.0],
    [0.0, 0.0, 0.0, 1.0]
],
  "dcmmeta_shape": [100, 100, 72, 156],
  "dcmmeta_slice_dim": 2,
  "dcmmeta_version": 0.6,
  "global": {
    "const": {
      "AcquisitionMatrix": [100, 0, 0, 100],
      "AngioFlag": "N",
      "BitsAllocated": 16,
      "BitsStored": 12,
      "BodyPartExamined": "BRAIN",
      "Columns": 900,
      "EchoNumbers": 1,
      "EchoTime": 34.0,
      "EchoTrainLength": 100,
      "FlipAngle": 90.0,
      "HighBit": 11,
      "ImageOrientationPatient": [1.0, 0.0, 0.0, 0.0, 0.98293534700206, -0.1839513620878],
      "ImagePositionPatient": [-900.67796611786, -899.68298814414, 113.1431170533],
      "ImageType": [
        "ORIGINAL",
        "PRIMARY",
        "M",
        "ND",
        "MOSAIC"
],
      "ImagedNucleus": "1H",
      "ImagingFrequency": 123.257705,
      "InPlanePhaseEncodingDirection": "COL",
      "MRAcquisitionType": "2D",
      "MagneticFieldStrength": 3.0,
      "Manufacturer": "SIEMENS",
      "ManufacturerModelName": "Prisma",
      "Modality": "MR",
      "NumberOfAverages": 1.0,
      "NumberOfPhaseEncodingSteps": 100,
      "PercentPhaseFieldOfView": 100.0,
      "PercentSampling": 100.0,
      "PerformedProcedureStepStartTime": "125742.017000",
      "PhotometricInterpretation": "MONOCHROME2",
      "PixelBandwidth": 2380.0,
      "PixelRepresentation": 0,
      "PixelSpacing": [2.0, 2.0],
      "ProtocolName": "bold_100x100_s3_2x2x2_static_156",
      "RepetitionTime": 2000.0,
      "Rows": 900,
      "SAR": 0.07131380390722,
      "SamplesPerPixel": 1,
      "ScanOptions": "FS",
      "ScanningSequence": "EP",
      "SequenceName": "*epfid2d1_100",
      "SequenceVariant": "SK",
      "SeriesDescription": "bold_100x100_s3_2x2x2_static_156",
      "SeriesNumber": 6,
      "SeriesTime": "132128.865000",
      "SliceLocation": -54.28554209462,
      "SliceThickness": 2.0,
      "SmallestImagePixelValue": 0,
      "SoftwareVersions": "syngo MR E11",
      "SpacingBetweenSlices": 2.0000000111406,
      "SpecificCharacterSet": "ISO_IR 100",
      "StudyID": "1",
      "StudyTime": "125741.935000",
      "TransmitCoilName": "Body",
      "VariableFlipAngleFlag": "N",
      "WindowCenterWidthExplanation": "Algo1",
      "dBdt": 0.0},
    "slices": {}
  },
  "time": {
    "samples": {
      "AcquisitionNumber": [1, 2, 3, 4, 5, 6, 7, 8, 9, 10, 11, 12, 13, 14, 15, 16, 17, 18, 19, 20, 21, 22, 23, 24, 25, 26, 27, 28, 29, 30, 31, 32, 33, 34, 35, 36, 37, 38, 39, 40, 41, 42, 43, 44, 45, 46, 47, 48, 49, 50, 51, 52, 53, 54, 55, 56, 57, 58, 59, 60, 61, 62, 63, 64, 65, 66, 67, 68, 69, 70, 71, 72, 73, 74, 75, 76, 77, 78, 79, 80, 81, 82, 83, 84, 85, 86, 87, 88, 89, 90, 91, 92, 93, 94, 95, 96, 97, 98, 99, 100, 101, 102, 103, 104, 105, 106, 107, 108, 109, 110, 111, 112, 113, 114, 115, 116, 117, 118, 119, 120, 121, 122, 123, 124, 125, 126, 127, 128, 129, 130, 131, 132, 133, 134, 135, 136, 137, 138, 139, 140, 141, 142, 143, 144, 145, 146, 147, 148, 149, 150, 151, 152, 153, 154, 155, 156],
      "AcquisitionTime": ["132126.692500", "132128.692500", "132130.692500", "132132.692500", "132134.692500", "132136.692500", "132138.692500", "132140.692500", "132142.692500", "132144.692500", "132146.692500", "132148.692500", "132150.692500", "132152.692500", "132154.692500", "132156.692500", "132158.692500", "132200.692500", "132202.692500", "132204.692500", "132206.692500", "132208.692500", "132210.692500", "132212.692500", "132214.692500", "132216.692500", "132218.692500", "132220.692500", "132222.692500", "132224.692500", "132226.692500", "132228.692500", "132230.692500", "132232.692500", "132234.692500", "132236.692500", "132238.692500", "132240.692500", "132242.692500", "132244.692500", "132246.692500", "132248.692500", "132250.692500", "132252.692500", "132254.692500", "132256.692500", "132258.692500", "132300.692500", "132302.692500", "132304.692500", "132306.692500", "132308.692500", "132310.692500", "132312.692500", "132314.692500", "132316.692500", "132318.692500", "132320.692500", "132322.692500", "132324.692500", "132326.692500", "132328.692500", "132330.692500", "132332.692500", "132334.692500", "132336.692500", "132338.692500", "132340.692500", "132342.692500", "132344.692500", "132346.692500", "132348.692500", "132350.692500", "132352.692500", "132354.692500", "132356.692500", "132358.692500", "132400.692500", "132402.692500", "132404.692500", "132406.692500", "132408.692500", "132410.692500", "132412.692500", "132414.692500", "132416.692500", "132418.692500", "132420.692500", "132422.692500", "132424.692500", "132426.692500", "132428.692500", "132430.692500", "132432.692500", "132434.692500", "132436.692500", "132438.692500", "132440.692500", "132442.692500", "132444.692500", "132446.692500", "132448.692500", "132450.692500", "132452.692500", "132454.692500", "132456.692500", "132458.692500", "132500.692500", "132502.692500", "132504.692500", "132506.692500", "132508.692500", "132510.692500", "132512.692500", "132514.692500", "132516.692500", "132518.692500", "132520.692500", "132522.692500", "132524.692500", "132526.692500", "132528.692500", "132530.692500", "132532.692500", "132534.692500", "132536.692500", "132538.692500", "132540.692500", "132542.692500", "132544.692500", "132546.692500", "132548.692500", "132550.692500", "132552.692500", "132554.692500", "132556.692500", "132558.692500", "132600.692500", "132602.692500", "132604.692500", "132606.692500", "132608.692500", "132610.692500", "132612.692500", "132614.692500", "132616.692500", "132618.692500", "132620.692500", "132622.692500", "132624.692500", "132626.692500", "132628.692500", "132630.692500", "132632.692500", "132634.692500", "132636.692500"],
      "ContentTime": ["132128.869000", "132130.365000", "132132.363000", "132134.363000", "132136.364000", "132138.365000", "132140.365000", "132142.365000", "132144.365000", "132146.365000", "132148.364000", "132150.363000", "132152.365000", "132154.365000", "132156.365000", "132158.364000", "132200.365000", "132202.365000", "132204.364000", "132206.364000", "132208.364000", "132210.365000", "132212.364000", "132214.365000", "132216.364000", "132218.364000", "132220.365000", "132222.366000", "132224.365000", "132226.365000", "132228.365000", "132230.365000", "132232.364000", "132234.365000", "132236.364000", "132238.365000", "132240.365000", "132242.364000", "132244.364000", "132246.364000", "132248.365000", "132250.364000", "132252.364000", "132254.365000", "132256.365000", "132258.365000", "132300.364000", "132302.365000", "132304.365000", "132306.365000", "132308.365000", "132310.365000", "132312.365000", "132314.365000", "132316.365000", "132318.363000", "132320.365000", "132322.365000", "132324.364000", "132326.365000", "132328.364000", "132330.365000", "132332.365000", "132334.364000", "132336.363000", "132338.365000", "132340.364000", "132342.365000", "132344.365000", "132346.364000", "132348.364000", "132350.364000", "132352.364000", "132354.364000", "132356.365000", "132358.364000", "132400.364000", "132402.365000", "132404.365000", "132406.365000", "132408.365000", "132410.364000", "132412.364000", "132414.365000", "132416.365000", "132418.365000", "132420.364000", "132422.364000", "132424.364000", "132426.365000", "132428.364000", "132430.365000", "132432.365000", "132434.365000", "132436.365000", "132438.365000", "132440.364000", "132442.365000", "132444.364000", "132446.363000", "132448.364000", "132450.365000", "132452.364000", "132454.365000", "132456.365000", "132458.364000", "132500.365000", "132502.364000", "132504.363000", "132506.364000", "132508.365000", "132510.365000", "132512.365000", "132514.365000", "132516.365000", "132518.364000", "132520.363000", "132522.364000", "132524.364000", "132526.365000", "132528.365000", "132530.365000", "132532.365000", "132534.364000", "132536.365000", "132538.364000", "132540.364000", "132542.365000", "132544.365000", "132546.365000", "132548.365000", "132550.364000", "132552.364000", "132554.364000", "132556.363000", "132558.365000", "132600.365000", "132602.365000", "132604.365000", "132606.365000", "132608.365000", "132610.365000", "132612.364000", "132614.364000", "132616.365000", "132618.365000", "132620.365000", "132622.365000", "132624.365000", "132626.365000", "132628.365000", "132630.364000", "132632.364000", "132634.365000", "132636.365000", "132638.271000"],
      "InstanceCreationTime": ["132128.869000", "132130.365000", "132132.363000", "132134.363000", "132136.364000", "132138.365000", "132140.365000", "132142.365000", "132144.365000", "132146.365000", "132148.364000", "132150.363000", "132152.365000", "132154.365000", "132156.365000", "132158.364000", "132200.365000", "132202.365000", "132204.364000", "132206.364000", "132208.364000", "132210.365000", "132212.364000", "132214.365000", "132216.364000", "132218.364000", "132220.365000", "132222.366000", "132224.365000", "132226.365000", "132228.365000", "132230.365000", "132232.364000", "132234.365000", "132236.364000", "132238.365000", "132240.365000", "132242.364000", "132244.364000", "132246.364000", "132248.365000", "132250.364000", "132252.364000", "132254.365000", "132256.365000", "132258.365000", "132300.364000", "132302.365000", "132304.365000", "132306.365000", "132308.365000", "132310.365000", "132312.365000", "132314.365000", "132316.365000", "132318.363000", "132320.365000", "132322.365000", "132324.364000", "132326.365000", "132328.364000", "132330.365000", "132332.365000", "132334.364000", "132336.363000", "132338.365000", "132340.364000", "132342.365000", "132344.365000", "132346.364000", "132348.364000", "132350.364000", "132352.364000", "132354.364000", "132356.365000", "132358.364000", "132400.364000", "132402.365000", "132404.365000", "132406.365000", "132408.365000", "132410.364000", "132412.364000", "132414.365000", "132416.365000", "132418.365000", "132420.364000", "132422.364000", "132424.364000", "132426.365000", "132428.364000", "132430.365000", "132432.365000", "132434.365000", "132436.365000", "132438.365000", "132440.364000", "132442.365000", "132444.364000", "132446.363000", "132448.364000", "132450.365000", "132452.364000", "132454.365000", "132456.365000", "132458.364000", "132500.365000", "132502.364000", "132504.363000", "132506.364000", "132508.365000", "132510.365000", "132512.365000", "132514.365000", "132516.365000", "132518.364000", "132520.363000", "132522.364000", "132524.364000", "132526.365000", "132528.365000", "132530.365000", "132532.365000", "132534.364000", "132536.365000", "132538.364000", "132540.364000", "132542.365000", "132544.365000", "132546.365000", "132548.365000", "132550.364000", "132552.364000", "132554.364000", "132556.363000", "132558.365000", "132600.365000", "132602.365000", "132604.365000", "132606.365000", "132608.365000", "132610.365000", "132612.364000", "132614.364000", "132616.365000", "132618.365000", "132620.365000", "132622.365000", "132624.365000", "132626.365000", "132628.365000", "132630.364000", "132632.364000", "132634.365000", "132636.365000", "132638.271000"],
      "InstanceNumber": [1, 2, 3, 4, 5, 6, 7, 8, 9, 10, 11, 12, 13, 14, 15, 16, 17, 18, 19, 20, 21, 22, 23, 24, 25, 26, 27, 28, 29, 30, 31, 32, 33, 34, 35, 36, 37, 38, 39, 40, 41, 42, 43, 44, 45, 46, 47, 48, 49, 50, 51, 52, 53, 54, 55, 56, 57, 58, 59, 60, 61, 62, 63, 64, 65, 66, 67, 68, 69, 70, 71, 72, 73, 74, 75, 76, 77, 78, 79, 80, 81, 82, 83, 84, 85, 86, 87, 88, 89, 90, 91, 92, 93, 94, 95, 96, 97, 98, 99, 100, 101, 102, 103, 104, 105, 106, 107, 108, 109, 110, 111, 112, 113, 114, 115, 116, 117, 118, 119, 120, 121, 122, 123, 124, 125, 126, 127, 128, 129, 130, 131, 132, 133, 134, 135, 136, 137, 138, 139, 140, 141, 142, 143, 144, 145, 146, 147, 148, 149, 150, 151, 152, 153, 154, 155, 156],
      "LargestImagePixelValue": [4095, 4095, 4095, 4095, 4095, 4095, 4095, 4095, 4095, 4095, 4095, 4095, 4095, 4095, 4095, 4095, 4095, 4095, 4095, 4095, 4095, 4095, 4095, 4095, 4042, 4020, 3985, 3989, 3932, 3965, 3922, 3859, 3892, 3866, 3949, 3924, 3904, 3881, 3823, 3840, 3808, 3748, 3770, 3786, 3789, 3776, 3802, 3790, 3808, 3812, 3780, 3826, 3805, 3844, 3799, 3784, 3790, 3798, 3794, 3768, 3807, 3821, 3790, 3833, 3791, 3832, 3822, 3794, 3820, 3827, 3813, 3820, 3837, 3834, 3838, 3827, 3813, 3792, 3814, 3786, 3827, 3782, 3833, 3814, 3831, 3878, 3840, 3853, 3882, 3840, 3912, 3869, 3901, 3906, 3902, 3936, 3878, 3932, 3953, 3931, 3934, 3908, 3927, 3906, 3901, 3897, 3857, 3896, 3862, 3873, 3916, 3928, 3935, 3953, 3893, 3873, 3903, 3927, 3921, 3932, 3960, 3933, 3905, 3938, 3928, 3898, 3921, 3904, 3916, 3906, 3943, 3931, 3932, 3939, 3898, 3870, 3865, 3906, 3976, 3954, 3944, 3926, 3893, 3930, 3890, 3913, 3976, 3958, 3940, 3926, 3986, 3980, 3942, 3970, 3959, 3977],
      "WindowCenter": [828.0, 827.0, 829.0, 829.0, 829.0, 828.0, 826.0, 826.0, 826.0, 828.0, 828.0, 828.0, 827.0, 827.0, 827.0, 827.0, 827.0, 827.0, 827.0, 827.0, 827.0, 828.0, 829.0, 830.0, 831.0, 831.0, 829.0, 828.0, 828.0, 828.0, 828.0, 827.0, 827.0, 828.0, 827.0, 826.0, 826.0, 826.0, 826.0, 825.0, 825.0, 824.0, 823.0, 824.0, 827.0, 827.0, 826.0, 825.0, 826.0, 827.0, 827.0, 826.0, 826.0, 827.0, 827.0, 826.0, 825.0, 825.0, 826.0, 826.0, 827.0, 827.0, 827.0, 829.0, 829.0, 829.0, 827.0, 827.0, 828.0, 828.0, 828.0, 827.0, 827.0, 827.0, 827.0, 826.0, 825.0, 824.0, 825.0, 826.0, 826.0, 824.0, 825.0, 828.0, 830.0, 830.0, 829.0, 828.0, 831.0, 830.0, 830.0, 828.0, 828.0, 827.0, 828.0, 829.0, 828.0, 828.0, 829.0, 829.0, 829.0, 828.0, 825.0, 825.0, 826.0, 828.0, 828.0, 829.0, 828.0, 829.0, 828.0, 829.0, 831.0, 830.0, 828.0, 826.0, 827.0, 826.0, 825.0, 825.0, 826.0, 827.0, 827.0, 827.0, 828.0, 829.0, 829.0, 828.0, 828.0, 828.0, 829.0, 828.0, 827.0, 828.0, 829.0, 829.0, 827.0, 826.0, 827.0, 827.0, 827.0, 826.0, 825.0, 824.0, 825.0, 828.0, 831.0, 830.0, 828.0, 827.0, 828.0, 829.0, 827.0, 827.0, 829.0, 829.0],
      "WindowWidth": [1802.0, 1801.0, 1805.0, 1806.0, 1804.0, 1801.0, 1797.0, 1797.0, 1798.0, 1801.0, 1803.0, 1800.0, 1800.0, 1799.0, 1801.0, 1800.0, 1800.0, 1799.0, 1798.0, 1798.0, 1800.0, 1802.0, 1806.0, 1808.0, 1810.0, 1810.0, 1805.0, 1800.0, 1801.0, 1801.0, 1801.0, 1799.0, 1800.0, 1800.0, 1800.0, 1795.0, 1795.0, 1795.0, 1796.0, 1794.0, 1793.0, 1789.0, 1789.0, 1791.0, 1797.0, 1797.0, 1795.0, 1793.0, 1796.0, 1799.0, 1798.0, 1796.0, 1796.0, 1800.0, 1799.0, 1796.0, 1793.0, 1792.0, 1795.0, 1796.0, 1797.0, 1798.0, 1799.0, 1802.0, 1803.0, 1804.0, 1800.0, 1799.0, 1802.0, 1802.0, 1800.0, 1798.0, 1799.0, 1798.0, 1799.0, 1795.0, 1793.0, 1790.0, 1794.0, 1796.0, 1795.0, 1791.0, 1793.0, 1800.0, 1804.0, 1805.0, 1801.0, 1801.0, 1808.0, 1806.0, 1804.0, 1799.0, 1800.0, 1799.0, 1802.0, 1805.0, 1801.0, 1800.0, 1803.0, 1804.0, 1805.0, 1800.0, 1794.0, 1791.0, 1796.0, 1800.0, 1800.0, 1802.0, 1802.0, 1803.0, 1802.0, 1805.0, 1809.0, 1807.0, 1801.0, 1796.0, 1797.0, 1794.0, 1792.0, 1792.0, 1795.0, 1798.0, 1798.0, 1799.0, 1802.0, 1804.0, 1803.0, 1800.0, 1800.0, 1801.0, 1804.0, 1800.0, 1799.0, 1800.0, 1804.0, 1803.0, 1798.0, 1796.0, 1797.0, 1797.0, 1798.0, 1795.0, 1792.0, 1791.0, 1792.0, 1800.0, 1807.0, 1806.0, 1800.0, 1798.0, 1801.0, 1802.0, 1798.0, 1799.0, 1802.0, 1805.0]
    },
    "slices": {}
  }
}