{
  "AcquisitionMatrixPE": 100,
  "AcquisitionNumber": 1,
  "AcquisitionTime": "13:32:58.762500",
  "BandwidthPerPixelPhaseEncode": 18.519,
  "BaseResolution": 100,
  "BodyPartExamined": "BRAIN",
  "CoilCombinationMethod": "Sum of Squares",
  "ConsistencyInfo": "N4_VE11C_LATEST_20160120",
  "ConversionSoftware": "dcm2niix",
  "ConversionSoftwareVersion": "v1.0.20211006",
  "DerivedVendorReportedEchoSpacing": 0.000539986,
  "DeviceSerialNumber": "166078",
  "DwellTime": 2.1e-06,
  "EchoTime": 0.034,
  "EchoTrainLength": 100,
  "EffectiveEchoSpacing": 0.000539986,
  "FlipAngle": 90,
  "ImageOrientationPatientDICOM": [1, 0, 0, 0, 0.982935, -0.183951],
  "ImageOrientationText": "Tra>Cor(-10.6)",
  "ImageType": [
    "ORIGINAL",
    "PRIMARY",
    "M",
    "ND",
    "MOSAIC"
],
  "ImagingFrequency": 123.258,
  "InPlanePhaseEncodingDirectionDICOM": "COL",
  "InstitutionAddress": "Street StreetNo,Bei Jing,District,CN,ZIP",
  "InstitutionName": "BeiJing Normal University",
  "InstitutionalDepartmentName": "Department",
  "MRAcquisitionType": "2D",
  "MagneticFieldStrength": 3,
  "Manufacturer": "Siemens",
  "ManufacturersModelName": "Prisma",
  "Modality": "MR",
  "MultibandAccelerationFactor": 3,
  "PartialFourier": 1,
  "PatientPosition": "HFS",
  "PercentPhaseFOV": 100,
  "PercentSampling": 100,
  "PhaseEncodingDirection": "j-",
  "PhaseEncodingSteps": 100,
  "PhaseResolution": 1,
  "PixelBandwidth": 2380,
  "ProcedureStepDescription": "BNU_P2018_64CH^Zhen.ZongLei",
  "ProtocolName": "bold_100x100_s3_2x2x2_static_156",
  "PulseSequenceDetails": "%SiemensSeq%\\ep2d_bold",
  "ReceiveCoilActiveElements": "HC1-7;NC1",
  "ReceiveCoilName": "HeadNeck_64",
  "ReconMatrixPE": 100,
  "RefLinesPE": 32,
  "RepetitionTime": 2,
  "SAR": 0.0713138,
  "ScanOptions": "FS",
  "ScanningSequence": "EP",
  "SequenceName": "*epfid2d1_100",
  "SequenceVariant": "SK",
  "SeriesDescription": "bold_100x100_s3_2x2x2_static_156",
  "SeriesNumber": 8,
  "ShimSetting": [-5463, -11523, -1210, 272, -54, -382, -114, 33],
  "SliceThickness": 2,
  "SliceTiming": [1.485, 0, 0.99, 0.0825, 1.0725, 0.165, 1.155, 0.2475, 1.2375, 0.33, 1.32, 0.4125, 1.4025, 0.5775, 1.5675, 0.66, 1.65, 0.7425, 1.7325, 0.825, 1.815, 0.9075, 1.8975, 0.495, 1.485, 0, 0.99, 0.0825, 1.0725, 0.165, 1.155, 0.2475, 1.2375, 0.33, 1.32, 0.4125, 1.4025, 0.5775, 1.5675, 0.66, 1.65, 0.7425, 1.7325, 0.825, 1.815, 0.9075, 1.8975, 0.495, 1.485, 0, 0.99, 0.0825, 1.0725, 0.165, 1.155, 0.2475, 1.2375, 0.33, 1.32, 0.4125, 1.4025, 0.5775, 1.5675, 0.66, 1.65, 0.7425, 1.7325, 0.825, 1.815, 0.9075, 1.8975, 0.495],
  "SoftwareVersions": "syngo MR E11",
  "SpacingBetweenSlices": 2,
  "StationName": "AWP166078",
  "TaskName": "action",
  "TotalReadoutTime": 0.0534586,
  "TxRefAmp": 231.784,
  "dcmmeta_affine": [
    [-2.0, 0.0, 0.0, 100.67796325683594],
    [0.0, 1.96587073802948, -0.3679027259349823, -81.28649139404297],
    [0.0, 0.3679027259349823, 1.96587073802948, -70.44034576416016],
    [0.0, 0.0, 0.0, 1.0]
],
  "dcmmeta_reorient_transform": [
    [0.0, -1.0, 0.0, 99.0],
    [1.0, 0.0, 0.0, 0.0],
    [0.0, 0.0, 1.0, 0.0],
    [0.0, 0.0, 0.0, 1.0]
],
  "dcmmeta_shape": [100, 100, 72, 156],
  "dcmmeta_slice_dim": 2,
  "dcmmeta_version": 0.6,
  "global": {
    "const": {
      "AcquisitionMatrix": [100, 0, 0, 100],
      "AngioFlag": "N",
      "BitsAllocated": 16,
      "BitsStored": 12,
      "BodyPartExamined": "BRAIN",
      "Columns": 900,
      "EchoNumbers": 1,
      "EchoTime": 34.0,
      "EchoTrainLength": 100,
      "FlipAngle": 90.0,
      "HighBit": 11,
      "ImageOrientationPatient": [1.0, 0.0, 0.0, 0.0, 0.98293534700206, -0.1839513620878],
      "ImagePositionPatient": [-900.67796611786, -899.68298814414, 113.1431170533],
      "ImageType": [
        "ORIGINAL",
        "PRIMARY",
        "M",
        "ND",
        "MOSAIC"
],
      "ImagedNucleus": "1H",
      "ImagingFrequency": 123.257707,
      "InPlanePhaseEncodingDirection": "COL",
      "MRAcquisitionType": "2D",
      "MagneticFieldStrength": 3.0,
      "Manufacturer": "SIEMENS",
      "ManufacturerModelName": "Prisma",
      "Modality": "MR",
      "NumberOfAverages": 1.0,
      "NumberOfPhaseEncodingSteps": 100,
      "PercentPhaseFieldOfView": 100.0,
      "PercentSampling": 100.0,
      "PerformedProcedureStepStartTime": "125742.017000",
      "PhotometricInterpretation": "MONOCHROME2",
      "PixelBandwidth": 2380.0,
      "PixelRepresentation": 0,
      "PixelSpacing": [2.0, 2.0],
      "ProtocolName": "bold_100x100_s3_2x2x2_static_156",
      "RepetitionTime": 2000.0,
      "Rows": 900,
      "SAR": 0.07131380390722,
      "SamplesPerPixel": 1,
      "ScanOptions": "FS",
      "ScanningSequence": "EP",
      "SequenceName": "*epfid2d1_100",
      "SequenceVariant": "SK",
      "SeriesDescription": "bold_100x100_s3_2x2x2_static_156",
      "SeriesNumber": 8,
      "SeriesTime": "133301.502000",
      "SliceLocation": -54.28554209462,
      "SliceThickness": 2.0,
      "SmallestImagePixelValue": 0,
      "SoftwareVersions": "syngo MR E11",
      "SpacingBetweenSlices": 2.0000000111406,
      "SpecificCharacterSet": "ISO_IR 100",
      "StudyID": "1",
      "StudyTime": "125741.935000",
      "TransmitCoilName": "Body",
      "VariableFlipAngleFlag": "N",
      "WindowCenterWidthExplanation": "Algo1",
      "dBdt": 0.0},
    "slices": {}
  },
  "time": {
    "samples": {
      "AcquisitionNumber": [1, 2, 3, 4, 5, 6, 7, 8, 9, 10, 11, 12, 13, 14, 15, 16, 17, 18, 19, 20, 21, 22, 23, 24, 25, 26, 27, 28, 29, 30, 31, 32, 33, 34, 35, 36, 37, 38, 39, 40, 41, 42, 43, 44, 45, 46, 47, 48, 49, 50, 51, 52, 53, 54, 55, 56, 57, 58, 59, 60, 61, 62, 63, 64, 65, 66, 67, 68, 69, 70, 71, 72, 73, 74, 75, 76, 77, 78, 79, 80, 81, 82, 83, 84, 85, 86, 87, 88, 89, 90, 91, 92, 93, 94, 95, 96, 97, 98, 99, 100, 101, 102, 103, 104, 105, 106, 107, 108, 109, 110, 111, 112, 113, 114, 115, 116, 117, 118, 119, 120, 121, 122, 123, 124, 125, 126, 127, 128, 129, 130, 131, 132, 133, 134, 135, 136, 137, 138, 139, 140, 141, 142, 143, 144, 145, 146, 147, 148, 149, 150, 151, 152, 153, 154, 155, 156],
      "AcquisitionTime": ["133258.762500", "133300.762500", "133302.762500", "133304.762500", "133306.762500", "133308.762500", "133310.762500", "133312.762500", "133314.762500", "133316.762500", "133318.762500", "133320.762500", "133322.762500", "133324.762500", "133326.762500", "133328.762500", "133330.762500", "133332.762500", "133334.762500", "133336.762500", "133338.762500", "133340.762500", "133342.762500", "133344.762500", "133346.762500", "133348.762500", "133350.762500", "133352.762500", "133354.762500", "133356.762500", "133358.762500", "133400.762500", "133402.762500", "133404.762500", "133406.762500", "133408.762500", "133410.762500", "133412.762500", "133414.762500", "133416.762500", "133418.762500", "133420.762500", "133422.762500", "133424.762500", "133426.762500", "133428.762500", "133430.762500", "133432.762500", "133434.762500", "133436.762500", "133438.762500", "133440.762500", "133442.762500", "133444.762500", "133446.762500", "133448.762500", "133450.762500", "133452.762500", "133454.762500", "133456.762500", "133458.762500", "133500.762500", "133502.762500", "133504.762500", "133506.762500", "133508.762500", "133510.762500", "133512.762500", "133514.762500", "133516.762500", "133518.762500", "133520.762500", "133522.762500", "133524.762500", "133526.762500", "133528.762500", "133530.762500", "133532.762500", "133534.762500", "133536.762500", "133538.762500", "133540.762500", "133542.762500", "133544.762500", "133546.762500", "133548.762500", "133550.762500", "133552.762500", "133554.762500", "133556.762500", "133558.762500", "133600.762500", "133602.762500", "133604.762500", "133606.762500", "133608.762500", "133610.762500", "133612.762500", "133614.762500", "133616.762500", "133618.762500", "133620.762500", "133622.762500", "133624.762500", "133626.762500", "133628.762500", "133630.762500", "133632.762500", "133634.762500", "133636.762500", "133638.762500", "133640.762500", "133642.762500", "133644.762500", "133646.762500", "133648.762500", "133650.762500", "133652.762500", "133654.762500", "133656.762500", "133658.762500", "133700.762500", "133702.762500", "133704.762500", "133706.762500", "133708.762500", "133710.762500", "133712.762500", "133714.762500", "133716.762500", "133718.762500", "133720.762500", "133722.762500", "133724.762500", "133726.762500", "133728.762500", "133730.762500", "133732.762500", "133734.762500", "133736.762500", "133738.762500", "133740.762500", "133742.762500", "133744.762500", "133746.762500", "133748.762500", "133750.762500", "133752.762500", "133754.762500", "133756.762500", "133758.762500", "133800.762500", "133802.762500", "133804.762500", "133806.762500", "133808.762500"],
      "ContentTime": ["133301.505000", "133303.000000", "133305.000000", "133306.998000", "133309.000000", "133310.998000", "133313.000000", "133315.000000", "133317.000000", "133319.000000", "133320.998000", "133322.998000", "133324.998000", "133326.998000", "133329.000000", "133331.000000", "133333.000000", "133335.000000", "133336.998000", "133339.000000", "133341.000000", "133343.000000", "133344.998000", "133346.998000", "133348.999000", "133351.000000", "133353.001000", "133355.000000", "133356.998000", "133358.998000", "133401.000000", "133403.000000", "133405.000000", "133407.000000", "133409.000000", "133411.001000", "133413.000000", "133414.998000", "133417.018000", "133419.000000", "133421.000000", "133423.000000", "133425.001000", "133427.000000", "133429.001000", "133430.998000", "133432.999000", "133434.998000", "133437.000000", "133439.001000", "133441.000000", "133443.001000", "133445.002000", "133447.000000", "133448.998000", "133451.000000", "133452.998000", "133454.998000", "133456.998000", "133458.999000", "133501.000000", "133503.001000", "133504.998000", "133507.000000", "133509.000000", "133511.000000", "133513.000000", "133514.998000", "133517.000000", "133519.001000", "133521.000000", "133522.998000", "133524.998000", "133527.000000", "133528.998000", "133530.998000", "133532.998000", "133535.000000", "133537.000000", "133539.001000", "133541.000000", "133543.000000", "133545.000000", "133546.998000", "133548.998000", "133550.998000", "133553.000000", "133555.001000", "133556.998000", "133559.000000", "133601.000000", "133603.000000", "133604.998000", "133606.998000", "133609.000000", "133611.000000", "133613.001000", "133614.998000", "133617.000000", "133619.000000", "133620.998000", "133622.998000", "133625.000000", "133627.000000", "133629.001000", "133631.001000", "133633.000000", "133635.000000", "133637.000000", "133639.000000", "133641.000000", "133643.000000", "133645.001000", "133647.001000", "133649.000000", "133650.998000", "133653.000000", "133654.998000", "133657.000000", "133658.998000", "133700.998000", "133703.000000", "133705.000000", "133707.000000", "133709.000000", "133710.999000", "133713.000000", "133714.998000", "133717.000000", "133719.000000", "133721.000000", "133723.001000", "133725.000000", "133727.000000", "133728.998000", "133731.000000", "133733.000000", "133735.000000", "133736.999000", "133739.001000", "133741.000000", "133743.000000", "133744.998000", "133746.998000", "133748.998000", "133750.998000", "133753.000000", "133755.001000", "133757.001000", "133759.000000", "133801.000000", "133803.000000", "133805.000000", "133806.998000", "133808.998000", "133811.023000"],
      "InstanceCreationTime": ["133301.505000", "133303.000000", "133305.000000", "133306.998000", "133309.000000", "133310.998000", "133313.000000", "133315.000000", "133317.000000", "133319.000000", "133320.998000", "133322.998000", "133324.998000", "133326.998000", "133329.000000", "133331.000000", "133333.000000", "133335.000000", "133336.998000", "133339.000000", "133341.000000", "133343.000000", "133344.998000", "133346.998000", "133348.999000", "133351.000000", "133353.001000", "133355.000000", "133356.998000", "133358.998000", "133401.000000", "133403.000000", "133405.000000", "133407.000000", "133409.000000", "133411.001000", "133413.000000", "133414.998000", "133417.018000", "133419.000000", "133421.000000", "133423.000000", "133425.001000", "133427.000000", "133429.001000", "133430.998000", "133432.999000", "133434.998000", "133437.000000", "133439.001000", "133441.000000", "133443.001000", "133445.002000", "133447.000000", "133448.998000", "133451.000000", "133452.998000", "133454.998000", "133456.998000", "133458.999000", "133501.000000", "133503.001000", "133504.998000", "133507.000000", "133509.000000", "133511.000000", "133513.000000", "133514.998000", "133517.000000", "133519.001000", "133521.000000", "133522.998000", "133524.998000", "133527.000000", "133528.998000", "133530.998000", "133532.998000", "133535.000000", "133537.000000", "133539.001000", "133541.000000", "133543.000000", "133545.000000", "133546.998000", "133548.998000", "133550.998000", "133553.000000", "133555.001000", "133556.998000", "133559.000000", "133601.000000", "133603.000000", "133604.998000", "133606.998000", "133609.000000", "133611.000000", "133613.001000", "133614.998000", "133617.000000", "133619.000000", "133620.998000", "133622.998000", "133625.000000", "133627.000000", "133629.001000", "133631.001000", "133633.000000", "133635.000000", "133637.000000", "133639.000000", "133641.000000", "133643.000000", "133645.001000", "133647.001000", "133649.000000", "133650.998000", "133653.000000", "133654.998000", "133657.000000", "133658.998000", "133700.998000", "133703.000000", "133705.000000", "133707.000000", "133709.000000", "133710.999000", "133713.000000", "133714.998000", "133717.000000", "133719.000000", "133721.000000", "133723.001000", "133725.000000", "133727.000000", "133728.998000", "133731.000000", "133733.000000", "133735.000000", "133736.999000", "133739.001000", "133741.000000", "133743.000000", "133744.998000", "133746.998000", "133748.998000", "133750.998000", "133753.000000", "133755.001000", "133757.001000", "133759.000000", "133801.000000", "133803.000000", "133805.000000", "133806.998000", "133808.998000", "133811.023000"],
      "InstanceNumber": [1, 2, 3, 4, 5, 6, 7, 8, 9, 10, 11, 12, 13, 14, 15, 16, 17, 18, 19, 20, 21, 22, 23, 24, 25, 26, 27, 28, 29, 30, 31, 32, 33, 34, 35, 36, 37, 38, 39, 40, 41, 42, 43, 44, 45, 46, 47, 48, 49, 50, 51, 52, 53, 54, 55, 56, 57, 58, 59, 60, 61, 62, 63, 64, 65, 66, 67, 68, 69, 70, 71, 72, 73, 74, 75, 76, 77, 78, 79, 80, 81, 82, 83, 84, 85, 86, 87, 88, 89, 90, 91, 92, 93, 94, 95, 96, 97, 98, 99, 100, 101, 102, 103, 104, 105, 106, 107, 108, 109, 110, 111, 112, 113, 114, 115, 116, 117, 118, 119, 120, 121, 122, 123, 124, 125, 126, 127, 128, 129, 130, 131, 132, 133, 134, 135, 136, 137, 138, 139, 140, 141, 142, 143, 144, 145, 146, 147, 148, 149, 150, 151, 152, 153, 154, 155, 156],
      "LargestImagePixelValue": [3922, 3939, 3917, 3916, 3900, 3838, 3836, 3789, 3825, 3804, 3790, 3736, 3790, 3865, 3798, 3847, 3787, 3904, 3848, 3874, 3843, 3846, 3945, 3902, 3814, 3928, 3861, 3854, 3833, 3852, 3877, 3888, 3875, 3890, 3894, 3935, 3926, 3898, 3934, 3907, 3903, 3855, 3898, 3782, 3702, 3600, 3732, 3675, 3847, 3733, 3873, 3718, 3821, 3845, 3858, 3902, 3886, 3840, 3845, 3815, 3854, 3871, 4008, 3776, 3827, 3891, 3729, 4041, 3993, 3992, 3935, 3904, 3927, 3925, 3933, 3927, 3905, 3916, 3892, 3916, 3908, 3894, 3805, 3917, 3863, 3885, 3846, 3964, 3877, 3803, 3887, 3908, 3882, 3850, 3903, 3914, 3834, 3879, 3913, 3852, 3751, 3739, 3778, 3770, 3758, 3799, 3789, 3769, 3788, 3786, 3769, 3794, 3802, 3900, 3803, 3812, 3727, 3851, 3794, 3820, 3871, 3876, 3839, 3842, 3799, 3881, 3826, 3825, 3830, 3813, 3824, 3844, 3851, 3846, 3856, 3854, 3868, 3794, 3791, 3883, 3935, 3923, 3963, 3879, 3957, 3917, 3938, 3900, 3783, 3848, 3894, 3926, 3898, 3917, 3834, 3880],
      "WindowCenter": [827.0, 827.0, 828.0, 827.0, 826.0, 826.0, 827.0, 827.0, 827.0, 826.0, 826.0, 826.0, 827.0, 829.0, 829.0, 827.0, 827.0, 829.0, 829.0, 829.0, 829.0, 828.0, 826.0, 825.0, 824.0, 824.0, 822.0, 823.0, 824.0, 826.0, 827.0, 827.0, 827.0, 828.0, 830.0, 830.0, 831.0, 829.0, 828.0, 828.0, 828.0, 826.0, 825.0, 820.0, 822.0, 820.0, 824.0, 822.0, 821.0, 818.0, 821.0, 821.0, 823.0, 824.0, 826.0, 828.0, 828.0, 826.0, 825.0, 829.0, 830.0, 828.0, 829.0, 828.0, 830.0, 829.0, 826.0, 827.0, 827.0, 824.0, 823.0, 824.0, 825.0, 826.0, 827.0, 830.0, 831.0, 831.0, 831.0, 832.0, 833.0, 833.0, 832.0, 831.0, 831.0, 829.0, 831.0, 833.0, 830.0, 826.0, 826.0, 828.0, 829.0, 829.0, 829.0, 828.0, 828.0, 828.0, 830.0, 828.0, 826.0, 824.0, 825.0, 826.0, 829.0, 829.0, 828.0, 828.0, 830.0, 829.0, 827.0, 826.0, 826.0, 829.0, 829.0, 828.0, 826.0, 826.0, 826.0, 826.0, 828.0, 828.0, 827.0, 826.0, 826.0, 827.0, 826.0, 826.0, 825.0, 824.0, 824.0, 826.0, 828.0, 828.0, 826.0, 824.0, 823.0, 822.0, 824.0, 828.0, 827.0, 827.0, 828.0, 829.0, 828.0, 827.0, 826.0, 826.0, 825.0, 826.0, 826.0, 825.0, 825.0, 826.0, 826.0, 827.0],
      "WindowWidth": [1796.0, 1797.0, 1798.0, 1795.0, 1794.0, 1793.0, 1795.0, 1795.0, 1795.0, 1793.0, 1792.0, 1791.0, 1795.0, 1799.0, 1799.0, 1797.0, 1796.0, 1800.0, 1800.0, 1802.0, 1801.0, 1798.0, 1792.0, 1787.0, 1785.0, 1785.0, 1781.0, 1784.0, 1787.0, 1792.0, 1795.0, 1794.0, 1794.0, 1798.0, 1802.0, 1804.0, 1805.0, 1800.0, 1798.0, 1796.0, 1796.0, 1793.0, 1791.0, 1775.0, 1779.0, 1774.0, 1784.0, 1780.0, 1776.0, 1769.0, 1776.0, 1777.0, 1784.0, 1787.0, 1792.0, 1797.0, 1797.0, 1791.0, 1787.0, 1799.0, 1803.0, 1796.0, 1799.0, 1796.0, 1801.0, 1797.0, 1788.0, 1794.0, 1792.0, 1784.0, 1781.0, 1785.0, 1788.0, 1790.0, 1794.0, 1802.0, 1805.0, 1804.0, 1803.0, 1807.0, 1809.0, 1809.0, 1805.0, 1805.0, 1804.0, 1800.0, 1805.0, 1810.0, 1801.0, 1791.0, 1791.0, 1796.0, 1800.0, 1798.0, 1798.0, 1796.0, 1795.0, 1797.0, 1801.0, 1795.0, 1789.0, 1785.0, 1787.0, 1791.0, 1798.0, 1800.0, 1795.0, 1797.0, 1802.0, 1798.0, 1792.0, 1789.0, 1790.0, 1798.0, 1799.0, 1796.0, 1790.0, 1790.0, 1789.0, 1790.0, 1795.0, 1796.0, 1794.0, 1790.0, 1789.0, 1792.0, 1791.0, 1789.0, 1786.0, 1783.0, 1784.0, 1789.0, 1795.0, 1794.0, 1789.0, 1785.0, 1782.0, 1781.0, 1786.0, 1794.0, 1795.0, 1793.0, 1798.0, 1798.0, 1797.0, 1793.0, 1790.0, 1790.0, 1788.0, 1790.0, 1790.0, 1788.0, 1788.0, 1791.0, 1791.0, 1792.0]
    },
    "slices": {}
  }
}