{
  "AcquisitionMatrixPE": 100,
  "AcquisitionNumber": 1,
  "AcquisitionTime": "13:59:12.712500",
  "BandwidthPerPixelPhaseEncode": 18.519,
  "BaseResolution": 100,
  "BodyPartExamined": "BRAIN",
  "CoilCombinationMethod": "Sum of Squares",
  "ConsistencyInfo": "N4_VE11C_LATEST_20160120",
  "ConversionSoftware": "dcm2niix",
  "ConversionSoftwareVersion": "v1.0.20211006",
  "DerivedVendorReportedEchoSpacing": 0.000539986,
  "DeviceSerialNumber": "166078",
  "DwellTime": 2.1e-06,
  "EchoTime": 0.034,
  "EchoTrainLength": 100,
  "EffectiveEchoSpacing": 0.000539986,
  "FlipAngle": 90,
  "ImageOrientationPatientDICOM": [1, 0, 0, 0, 0.982935, -0.183951],
  "ImageOrientationText": "Tra>Cor(-10.6)",
  "ImageType": [
    "ORIGINAL",
    "PRIMARY",
    "M",
    "ND",
    "MOSAIC"
],
  "ImagingFrequency": 123.258,
  "InPlanePhaseEncodingDirectionDICOM": "COL",
  "InstitutionAddress": "Street StreetNo,Bei Jing,District,CN,ZIP",
  "InstitutionName": "BeiJing Normal University",
  "InstitutionalDepartmentName": "Department",
  "MRAcquisitionType": "2D",
  "MagneticFieldStrength": 3,
  "Manufacturer": "Siemens",
  "ManufacturersModelName": "Prisma",
  "Modality": "MR",
  "MultibandAccelerationFactor": 3,
  "PartialFourier": 1,
  "PatientPosition": "HFS",
  "PercentPhaseFOV": 100,
  "PercentSampling": 100,
  "PhaseEncodingDirection": "j-",
  "PhaseEncodingSteps": 100,
  "PhaseResolution": 1,
  "PixelBandwidth": 2380,
  "ProcedureStepDescription": "BNU_P2018_64CH^Zhen.ZongLei",
  "ProtocolName": "bold_100x100_s3_2x2x2_static_156",
  "PulseSequenceDetails": "%SiemensSeq%\\ep2d_bold",
  "ReceiveCoilActiveElements": "HC1-7;NC1",
  "ReceiveCoilName": "HeadNeck_64",
  "ReconMatrixPE": 100,
  "RefLinesPE": 32,
  "RepetitionTime": 2,
  "SAR": 0.0713138,
  "ScanOptions": "FS",
  "ScanningSequence": "EP",
  "SequenceName": "*epfid2d1_100",
  "SequenceVariant": "SK",
  "SeriesDescription": "bold_100x100_s3_2x2x2_static_156",
  "SeriesNumber": 14,
  "ShimSetting": [-5463, -11523, -1210, 272, -54, -382, -114, 33],
  "SliceThickness": 2,
  "SliceTiming": [1.485, 0, 0.99, 0.0825, 1.0725, 0.165, 1.155, 0.2475, 1.2375, 0.33, 1.32, 0.4125, 1.4025, 0.5775, 1.5675, 0.66, 1.65, 0.7425, 1.7325, 0.825, 1.815, 0.9075, 1.8975, 0.495, 1.485, 0, 0.99, 0.0825, 1.0725, 0.165, 1.155, 0.2475, 1.2375, 0.33, 1.32, 0.4125, 1.4025, 0.5775, 1.5675, 0.66, 1.65, 0.7425, 1.7325, 0.825, 1.815, 0.9075, 1.8975, 0.495, 1.485, 0, 0.99, 0.0825, 1.0725, 0.165, 1.155, 0.2475, 1.2375, 0.33, 1.32, 0.4125, 1.4025, 0.5775, 1.5675, 0.66, 1.65, 0.7425, 1.7325, 0.825, 1.815, 0.9075, 1.8975, 0.495],
  "SoftwareVersions": "syngo MR E11",
  "SpacingBetweenSlices": 2,
  "StationName": "AWP166078",
  "TaskName": "action",
  "TotalReadoutTime": 0.0534586,
  "TxRefAmp": 231.784,
  "dcmmeta_affine": [
    [-2.0, 0.0, 0.0, 100.67796325683594],
    [0.0, 1.96587073802948, -0.3679027259349823, -81.28649139404297],
    [0.0, 0.3679027259349823, 1.96587073802948, -70.44034576416016],
    [0.0, 0.0, 0.0, 1.0]
],
  "dcmmeta_reorient_transform": [
    [0.0, -1.0, 0.0, 99.0],
    [1.0, 0.0, 0.0, 0.0],
    [0.0, 0.0, 1.0, 0.0],
    [0.0, 0.0, 0.0, 1.0]
],
  "dcmmeta_shape": [100, 100, 72, 156],
  "dcmmeta_slice_dim": 2,
  "dcmmeta_version": 0.6,
  "global": {
    "const": {
      "AcquisitionMatrix": [100, 0, 0, 100],
      "AngioFlag": "N",
      "BitsAllocated": 16,
      "BitsStored": 12,
      "BodyPartExamined": "BRAIN",
      "Columns": 900,
      "EchoNumbers": 1,
      "EchoTime": 34.0,
      "EchoTrainLength": 100,
      "FlipAngle": 90.0,
      "HighBit": 11,
      "ImageOrientationPatient": [1.0, 0.0, 0.0, 0.0, 0.98293534700206, -0.1839513620878],
      "ImagePositionPatient": [-900.67796611786, -899.68298814414, 113.1431170533],
      "ImageType": [
        "ORIGINAL",
        "PRIMARY",
        "M",
        "ND",
        "MOSAIC"
],
      "ImagedNucleus": "1H",
      "ImagingFrequency": 123.257711,
      "InPlanePhaseEncodingDirection": "COL",
      "MRAcquisitionType": "2D",
      "MagneticFieldStrength": 3.0,
      "Manufacturer": "SIEMENS",
      "ManufacturerModelName": "Prisma",
      "Modality": "MR",
      "NumberOfAverages": 1.0,
      "NumberOfPhaseEncodingSteps": 100,
      "PercentPhaseFieldOfView": 100.0,
      "PercentSampling": 100.0,
      "PerformedProcedureStepStartTime": "125742.017000",
      "PhotometricInterpretation": "MONOCHROME2",
      "PixelBandwidth": 2380.0,
      "PixelRepresentation": 0,
      "PixelSpacing": [2.0, 2.0],
      "ProtocolName": "bold_100x100_s3_2x2x2_static_156",
      "RepetitionTime": 2000.0,
      "Rows": 900,
      "SAR": 0.07131380390722,
      "SamplesPerPixel": 1,
      "ScanOptions": "FS",
      "ScanningSequence": "EP",
      "SequenceName": "*epfid2d1_100",
      "SequenceVariant": "SK",
      "SeriesDescription": "bold_100x100_s3_2x2x2_static_156",
      "SeriesNumber": 14,
      "SeriesTime": "135915.473000",
      "SliceLocation": -54.28554209462,
      "SliceThickness": 2.0,
      "SmallestImagePixelValue": 0,
      "SoftwareVersions": "syngo MR E11",
      "SpacingBetweenSlices": 2.0000000111406,
      "SpecificCharacterSet": "ISO_IR 100",
      "StudyID": "1",
      "StudyTime": "125741.935000",
      "TransmitCoilName": "Body",
      "VariableFlipAngleFlag": "N",
      "WindowCenterWidthExplanation": "Algo1",
      "dBdt": 0.0},
    "slices": {}
  },
  "time": {
    "samples": {
      "AcquisitionNumber": [1, 2, 3, 4, 5, 6, 7, 8, 9, 10, 11, 12, 13, 14, 15, 16, 17, 18, 19, 20, 21, 22, 23, 24, 25, 26, 27, 28, 29, 30, 31, 32, 33, 34, 35, 36, 37, 38, 39, 40, 41, 42, 43, 44, 45, 46, 47, 48, 49, 50, 51, 52, 53, 54, 55, 56, 57, 58, 59, 60, 61, 62, 63, 64, 65, 66, 67, 68, 69, 70, 71, 72, 73, 74, 75, 76, 77, 78, 79, 80, 81, 82, 83, 84, 85, 86, 87, 88, 89, 90, 91, 92, 93, 94, 95, 96, 97, 98, 99, 100, 101, 102, 103, 104, 105, 106, 107, 108, 109, 110, 111, 112, 113, 114, 115, 116, 117, 118, 119, 120, 121, 122, 123, 124, 125, 126, 127, 128, 129, 130, 131, 132, 133, 134, 135, 136, 137, 138, 139, 140, 141, 142, 143, 144, 145, 146, 147, 148, 149, 150, 151, 152, 153, 154, 155, 156],
      "AcquisitionTime": ["135912.712500", "135914.712500", "135916.712500", "135918.712500", "135920.712500", "135922.712500", "135924.712500", "135926.712500", "135928.712500", "135930.712500", "135932.712500", "135934.712500", "135936.712500", "135938.712500", "135940.712500", "135942.712500", "135944.712500", "135946.712500", "135948.712500", "135950.712500", "135952.712500", "135954.712500", "135956.712500", "135958.712500", "140000.712500", "140002.712500", "140004.712500", "140006.712500", "140008.712500", "140010.712500", "140012.712500", "140014.712500", "140016.712500", "140018.712500", "140020.712500", "140022.712500", "140024.712500", "140026.712500", "140028.712500", "140030.712500", "140032.712500", "140034.712500", "140036.712500", "140038.712500", "140040.712500", "140042.712500", "140044.712500", "140046.712500", "140048.712500", "140050.712500", "140052.712500", "140054.712500", "140056.712500", "140058.712500", "140100.712500", "140102.712500", "140104.712500", "140106.712500", "140108.712500", "140110.712500", "140112.712500", "140114.712500", "140116.712500", "140118.712500", "140120.712500", "140122.712500", "140124.712500", "140126.712500", "140128.712500", "140130.712500", "140132.712500", "140134.712500", "140136.712500", "140138.712500", "140140.712500", "140142.712500", "140144.712500", "140146.712500", "140148.712500", "140150.712500", "140152.712500", "140154.712500", "140156.712500", "140158.712500", "140200.712500", "140202.712500", "140204.712500", "140206.712500", "140208.712500", "140210.712500", "140212.712500", "140214.712500", "140216.712500", "140218.712500", "140220.712500", "140222.712500", "140224.712500", "140226.712500", "140228.712500", "140230.712500", "140232.712500", "140234.712500", "140236.712500", "140238.712500", "140240.712500", "140242.712500", "140244.712500", "140246.712500", "140248.712500", "140250.712500", "140252.712500", "140254.712500", "140256.712500", "140258.712500", "140300.712500", "140302.712500", "140304.712500", "140306.712500", "140308.712500", "140310.712500", "140312.712500", "140314.712500", "140316.712500", "140318.712500", "140320.712500", "140322.712500", "140324.712500", "140326.712500", "140328.712500", "140330.712500", "140332.712500", "140334.712500", "140336.712500", "140338.712500", "140340.712500", "140342.712500", "140344.712500", "140346.712500", "140348.712500", "140350.712500", "140352.712500", "140354.712500", "140356.712500", "140358.712500", "140400.712500", "140402.712500", "140404.712500", "140406.712500", "140408.712500", "140410.712500", "140412.712500", "140414.712500", "140416.712500", "140418.712500", "140420.712500", "140422.712500"],
      "ContentTime": ["135915.477000", "135916.973000", "135918.973000", "135920.973000", "135922.972000", "135924.972000", "135926.973000", "135928.972000", "135930.973000", "135932.972000", "135934.973000", "135936.973000", "135938.973000", "135940.973000", "135942.973000", "135944.971000", "135946.973000", "135948.972000", "135950.972000", "135952.972000", "135954.973000", "135956.972000", "135958.972000", "140000.972000", "140002.973000", "140004.972000", "140006.972000", "140008.972000", "140010.973000", "140012.973000", "140014.972000", "140016.973000", "140018.973000", "140020.973000", "140022.972000", "140024.972000", "140026.972000", "140028.972000", "140030.973000", "140032.972000", "140034.973000", "140036.973000", "140038.972000", "140040.973000", "140042.973000", "140044.972000", "140046.972000", "140048.973000", "140050.973000", "140052.972000", "140054.972000", "140056.972000", "140058.973000", "140100.972000", "140102.972000", "140104.973000", "140106.973000", "140108.973000", "140110.973000", "140112.972000", "140114.973000", "140116.972000", "140118.972000", "140120.972000", "140122.972000", "140124.973000", "140126.972000", "140128.972000", "140130.973000", "140132.973000", "140134.972000", "140136.972000", "140138.973000", "140140.972000", "140142.973000", "140144.973000", "140146.972000", "140148.972000", "140150.972000", "140152.973000", "140154.973000", "140156.973000", "140158.973000", "140200.972000", "140202.973000", "140204.973000", "140206.973000", "140208.972000", "140210.973000", "140212.972000", "140214.973000", "140216.973000", "140218.973000", "140220.973000", "140222.972000", "140224.972000", "140226.972000", "140228.972000", "140230.972000", "140232.973000", "140234.973000", "140236.973000", "140238.973000", "140240.972000", "140242.972000", "140244.972000", "140246.973000", "140248.972000", "140250.972000", "140252.972000", "140254.972000", "140256.973000", "140258.973000", "140300.973000", "140302.973000", "140304.973000", "140306.973000", "140308.973000", "140310.973000", "140312.973000", "140314.973000", "140316.987000", "140318.973000", "140320.973000", "140322.972000", "140324.973000", "140326.973000", "140328.973000", "140330.972000", "140332.973000", "140334.973000", "140336.972000", "140338.973000", "140340.973000", "140342.972000", "140344.973000", "140346.973000", "140348.973000", "140350.972000", "140352.973000", "140354.973000", "140356.973000", "140358.973000", "140400.973000", "140402.973000", "140404.973000", "140406.973000", "140408.972000", "140410.973000", "140412.972000", "140414.973000", "140416.972000", "140418.973000", "140420.973000", "140422.973000", "140424.728000"],
      "InstanceCreationTime": ["135915.477000", "135916.973000", "135918.973000", "135920.973000", "135922.972000", "135924.972000", "135926.973000", "135928.972000", "135930.973000", "135932.972000", "135934.973000", "135936.973000", "135938.973000", "135940.973000", "135942.973000", "135944.971000", "135946.973000", "135948.972000", "135950.972000", "135952.972000", "135954.973000", "135956.972000", "135958.972000", "140000.972000", "140002.973000", "140004.972000", "140006.972000", "140008.972000", "140010.973000", "140012.973000", "140014.972000", "140016.973000", "140018.973000", "140020.973000", "140022.972000", "140024.972000", "140026.972000", "140028.972000", "140030.973000", "140032.972000", "140034.973000", "140036.973000", "140038.972000", "140040.973000", "140042.973000", "140044.972000", "140046.972000", "140048.973000", "140050.973000", "140052.972000", "140054.972000", "140056.972000", "140058.973000", "140100.972000", "140102.972000", "140104.973000", "140106.973000", "140108.973000", "140110.973000", "140112.972000", "140114.973000", "140116.972000", "140118.972000", "140120.972000", "140122.972000", "140124.973000", "140126.972000", "140128.972000", "140130.973000", "140132.973000", "140134.972000", "140136.972000", "140138.973000", "140140.972000", "140142.973000", "140144.973000", "140146.972000", "140148.972000", "140150.972000", "140152.973000", "140154.973000", "140156.973000", "140158.973000", "140200.972000", "140202.973000", "140204.973000", "140206.973000", "140208.972000", "140210.973000", "140212.972000", "140214.973000", "140216.973000", "140218.973000", "140220.973000", "140222.972000", "140224.972000", "140226.972000", "140228.972000", "140230.972000", "140232.973000", "140234.973000", "140236.973000", "140238.973000", "140240.972000", "140242.972000", "140244.972000", "140246.973000", "140248.972000", "140250.972000", "140252.972000", "140254.972000", "140256.973000", "140258.973000", "140300.973000", "140302.973000", "140304.973000", "140306.973000", "140308.973000", "140310.973000", "140312.973000", "140314.973000", "140316.987000", "140318.973000", "140320.973000", "140322.972000", "140324.973000", "140326.973000", "140328.973000", "140330.972000", "140332.973000", "140334.973000", "140336.972000", "140338.973000", "140340.973000", "140342.972000", "140344.973000", "140346.973000", "140348.973000", "140350.972000", "140352.973000", "140354.973000", "140356.973000", "140358.973000", "140400.973000", "140402.973000", "140404.973000", "140406.973000", "140408.972000", "140410.973000", "140412.972000", "140414.973000", "140416.972000", "140418.973000", "140420.973000", "140422.973000", "140424.728000"],
      "InstanceNumber": [1, 2, 3, 4, 5, 6, 7, 8, 9, 10, 11, 12, 13, 14, 15, 16, 17, 18, 19, 20, 21, 22, 23, 24, 25, 26, 27, 28, 29, 30, 31, 32, 33, 34, 35, 36, 37, 38, 39, 40, 41, 42, 43, 44, 45, 46, 47, 48, 49, 50, 51, 52, 53, 54, 55, 56, 57, 58, 59, 60, 61, 62, 63, 64, 65, 66, 67, 68, 69, 70, 71, 72, 73, 74, 75, 76, 77, 78, 79, 80, 81, 82, 83, 84, 85, 86, 87, 88, 89, 90, 91, 92, 93, 94, 95, 96, 97, 98, 99, 100, 101, 102, 103, 104, 105, 106, 107, 108, 109, 110, 111, 112, 113, 114, 115, 116, 117, 118, 119, 120, 121, 122, 123, 124, 125, 126, 127, 128, 129, 130, 131, 132, 133, 134, 135, 136, 137, 138, 139, 140, 141, 142, 143, 144, 145, 146, 147, 148, 149, 150, 151, 152, 153, 154, 155, 156],
      "LargestImagePixelValue": [3651, 3648, 3633, 3688, 3643, 3657, 3661, 3671, 3692, 3710, 3738, 3683, 3723, 3707, 3738, 3735, 3699, 3720, 3711, 3714, 3733, 3727, 3747, 3675, 3705, 3734, 3742, 3746, 3667, 3751, 3727, 3756, 3739, 3707, 3721, 3718, 3715, 3703, 3702, 3718, 3740, 3731, 3716, 3690, 3764, 3745, 3676, 3666, 3681, 3670, 3672, 3718, 3774, 3691, 3734, 3705, 3756, 3722, 3738, 3728, 3700, 3725, 3658, 3716, 3716, 3738, 3740, 3685, 3677, 3688, 3709, 3661, 3694, 3664, 3673, 3715, 3712, 3685, 3618, 3657, 3655, 3694, 3669, 3636, 3707, 3784, 3740, 3721, 3771, 3767, 3754, 3747, 3739, 3736, 3745, 3721, 3690, 3646, 3683, 3705, 3695, 3703, 3704, 3706, 3685, 3627, 3683, 3689, 3691, 3674, 3670, 3668, 3653, 3618, 3656, 3664, 3644, 3664, 3623, 3617, 3634, 3600, 3722, 3667, 3674, 3680, 3655, 3687, 3654, 3686, 3688, 3654, 3690, 3645, 3618, 3607, 3659, 3645, 3612, 3624, 3610, 3647, 3624, 3672, 3652, 3721, 3674, 3678, 3699, 3668, 3677, 3721, 3705, 3733, 3739, 3665],
      "WindowCenter": [822.0, 821.0, 822.0, 822.0, 820.0, 819.0, 819.0, 820.0, 821.0, 822.0, 823.0, 823.0, 823.0, 822.0, 821.0, 822.0, 822.0, 822.0, 823.0, 823.0, 823.0, 823.0, 824.0, 823.0, 822.0, 822.0, 824.0, 825.0, 823.0, 822.0, 820.0, 823.0, 825.0, 824.0, 822.0, 821.0, 822.0, 822.0, 821.0, 821.0, 821.0, 822.0, 822.0, 821.0, 821.0, 821.0, 820.0, 820.0, 821.0, 821.0, 821.0, 822.0, 825.0, 825.0, 824.0, 821.0, 820.0, 820.0, 820.0, 819.0, 819.0, 820.0, 820.0, 820.0, 819.0, 820.0, 820.0, 822.0, 823.0, 823.0, 823.0, 822.0, 822.0, 821.0, 820.0, 820.0, 821.0, 823.0, 822.0, 821.0, 820.0, 821.0, 820.0, 821.0, 821.0, 822.0, 822.0, 821.0, 820.0, 821.0, 821.0, 822.0, 823.0, 824.0, 823.0, 821.0, 821.0, 819.0, 817.0, 815.0, 817.0, 820.0, 817.0, 815.0, 816.0, 816.0, 815.0, 816.0, 817.0, 819.0, 820.0, 822.0, 823.0, 822.0, 820.0, 818.0, 819.0, 821.0, 823.0, 821.0, 818.0, 817.0, 820.0, 820.0, 821.0, 819.0, 818.0, 821.0, 822.0, 821.0, 820.0, 820.0, 820.0, 819.0, 819.0, 820.0, 820.0, 818.0, 816.0, 816.0, 817.0, 818.0, 817.0, 816.0, 817.0, 819.0, 819.0, 818.0, 819.0, 819.0, 818.0, 819.0, 821.0, 822.0, 821.0, 820.0],
      "WindowWidth": [1778.0, 1776.0, 1779.0, 1779.0, 1774.0, 1770.0, 1769.0, 1771.0, 1775.0, 1778.0, 1780.0, 1779.0, 1780.0, 1777.0, 1777.0, 1777.0, 1778.0, 1779.0, 1781.0, 1781.0, 1782.0, 1782.0, 1785.0, 1780.0, 1778.0, 1779.0, 1784.0, 1786.0, 1781.0, 1777.0, 1774.0, 1781.0, 1786.0, 1784.0, 1779.0, 1777.0, 1777.0, 1777.0, 1777.0, 1775.0, 1776.0, 1778.0, 1779.0, 1775.0, 1775.0, 1775.0, 1773.0, 1774.0, 1774.0, 1776.0, 1776.0, 1779.0, 1786.0, 1786.0, 1783.0, 1775.0, 1773.0, 1773.0, 1773.0, 1771.0, 1770.0, 1773.0, 1774.0, 1773.0, 1771.0, 1771.0, 1773.0, 1777.0, 1781.0, 1780.0, 1780.0, 1777.0, 1778.0, 1775.0, 1772.0, 1771.0, 1776.0, 1780.0, 1779.0, 1774.0, 1774.0, 1775.0, 1773.0, 1774.0, 1776.0, 1779.0, 1778.0, 1776.0, 1774.0, 1775.0, 1776.0, 1778.0, 1781.0, 1784.0, 1780.0, 1775.0, 1773.0, 1770.0, 1765.0, 1760.0, 1766.0, 1771.0, 1766.0, 1759.0, 1761.0, 1761.0, 1761.0, 1761.0, 1766.0, 1769.0, 1772.0, 1777.0, 1781.0, 1777.0, 1772.0, 1767.0, 1770.0, 1776.0, 1780.0, 1774.0, 1768.0, 1765.0, 1773.0, 1773.0, 1774.0, 1770.0, 1768.0, 1774.0, 1778.0, 1775.0, 1773.0, 1773.0, 1773.0, 1768.0, 1770.0, 1771.0, 1772.0, 1766.0, 1760.0, 1763.0, 1765.0, 1768.0, 1764.0, 1763.0, 1765.0, 1768.0, 1769.0, 1768.0, 1770.0, 1768.0, 1767.0, 1769.0, 1774.0, 1777.0, 1775.0, 1772.0]
    },
    "slices": {}
  }
}