{
  "AcquisitionMatrixPE": 100,
  "AcquisitionNumber": 1,
  "AcquisitionTime": "14:29:41.762500",
  "BandwidthPerPixelPhaseEncode": 18.519,
  "BaseResolution": 100,
  "BodyPartExamined": "BRAIN",
  "CoilCombinationMethod": "Sum of Squares",
  "ConsistencyInfo": "N4_VE11C_LATEST_20160120",
  "ConversionSoftware": "dcm2niix",
  "ConversionSoftwareVersion": "v1.0.20211006",
  "DerivedVendorReportedEchoSpacing": 0.000539986,
  "DeviceSerialNumber": "166078",
  "DwellTime": 2.1e-06,
  "EchoTime": 0.034,
  "EchoTrainLength": 100,
  "EffectiveEchoSpacing": 0.000539986,
  "FlipAngle": 90,
  "ImageOrientationPatientDICOM": [1, 4.36014e-05, 0.00027582, 7.18071e-08, 0.987695, -0.156394],
  "ImageOrientationText": "Tra>Cor(-9.0)>Sag(0.0)",
  "ImageType": [
    "ORIGINAL",
    "PRIMARY",
    "M",
    "ND",
    "MOSAIC"
],
  "ImagingFrequency": 123.258,
  "InPlanePhaseEncodingDirectionDICOM": "COL",
  "InstitutionAddress": "Street StreetNo,Bei Jing,District,CN,ZIP",
  "InstitutionName": "BeiJing Normal University",
  "InstitutionalDepartmentName": "Department",
  "MRAcquisitionType": "2D",
  "MagneticFieldStrength": 3,
  "Manufacturer": "Siemens",
  "ManufacturersModelName": "Prisma",
  "Modality": "MR",
  "MultibandAccelerationFactor": 3,
  "PartialFourier": 1,
  "PatientPosition": "HFS",
  "PercentPhaseFOV": 100,
  "PercentSampling": 100,
  "PhaseEncodingDirection": "j-",
  "PhaseEncodingSteps": 100,
  "PhaseResolution": 1,
  "PixelBandwidth": 2380,
  "ProcedureStepDescription": "BNU_P2018_64CH^Zhen.ZongLei",
  "ProtocolName": "bold_100x100_s3_2x2x2_static_156",
  "PulseSequenceDetails": "%SiemensSeq%\\ep2d_bold",
  "ReceiveCoilActiveElements": "HC1-7;NC1",
  "ReceiveCoilName": "HeadNeck_64",
  "ReconMatrixPE": 100,
  "RefLinesPE": 32,
  "RepetitionTime": 2,
  "SAR": 0.0633519,
  "ScanOptions": "FS",
  "ScanningSequence": "EP",
  "SequenceName": "*epfid2d1_100",
  "SequenceVariant": "SK",
  "SeriesDescription": "bold_100x100_s3_2x2x2_static_156",
  "SeriesNumber": 15,
  "ShimSetting": [-5467, -11506, -1245, 455, -62, -283, -102, 109],
  "SliceThickness": 2,
  "SliceTiming": [1.485, 0, 0.99, 0.0825, 1.0725, 0.165, 1.155, 0.2475, 1.2375, 0.33, 1.32, 0.4125, 1.4025, 0.5775, 1.5675, 0.66, 1.65, 0.7425, 1.7325, 0.825, 1.815, 0.9075, 1.8975, 0.495, 1.485, 0, 0.99, 0.0825, 1.0725, 0.165, 1.155, 0.2475, 1.2375, 0.33, 1.32, 0.4125, 1.4025, 0.5775, 1.5675, 0.66, 1.65, 0.7425, 1.7325, 0.825, 1.815, 0.9075, 1.8975, 0.495, 1.485, 0, 0.99, 0.0825, 1.0725, 0.165, 1.155, 0.2475, 1.2375, 0.33, 1.32, 0.4125, 1.4025, 0.5775, 1.5675, 0.66, 1.65, 0.7425, 1.7325, 0.825, 1.815, 0.9075, 1.8975, 0.495],
  "SoftwareVersions": "syngo MR E11",
  "SpacingBetweenSlices": 2,
  "StationName": "AWP166078",
  "TaskName": "action",
  "TotalReadoutTime": 0.0534586,
  "TxRefAmp": 214.139,
  "dcmmeta_affine": [
    [-1.9999998807907104, 1.436142866850787e-07, 0.0005584903992712498, 101.84530639648438],
    [-8.720281766727567e-05, 1.9753894805908203, -0.3127883970737457, -77.54387664794922],
    [0.0005516405217349529, 0.3127884268760681, 1.9753893613815308, -78.04408264160156],
    [0.0, 0.0, 0.0, 1.0]
],
  "dcmmeta_reorient_transform": [
    [0.0, -1.0, 0.0, 99.0],
    [1.0, 0.0, 0.0, 0.0],
    [0.0, 0.0, 1.0, 0.0],
    [0.0, 0.0, 0.0, 1.0]
],
  "dcmmeta_shape": [100, 100, 72, 156],
  "dcmmeta_slice_dim": 2,
  "dcmmeta_version": 0.6,
  "global": {
    "const": {
      "AcquisitionMatrix": [100, 0, 0, 100],
      "AngioFlag": "N",
      "BitsAllocated": 16,
      "BitsStored": 12,
      "BodyPartExamined": "BRAIN",
      "Columns": 900,
      "EchoNumbers": 1,
      "EchoTime": 34.0,
      "EchoTrainLength": 100,
      "FlipAngle": 90.0,
      "HighBit": 11,
      "ImageOrientationPatient": [0.99999996101105, 4.360140967e-05, 0.00027582024815, 7.180714e-08, 0.98769471595002, -0.1563942073237],
      "ImagePositionPatient": [-901.84534451592, -908.21032951105, 77.816679440989],
      "ImageType": [
        "ORIGINAL",
        "PRIMARY",
        "M",
        "ND",
        "MOSAIC"
],
      "ImagedNucleus": "1H",
      "ImagingFrequency": 123.257714,
      "InPlanePhaseEncodingDirection": "COL",
      "MRAcquisitionType": "2D",
      "MagneticFieldStrength": 3.0,
      "Manufacturer": "SIEMENS",
      "ManufacturerModelName": "Prisma",
      "Modality": "MR",
      "NumberOfAverages": 1.0,
      "NumberOfPhaseEncodingSteps": 100,
      "PercentPhaseFieldOfView": 100.0,
      "PercentSampling": 100.0,
      "PerformedProcedureStepStartTime": "132337.977000",
      "PhotometricInterpretation": "MONOCHROME2",
      "PixelBandwidth": 2380.0,
      "PixelRepresentation": 0,
      "PixelSpacing": [2.0, 2.0],
      "ProtocolName": "bold_100x100_s3_2x2x2_static_156",
      "RepetitionTime": 2000.0,
      "Rows": 900,
      "SAR": 0.06335191111307,
      "SamplesPerPixel": 1,
      "ScanOptions": "FS",
      "ScanningSequence": "EP",
      "SequenceName": "*epfid2d1_100",
      "SequenceVariant": "SK",
      "SeriesDescription": "bold_100x100_s3_2x2x2_static_156",
      "SeriesNumber": 15,
      "SeriesTime": "142944.165000",
      "SliceLocation": -64.927872955161,
      "SliceThickness": 2.0,
      "SmallestImagePixelValue": 0,
      "SoftwareVersions": "syngo MR E11",
      "SpacingBetweenSlices": 1.999999991508,
      "SpecificCharacterSet": "ISO_IR 100",
      "StudyID": "1",
      "StudyTime": "132337.914000",
      "TransmitCoilName": "Body",
      "VariableFlipAngleFlag": "N",
      "WindowCenterWidthExplanation": "Algo1",
      "dBdt": 0.0},
    "slices": {}
  },
  "time": {
    "samples": {
      "AcquisitionNumber": [1, 2, 3, 4, 5, 6, 7, 8, 9, 10, 11, 12, 13, 14, 15, 16, 17, 18, 19, 20, 21, 22, 23, 24, 25, 26, 27, 28, 29, 30, 31, 32, 33, 34, 35, 36, 37, 38, 39, 40, 41, 42, 43, 44, 45, 46, 47, 48, 49, 50, 51, 52, 53, 54, 55, 56, 57, 58, 59, 60, 61, 62, 63, 64, 65, 66, 67, 68, 69, 70, 71, 72, 73, 74, 75, 76, 77, 78, 79, 80, 81, 82, 83, 84, 85, 86, 87, 88, 89, 90, 91, 92, 93, 94, 95, 96, 97, 98, 99, 100, 101, 102, 103, 104, 105, 106, 107, 108, 109, 110, 111, 112, 113, 114, 115, 116, 117, 118, 119, 120, 121, 122, 123, 124, 125, 126, 127, 128, 129, 130, 131, 132, 133, 134, 135, 136, 137, 138, 139, 140, 141, 142, 143, 144, 145, 146, 147, 148, 149, 150, 151, 152, 153, 154, 155, 156],
      "AcquisitionTime": ["142941.762500", "142943.762500", "142945.762500", "142947.762500", "142949.762500", "142951.762500", "142953.762500", "142955.762500", "142957.762500", "142959.762500", "143001.762500", "143003.762500", "143005.762500", "143007.762500", "143009.762500", "143011.762500", "143013.762500", "143015.762500", "143017.762500", "143019.762500", "143021.762500", "143023.762500", "143025.762500", "143027.762500", "143029.762500", "143031.762500", "143033.762500", "143035.762500", "143037.762500", "143039.762500", "143041.762500", "143043.762500", "143045.762500", "143047.762500", "143049.762500", "143051.762500", "143053.762500", "143055.762500", "143057.762500", "143059.762500", "143101.762500", "143103.762500", "143105.762500", "143107.762500", "143109.762500", "143111.762500", "143113.762500", "143115.762500", "143117.762500", "143119.762500", "143121.762500", "143123.762500", "143125.762500", "143127.762500", "143129.762500", "143131.762500", "143133.762500", "143135.762500", "143137.762500", "143139.762500", "143141.762500", "143143.762500", "143145.762500", "143147.762500", "143149.762500", "143151.762500", "143153.762500", "143155.762500", "143157.762500", "143159.762500", "143201.762500", "143203.762500", "143205.762500", "143207.762500", "143209.762500", "143211.762500", "143213.762500", "143215.762500", "143217.762500", "143219.762500", "143221.762500", "143223.762500", "143225.762500", "143227.762500", "143229.762500", "143231.762500", "143233.762500", "143235.762500", "143237.762500", "143239.762500", "143241.762500", "143243.762500", "143245.762500", "143247.762500", "143249.762500", "143251.762500", "143253.762500", "143255.762500", "143257.762500", "143259.762500", "143301.762500", "143303.762500", "143305.762500", "143307.762500", "143309.762500", "143311.762500", "143313.762500", "143315.762500", "143317.762500", "143319.762500", "143321.762500", "143323.762500", "143325.762500", "143327.762500", "143329.762500", "143331.762500", "143333.762500", "143335.762500", "143337.762500", "143339.762500", "143341.762500", "143343.762500", "143345.762500", "143347.762500", "143349.762500", "143351.762500", "143353.762500", "143355.762500", "143357.762500", "143359.762500", "143401.762500", "143403.762500", "143405.762500", "143407.762500", "143409.762500", "143411.762500", "143413.762500", "143415.762500", "143417.762500", "143419.762500", "143421.762500", "143423.762500", "143425.762500", "143427.762500", "143429.762500", "143431.762500", "143433.762500", "143435.762500", "143437.762500", "143439.762500", "143441.762500", "143443.762500", "143445.762500", "143447.762500", "143449.762500", "143451.762500"],
      "ContentTime": ["142944.169000", "142945.664000", "142947.664000", "142949.664000", "142951.665000", "142953.665000", "142955.665000", "142957.665000", "142959.665000", "143001.665000", "143003.664000", "143005.664000", "143007.664000", "143009.664000", "143011.665000", "143013.665000", "143015.665000", "143017.665000", "143019.664000", "143021.664000", "143023.665000", "143025.664000", "143027.665000", "143029.665000", "143031.666000", "143033.666000", "143035.665000", "143037.665000", "143039.664000", "143041.664000", "143043.664000", "143045.664000", "143047.665000", "143049.665000", "143051.665000", "143053.665000", "143055.664000", "143057.665000", "143059.664000", "143101.664000", "143103.665000", "143105.666000", "143107.665000", "143109.664000", "143111.665000", "143113.665000", "143115.665000", "143117.664000", "143119.665000", "143121.665000", "143123.666000", "143125.665000", "143127.664000", "143129.664000", "143131.665000", "143133.664000", "143135.665000", "143137.665000", "143139.665000", "143141.665000", "143143.665000", "143145.664000", "143147.664000", "143149.684000", "143151.665000", "143153.665000", "143155.666000", "143157.666000", "143159.665000", "143201.666000", "143203.665000", "143205.665000", "143207.664000", "143209.664000", "143211.665000", "143213.665000", "143215.666000", "143217.665000", "143219.664000", "143221.664000", "143223.664000", "143225.665000", "143227.664000", "143229.665000", "143231.665000", "143233.666000", "143235.665000", "143237.664000", "143239.665000", "143241.665000", "143243.664000", "143245.665000", "143247.665000", "143249.666000", "143251.665000", "143253.665000", "143255.664000", "143257.664000", "143259.664000", "143301.665000", "143303.665000", "143305.666000", "143307.666000", "143309.666000", "143311.665000", "143313.665000", "143315.665000", "143317.665000", "143319.665000", "143321.665000", "143323.666000", "143325.666000", "143327.665000", "143329.664000", "143331.665000", "143333.664000", "143335.665000", "143337.665000", "143339.664000", "143341.665000", "143343.665000", "143345.666000", "143347.665000", "143349.665000", "143351.664000", "143353.665000", "143355.664000", "143357.665000", "143359.666000", "143401.666000", "143403.665000", "143405.665000", "143407.665000", "143409.665000", "143411.664000", "143413.665000", "143415.665000", "143417.665000", "143419.666000", "143421.666000", "143423.664000", "143425.665000", "143427.664000", "143429.665000", "143431.664000", "143433.666000", "143435.666000", "143437.665000", "143439.664000", "143441.665000", "143443.665000", "143445.665000", "143447.665000", "143449.664000", "143451.666000", "143453.549000"],
      "InstanceCreationTime": ["142944.169000", "142945.664000", "142947.664000", "142949.664000", "142951.665000", "142953.665000", "142955.665000", "142957.665000", "142959.665000", "143001.665000", "143003.664000", "143005.664000", "143007.664000", "143009.664000", "143011.665000", "143013.665000", "143015.665000", "143017.665000", "143019.664000", "143021.664000", "143023.665000", "143025.664000", "143027.665000", "143029.665000", "143031.666000", "143033.666000", "143035.665000", "143037.665000", "143039.664000", "143041.664000", "143043.664000", "143045.664000", "143047.665000", "143049.665000", "143051.665000", "143053.665000", "143055.664000", "143057.665000", "143059.664000", "143101.664000", "143103.665000", "143105.666000", "143107.665000", "143109.664000", "143111.665000", "143113.665000", "143115.665000", "143117.664000", "143119.665000", "143121.665000", "143123.666000", "143125.665000", "143127.664000", "143129.664000", "143131.665000", "143133.664000", "143135.665000", "143137.665000", "143139.665000", "143141.665000", "143143.665000", "143145.664000", "143147.664000", "143149.684000", "143151.665000", "143153.665000", "143155.666000", "143157.666000", "143159.665000", "143201.666000", "143203.665000", "143205.665000", "143207.664000", "143209.664000", "143211.665000", "143213.665000", "143215.666000", "143217.665000", "143219.664000", "143221.664000", "143223.664000", "143225.665000", "143227.664000", "143229.665000", "143231.665000", "143233.666000", "143235.665000", "143237.664000", "143239.665000", "143241.665000", "143243.664000", "143245.665000", "143247.665000", "143249.666000", "143251.665000", "143253.665000", "143255.664000", "143257.664000", "143259.664000", "143301.665000", "143303.665000", "143305.666000", "143307.666000", "143309.666000", "143311.665000", "143313.665000", "143315.665000", "143317.665000", "143319.665000", "143321.665000", "143323.666000", "143325.666000", "143327.665000", "143329.664000", "143331.665000", "143333.664000", "143335.665000", "143337.665000", "143339.664000", "143341.665000", "143343.665000", "143345.666000", "143347.665000", "143349.665000", "143351.664000", "143353.665000", "143355.664000", "143357.665000", "143359.666000", "143401.666000", "143403.665000", "143405.665000", "143407.665000", "143409.665000", "143411.664000", "143413.665000", "143415.665000", "143417.665000", "143419.666000", "143421.666000", "143423.664000", "143425.665000", "143427.664000", "143429.665000", "143431.664000", "143433.666000", "143435.666000", "143437.665000", "143439.664000", "143441.665000", "143443.665000", "143445.665000", "143447.665000", "143449.664000", "143451.666000", "143453.549000"],
      "InstanceNumber": [1, 2, 3, 4, 5, 6, 7, 8, 9, 10, 11, 12, 13, 14, 15, 16, 17, 18, 19, 20, 21, 22, 23, 24, 25, 26, 27, 28, 29, 30, 31, 32, 33, 34, 35, 36, 37, 38, 39, 40, 41, 42, 43, 44, 45, 46, 47, 48, 49, 50, 51, 52, 53, 54, 55, 56, 57, 58, 59, 60, 61, 62, 63, 64, 65, 66, 67, 68, 69, 70, 71, 72, 73, 74, 75, 76, 77, 78, 79, 80, 81, 82, 83, 84, 85, 86, 87, 88, 89, 90, 91, 92, 93, 94, 95, 96, 97, 98, 99, 100, 101, 102, 103, 104, 105, 106, 107, 108, 109, 110, 111, 112, 113, 114, 115, 116, 117, 118, 119, 120, 121, 122, 123, 124, 125, 126, 127, 128, 129, 130, 131, 132, 133, 134, 135, 136, 137, 138, 139, 140, 141, 142, 143, 144, 145, 146, 147, 148, 149, 150, 151, 152, 153, 154, 155, 156],
      "LargestImagePixelValue": [3605, 3528, 3504, 3535, 3549, 3580, 3565, 3585, 3571, 3578, 3548, 3587, 3585, 3575, 3547, 3574, 3574, 3614, 3577, 3587, 3546, 3529, 3542, 3543, 3584, 3553, 3595, 3538, 3581, 3577, 3573, 3609, 3542, 3509, 3541, 3573, 3538, 3582, 3535, 3592, 3585, 3563, 3585, 3539, 3536, 3501, 3568, 3583, 3549, 3506, 3474, 3427, 3440, 3426, 3453, 3471, 3541, 3486, 3538, 3508, 3548, 3517, 3467, 3471, 3483, 3481, 3437, 3401, 3390, 3506, 3491, 3511, 3551, 3618, 3594, 3551, 3550, 3565, 3505, 3565, 3476, 3480, 3550, 3546, 3600, 3548, 3525, 3509, 3425, 3371, 3412, 3501, 3464, 3496, 3517, 3529, 3551, 3505, 3495, 3493, 3493, 3533, 3524, 3446, 3467, 3453, 3542, 3449, 3440, 3456, 3452, 3403, 3433, 3374, 3397, 3352, 3376, 3399, 3414, 3461, 3457, 3508, 3508, 3476, 3492, 3449, 3424, 3471, 3475, 3460, 3477, 3530, 3463, 3443, 3458, 3506, 3447, 3388, 3238, 3292, 3234, 3284, 3244, 3388, 3351, 3394, 3444, 3521, 3478, 3601, 3557, 3548, 3370, 3354, 3335, 3301],
      "WindowCenter": [762.0, 761.0, 761.0, 762.0, 763.0, 764.0, 764.0, 765.0, 766.0, 766.0, 766.0, 766.0, 767.0, 767.0, 766.0, 766.0, 766.0, 766.0, 765.0, 766.0, 765.0, 765.0, 765.0, 765.0, 766.0, 766.0, 766.0, 764.0, 764.0, 764.0, 764.0, 763.0, 763.0, 762.0, 764.0, 765.0, 764.0, 765.0, 766.0, 767.0, 765.0, 764.0, 763.0, 763.0, 762.0, 763.0, 764.0, 764.0, 763.0, 764.0, 764.0, 764.0, 764.0, 765.0, 763.0, 763.0, 764.0, 764.0, 763.0, 763.0, 763.0, 763.0, 763.0, 764.0, 763.0, 764.0, 764.0, 763.0, 763.0, 764.0, 765.0, 765.0, 765.0, 764.0, 764.0, 762.0, 763.0, 763.0, 762.0, 763.0, 763.0, 762.0, 763.0, 764.0, 765.0, 765.0, 764.0, 762.0, 761.0, 760.0, 762.0, 763.0, 762.0, 762.0, 761.0, 761.0, 762.0, 762.0, 762.0, 762.0, 763.0, 764.0, 763.0, 762.0, 761.0, 761.0, 761.0, 760.0, 760.0, 761.0, 761.0, 762.0, 762.0, 761.0, 760.0, 761.0, 763.0, 764.0, 763.0, 763.0, 762.0, 763.0, 762.0, 762.0, 763.0, 763.0, 763.0, 763.0, 763.0, 763.0, 762.0, 762.0, 762.0, 762.0, 762.0, 763.0, 763.0, 762.0, 758.0, 760.0, 759.0, 759.0, 759.0, 759.0, 757.0, 758.0, 759.0, 760.0, 759.0, 762.0, 761.0, 762.0, 759.0, 759.0, 760.0, 760.0],
      "WindowWidth": [1673.0, 1668.0, 1669.0, 1673.0, 1673.0, 1678.0, 1678.0, 1681.0, 1683.0, 1683.0, 1683.0, 1684.0, 1684.0, 1685.0, 1683.0, 1683.0, 1684.0, 1684.0, 1681.0, 1683.0, 1681.0, 1680.0, 1681.0, 1681.0, 1683.0, 1682.0, 1683.0, 1677.0, 1678.0, 1677.0, 1677.0, 1675.0, 1673.0, 1672.0, 1678.0, 1680.0, 1677.0, 1680.0, 1683.0, 1685.0, 1680.0, 1677.0, 1675.0, 1674.0, 1673.0, 1674.0, 1679.0, 1676.0, 1675.0, 1676.0, 1676.0, 1677.0, 1677.0, 1678.0, 1675.0, 1675.0, 1678.0, 1676.0, 1674.0, 1673.0, 1674.0, 1675.0, 1675.0, 1676.0, 1675.0, 1678.0, 1676.0, 1675.0, 1674.0, 1678.0, 1679.0, 1681.0, 1681.0, 1679.0, 1676.0, 1672.0, 1673.0, 1674.0, 1670.0, 1675.0, 1673.0, 1671.0, 1674.0, 1676.0, 1679.0, 1679.0, 1676.0, 1670.0, 1669.0, 1665.0, 1670.0, 1673.0, 1669.0, 1671.0, 1668.0, 1669.0, 1670.0, 1671.0, 1671.0, 1672.0, 1673.0, 1677.0, 1674.0, 1670.0, 1667.0, 1667.0, 1668.0, 1665.0, 1664.0, 1666.0, 1668.0, 1670.0, 1670.0, 1668.0, 1664.0, 1666.0, 1672.0, 1676.0, 1673.0, 1674.0, 1669.0, 1673.0, 1670.0, 1671.0, 1672.0, 1672.0, 1673.0, 1672.0, 1672.0, 1672.0, 1672.0, 1672.0, 1670.0, 1669.0, 1670.0, 1673.0, 1674.0, 1670.0, 1659.0, 1662.0, 1661.0, 1661.0, 1660.0, 1660.0, 1655.0, 1660.0, 1663.0, 1664.0, 1662.0, 1671.0, 1669.0, 1670.0, 1662.0, 1662.0, 1663.0, 1664.0]
    },
    "slices": {}
  }
}