{
  "AcquisitionMatrixPE": 100,
  "AcquisitionNumber": 1,
  "AcquisitionTime": "14:11:12.757500",
  "BandwidthPerPixelPhaseEncode": 18.519,
  "BaseResolution": 100,
  "BodyPartExamined": "BRAIN",
  "CoilCombinationMethod": "Sum of Squares",
  "ConsistencyInfo": "N4_VE11C_LATEST_20160120",
  "ConversionSoftware": "dcm2niix",
  "ConversionSoftwareVersion": "v1.0.20211006",
  "DerivedVendorReportedEchoSpacing": 0.000539986,
  "DeviceSerialNumber": "166078",
  "DwellTime": 2.1e-06,
  "EchoTime": 0.034,
  "EchoTrainLength": 100,
  "EffectiveEchoSpacing": 0.000539986,
  "FlipAngle": 90,
  "ImageOrientationPatientDICOM": [1, 4.36014e-05, 0.00027582, 7.18071e-08, 0.987695, -0.156394],
  "ImageOrientationText": "Tra>Cor(-9.0)>Sag(0.0)",
  "ImageType": [
    "ORIGINAL",
    "PRIMARY",
    "M",
    "ND",
    "MOSAIC"
],
  "ImagingFrequency": 123.258,
  "InPlanePhaseEncodingDirectionDICOM": "COL",
  "InstitutionAddress": "Street StreetNo,Bei Jing,District,CN,ZIP",
  "InstitutionName": "BeiJing Normal University",
  "InstitutionalDepartmentName": "Department",
  "MRAcquisitionType": "2D",
  "MagneticFieldStrength": 3,
  "Manufacturer": "Siemens",
  "ManufacturersModelName": "Prisma",
  "Modality": "MR",
  "MultibandAccelerationFactor": 3,
  "PartialFourier": 1,
  "PatientPosition": "HFS",
  "PercentPhaseFOV": 100,
  "PercentSampling": 100,
  "PhaseEncodingDirection": "j-",
  "PhaseEncodingSteps": 100,
  "PhaseResolution": 1,
  "PixelBandwidth": 2380,
  "ProcedureStepDescription": "BNU_P2018_64CH^Zhen.ZongLei",
  "ProtocolName": "bold_100x100_s3_2x2x2_static_156",
  "PulseSequenceDetails": "%SiemensSeq%\\ep2d_bold",
  "ReceiveCoilActiveElements": "HC1-7;NC1",
  "ReceiveCoilName": "HeadNeck_64",
  "ReconMatrixPE": 100,
  "RefLinesPE": 32,
  "RepetitionTime": 2,
  "SAR": 0.0633519,
  "ScanOptions": "FS",
  "ScanningSequence": "EP",
  "SequenceName": "*epfid2d1_100",
  "SequenceVariant": "SK",
  "SeriesDescription": "bold_100x100_s3_2x2x2_static_156",
  "SeriesNumber": 12,
  "ShimSetting": [-5467, -11506, -1245, 455, -62, -283, -102, 109],
  "SliceThickness": 2,
  "SliceTiming": [1.485, 0, 0.99, 0.0825, 1.0725, 0.165, 1.155, 0.2475, 1.2375, 0.33, 1.32, 0.4125, 1.4025, 0.5775, 1.5675, 0.66, 1.65, 0.7425, 1.7325, 0.825, 1.815, 0.9075, 1.8975, 0.495, 1.485, 0, 0.99, 0.0825, 1.0725, 0.165, 1.155, 0.2475, 1.2375, 0.33, 1.32, 0.4125, 1.4025, 0.5775, 1.5675, 0.66, 1.65, 0.7425, 1.7325, 0.825, 1.815, 0.9075, 1.8975, 0.495, 1.485, 0, 0.99, 0.0825, 1.0725, 0.165, 1.155, 0.2475, 1.2375, 0.33, 1.32, 0.4125, 1.4025, 0.5775, 1.5675, 0.66, 1.65, 0.7425, 1.7325, 0.825, 1.815, 0.9075, 1.8975, 0.495],
  "SoftwareVersions": "syngo MR E11",
  "SpacingBetweenSlices": 2,
  "StationName": "AWP166078",
  "TaskName": "action",
  "TotalReadoutTime": 0.0534586,
  "TxRefAmp": 214.139,
  "dcmmeta_affine": [
    [-1.9999998807907104, 1.436142866850787e-07, 0.0005584903992712498, 101.84530639648438],
    [-8.720281766727567e-05, 1.9753894805908203, -0.3127883970737457, -77.54387664794922],
    [0.0005516405217349529, 0.3127884268760681, 1.9753893613815308, -78.04408264160156],
    [0.0, 0.0, 0.0, 1.0]
],
  "dcmmeta_reorient_transform": [
    [0.0, -1.0, 0.0, 99.0],
    [1.0, 0.0, 0.0, 0.0],
    [0.0, 0.0, 1.0, 0.0],
    [0.0, 0.0, 0.0, 1.0]
],
  "dcmmeta_shape": [100, 100, 72, 156],
  "dcmmeta_slice_dim": 2,
  "dcmmeta_version": 0.6,
  "global": {
    "const": {
      "AcquisitionMatrix": [100, 0, 0, 100],
      "AngioFlag": "N",
      "BitsAllocated": 16,
      "BitsStored": 12,
      "BodyPartExamined": "BRAIN",
      "Columns": 900,
      "EchoNumbers": 1,
      "EchoTime": 34.0,
      "EchoTrainLength": 100,
      "FlipAngle": 90.0,
      "HighBit": 11,
      "ImageOrientationPatient": [0.99999996101105, 4.360140967e-05, 0.00027582024815, 7.180714e-08, 0.98769471595002, -0.1563942073237],
      "ImagePositionPatient": [-901.84534451592, -908.21032951105, 77.816679440989],
      "ImageType": [
        "ORIGINAL",
        "PRIMARY",
        "M",
        "ND",
        "MOSAIC"
],
      "ImagedNucleus": "1H",
      "ImagingFrequency": 123.257707,
      "InPlanePhaseEncodingDirection": "COL",
      "MRAcquisitionType": "2D",
      "MagneticFieldStrength": 3.0,
      "Manufacturer": "SIEMENS",
      "ManufacturerModelName": "Prisma",
      "Modality": "MR",
      "NumberOfAverages": 1.0,
      "NumberOfPhaseEncodingSteps": 100,
      "PercentPhaseFieldOfView": 100.0,
      "PercentSampling": 100.0,
      "PerformedProcedureStepStartTime": "132337.977000",
      "PhotometricInterpretation": "MONOCHROME2",
      "PixelBandwidth": 2380.0,
      "PixelRepresentation": 0,
      "PixelSpacing": [2.0, 2.0],
      "ProtocolName": "bold_100x100_s3_2x2x2_static_156",
      "RepetitionTime": 2000.0,
      "Rows": 900,
      "SAR": 0.06335191111307,
      "SamplesPerPixel": 1,
      "ScanOptions": "FS",
      "ScanningSequence": "EP",
      "SequenceName": "*epfid2d1_100",
      "SequenceVariant": "SK",
      "SeriesDescription": "bold_100x100_s3_2x2x2_static_156",
      "SeriesNumber": 12,
      "SeriesTime": "141115.447000",
      "SliceLocation": -64.927872955161,
      "SliceThickness": 2.0,
      "SmallestImagePixelValue": 0,
      "SoftwareVersions": "syngo MR E11",
      "SpacingBetweenSlices": 1.999999991508,
      "SpecificCharacterSet": "ISO_IR 100",
      "StudyID": "1",
      "StudyTime": "132337.914000",
      "TransmitCoilName": "Body",
      "VariableFlipAngleFlag": "N",
      "WindowCenterWidthExplanation": "Algo1",
      "dBdt": 0.0},
    "slices": {}
  },
  "time": {
    "samples": {
      "AcquisitionNumber": [1, 2, 3, 4, 5, 6, 7, 8, 9, 10, 11, 12, 13, 14, 15, 16, 17, 18, 19, 20, 21, 22, 23, 24, 25, 26, 27, 28, 29, 30, 31, 32, 33, 34, 35, 36, 37, 38, 39, 40, 41, 42, 43, 44, 45, 46, 47, 48, 49, 50, 51, 52, 53, 54, 55, 56, 57, 58, 59, 60, 61, 62, 63, 64, 65, 66, 67, 68, 69, 70, 71, 72, 73, 74, 75, 76, 77, 78, 79, 80, 81, 82, 83, 84, 85, 86, 87, 88, 89, 90, 91, 92, 93, 94, 95, 96, 97, 98, 99, 100, 101, 102, 103, 104, 105, 106, 107, 108, 109, 110, 111, 112, 113, 114, 115, 116, 117, 118, 119, 120, 121, 122, 123, 124, 125, 126, 127, 128, 129, 130, 131, 132, 133, 134, 135, 136, 137, 138, 139, 140, 141, 142, 143, 144, 145, 146, 147, 148, 149, 150, 151, 152, 153, 154, 155, 156],
      "AcquisitionTime": ["141112.757500", "141114.757500", "141116.757500", "141118.757500", "141120.757500", "141122.757500", "141124.757500", "141126.757500", "141128.757500", "141130.757500", "141132.757500", "141134.757500", "141136.757500", "141138.757500", "141140.757500", "141142.757500", "141144.757500", "141146.757500", "141148.757500", "141150.757500", "141152.757500", "141154.757500", "141156.757500", "141158.757500", "141200.757500", "141202.757500", "141204.757500", "141206.757500", "141208.757500", "141210.757500", "141212.757500", "141214.757500", "141216.757500", "141218.757500", "141220.757500", "141222.757500", "141224.757500", "141226.757500", "141228.757500", "141230.757500", "141232.757500", "141234.757500", "141236.757500", "141238.757500", "141240.757500", "141242.757500", "141244.757500", "141246.757500", "141248.757500", "141250.757500", "141252.757500", "141254.757500", "141256.757500", "141258.757500", "141300.757500", "141302.757500", "141304.757500", "141306.757500", "141308.757500", "141310.757500", "141312.757500", "141314.757500", "141316.757500", "141318.757500", "141320.757500", "141322.757500", "141324.757500", "141326.757500", "141328.757500", "141330.757500", "141332.757500", "141334.757500", "141336.757500", "141338.757500", "141340.757500", "141342.757500", "141344.757500", "141346.757500", "141348.757500", "141350.757500", "141352.757500", "141354.757500", "141356.757500", "141358.757500", "141400.757500", "141402.757500", "141404.757500", "141406.757500", "141408.757500", "141410.757500", "141412.757500", "141414.757500", "141416.757500", "141418.757500", "141420.757500", "141422.757500", "141424.757500", "141426.757500", "141428.757500", "141430.757500", "141432.757500", "141434.757500", "141436.757500", "141438.757500", "141440.757500", "141442.757500", "141444.757500", "141446.757500", "141448.757500", "141450.757500", "141452.757500", "141454.757500", "141456.757500", "141458.757500", "141500.757500", "141502.757500", "141504.757500", "141506.757500", "141508.757500", "141510.757500", "141512.757500", "141514.757500", "141516.757500", "141518.757500", "141520.757500", "141522.757500", "141524.757500", "141526.757500", "141528.757500", "141530.757500", "141532.757500", "141534.757500", "141536.757500", "141538.757500", "141540.757500", "141542.757500", "141544.757500", "141546.757500", "141548.757500", "141550.757500", "141552.757500", "141554.757500", "141556.757500", "141558.757500", "141600.757500", "141602.757500", "141604.757500", "141606.757500", "141608.757500", "141610.757500", "141612.757500", "141614.757500", "141616.757500", "141618.757500", "141620.757500", "141622.757500"],
      "ContentTime": ["141115.450000", "141116.932000", "141118.931000", "141120.931000", "141122.932000", "141124.932000", "141126.931000", "141128.930000", "141130.930000", "141132.932000", "141134.931000", "141136.932000", "141138.932000", "141140.932000", "141142.931000", "141144.932000", "141146.930000", "141148.930000", "141150.932000", "141152.932000", "141154.931000", "141156.931000", "141158.931000", "141200.931000", "141202.932000", "141204.931000", "141206.932000", "141208.931000", "141210.931000", "141212.931000", "141214.931000", "141216.931000", "141218.931000", "141220.930000", "141222.930000", "141224.931000", "141226.931000", "141228.932000", "141230.932000", "141232.931000", "141234.931000", "141236.931000", "141238.930000", "141240.930000", "141242.931000", "141244.931000", "141246.931000", "141248.931000", "141250.931000", "141252.932000", "141254.932000", "141256.931000", "141258.930000", "141300.932000", "141302.932000", "141304.932000", "141306.931000", "141308.931000", "141310.931000", "141312.932000", "141314.931000", "141316.931000", "141318.931000", "141320.931000", "141322.932000", "141324.932000", "141326.931000", "141328.932000", "141330.930000", "141332.930000", "141334.932000", "141336.931000", "141338.931000", "141340.932000", "141342.932000", "141344.931000", "141346.932000", "141348.931000", "141350.930000", "141352.931000", "141354.931000", "141356.932000", "141358.932000", "141400.932000", "141402.932000", "141404.932000", "141406.931000", "141408.930000", "141410.932000", "141412.932000", "141414.931000", "141416.931000", "141418.931000", "141420.931000", "141422.932000", "141424.930000", "141426.932000", "141428.932000", "141430.931000", "141432.931000", "141434.932000", "141436.932000", "141438.931000", "141440.931000", "141442.931000", "141444.932000", "141446.932000", "141448.931000", "141450.932000", "141452.932000", "141454.931000", "141456.931000", "141458.930000", "141500.930000", "141502.931000", "141504.931000", "141506.932000", "141508.932000", "141510.931000", "141512.931000", "141514.932000", "141516.931000", "141518.930000", "141520.932000", "141522.931000", "141524.932000", "141526.932000", "141528.932000", "141530.932000", "141532.932000", "141534.931000", "141536.931000", "141538.932000", "141540.931000", "141542.931000", "141544.931000", "141546.932000", "141548.932000", "141550.930000", "141552.931000", "141554.931000", "141556.931000", "141558.932000", "141600.932000", "141602.931000", "141604.932000", "141606.931000", "141608.931000", "141610.930000", "141612.932000", "141614.931000", "141616.932000", "141618.932000", "141620.932000", "141622.931000", "141624.747000"],
      "InstanceCreationTime": ["141115.450000", "141116.932000", "141118.931000", "141120.931000", "141122.932000", "141124.932000", "141126.931000", "141128.930000", "141130.930000", "141132.932000", "141134.931000", "141136.932000", "141138.932000", "141140.932000", "141142.931000", "141144.932000", "141146.930000", "141148.930000", "141150.932000", "141152.932000", "141154.931000", "141156.931000", "141158.931000", "141200.931000", "141202.932000", "141204.931000", "141206.932000", "141208.931000", "141210.931000", "141212.931000", "141214.931000", "141216.931000", "141218.931000", "141220.930000", "141222.930000", "141224.931000", "141226.931000", "141228.932000", "141230.932000", "141232.931000", "141234.931000", "141236.931000", "141238.930000", "141240.930000", "141242.931000", "141244.931000", "141246.931000", "141248.931000", "141250.931000", "141252.932000", "141254.932000", "141256.931000", "141258.930000", "141300.932000", "141302.932000", "141304.932000", "141306.931000", "141308.931000", "141310.931000", "141312.932000", "141314.931000", "141316.931000", "141318.931000", "141320.931000", "141322.932000", "141324.932000", "141326.931000", "141328.932000", "141330.930000", "141332.930000", "141334.932000", "141336.931000", "141338.931000", "141340.932000", "141342.932000", "141344.931000", "141346.932000", "141348.931000", "141350.930000", "141352.931000", "141354.931000", "141356.932000", "141358.932000", "141400.932000", "141402.932000", "141404.932000", "141406.931000", "141408.930000", "141410.932000", "141412.932000", "141414.931000", "141416.931000", "141418.931000", "141420.931000", "141422.932000", "141424.930000", "141426.932000", "141428.932000", "141430.931000", "141432.931000", "141434.932000", "141436.932000", "141438.931000", "141440.931000", "141442.931000", "141444.932000", "141446.932000", "141448.931000", "141450.932000", "141452.932000", "141454.931000", "141456.931000", "141458.930000", "141500.930000", "141502.931000", "141504.931000", "141506.932000", "141508.932000", "141510.931000", "141512.931000", "141514.932000", "141516.931000", "141518.930000", "141520.932000", "141522.931000", "141524.932000", "141526.932000", "141528.932000", "141530.932000", "141532.932000", "141534.931000", "141536.931000", "141538.932000", "141540.931000", "141542.931000", "141544.931000", "141546.932000", "141548.932000", "141550.930000", "141552.931000", "141554.931000", "141556.931000", "141558.932000", "141600.932000", "141602.931000", "141604.932000", "141606.931000", "141608.931000", "141610.930000", "141612.932000", "141614.931000", "141616.932000", "141618.932000", "141620.932000", "141622.931000", "141624.747000"],
      "InstanceNumber": [1, 2, 3, 4, 5, 6, 7, 8, 9, 10, 11, 12, 13, 14, 15, 16, 17, 18, 19, 20, 21, 22, 23, 24, 25, 26, 27, 28, 29, 30, 31, 32, 33, 34, 35, 36, 37, 38, 39, 40, 41, 42, 43, 44, 45, 46, 47, 48, 49, 50, 51, 52, 53, 54, 55, 56, 57, 58, 59, 60, 61, 62, 63, 64, 65, 66, 67, 68, 69, 70, 71, 72, 73, 74, 75, 76, 77, 78, 79, 80, 81, 82, 83, 84, 85, 86, 87, 88, 89, 90, 91, 92, 93, 94, 95, 96, 97, 98, 99, 100, 101, 102, 103, 104, 105, 106, 107, 108, 109, 110, 111, 112, 113, 114, 115, 116, 117, 118, 119, 120, 121, 122, 123, 124, 125, 126, 127, 128, 129, 130, 131, 132, 133, 134, 135, 136, 137, 138, 139, 140, 141, 142, 143, 144, 145, 146, 147, 148, 149, 150, 151, 152, 153, 154, 155, 156],
      "LargestImagePixelValue": [3764, 3749, 3803, 3806, 3806, 3776, 3678, 3741, 3802, 3760, 3752, 3758, 3768, 3739, 3746, 3759, 3738, 3727, 3741, 3756, 3762, 3710, 3703, 3700, 3734, 3748, 3729, 3701, 3782, 3815, 3793, 3787, 3772, 3780, 3774, 3783, 3766, 3817, 3756, 3779, 3772, 3762, 3762, 3752, 3742, 3756, 3759, 3758, 3745, 3710, 3764, 3748, 3735, 3782, 3717, 3719, 3699, 3740, 3767, 3735, 3725, 3726, 3736, 3725, 3724, 3737, 3750, 3758, 3700, 3726, 3741, 3715, 3697, 3734, 3787, 3750, 3747, 3735, 3738, 3663, 3663, 3706, 3667, 3730, 3713, 3677, 3674, 3660, 3686, 3679, 3690, 3670, 3680, 3666, 3655, 3695, 3781, 3782, 3755, 3696, 3705, 3779, 3737, 3728, 3803, 3739, 3697, 3690, 3713, 3736, 3773, 3778, 3759, 3792, 3775, 3758, 3770, 3793, 3813, 3768, 3762, 3703, 3695, 3718, 3712, 3695, 3690, 3719, 3711, 3729, 3705, 3687, 3692, 3724, 3696, 3716, 3748, 3701, 3729, 3727, 3706, 3732, 3710, 3673, 3619, 3661, 3600, 3516, 3650, 3700, 3725, 3775, 3681, 3636, 3681, 3688],
      "WindowCenter": [777.0, 775.0, 774.0, 774.0, 775.0, 776.0, 774.0, 773.0, 774.0, 775.0, 774.0, 774.0, 774.0, 776.0, 777.0, 778.0, 778.0, 779.0, 778.0, 778.0, 777.0, 777.0, 778.0, 779.0, 779.0, 778.0, 778.0, 778.0, 779.0, 779.0, 777.0, 776.0, 776.0, 776.0, 775.0, 774.0, 774.0, 774.0, 772.0, 773.0, 773.0, 775.0, 775.0, 774.0, 774.0, 776.0, 776.0, 776.0, 775.0, 775.0, 775.0, 775.0, 776.0, 777.0, 776.0, 776.0, 776.0, 776.0, 774.0, 773.0, 775.0, 776.0, 776.0, 776.0, 776.0, 776.0, 776.0, 777.0, 777.0, 777.0, 776.0, 777.0, 776.0, 775.0, 773.0, 774.0, 775.0, 774.0, 774.0, 774.0, 773.0, 773.0, 771.0, 771.0, 772.0, 773.0, 774.0, 773.0, 774.0, 774.0, 774.0, 774.0, 774.0, 775.0, 775.0, 775.0, 774.0, 774.0, 773.0, 773.0, 772.0, 772.0, 772.0, 773.0, 774.0, 775.0, 776.0, 776.0, 777.0, 777.0, 776.0, 776.0, 775.0, 776.0, 775.0, 775.0, 776.0, 776.0, 776.0, 775.0, 776.0, 776.0, 776.0, 776.0, 778.0, 778.0, 778.0, 778.0, 777.0, 778.0, 776.0, 775.0, 775.0, 775.0, 776.0, 777.0, 777.0, 776.0, 776.0, 776.0, 775.0, 776.0, 776.0, 776.0, 776.0, 773.0, 773.0, 770.0, 770.0, 769.0, 768.0, 768.0, 767.0, 769.0, 769.0, 768.0],
      "WindowWidth": [1722.0, 1714.0, 1711.0, 1712.0, 1714.0, 1714.0, 1708.0, 1706.0, 1709.0, 1712.0, 1711.0, 1711.0, 1711.0, 1716.0, 1719.0, 1721.0, 1721.0, 1725.0, 1722.0, 1721.0, 1719.0, 1720.0, 1723.0, 1726.0, 1725.0, 1723.0, 1722.0, 1723.0, 1726.0, 1725.0, 1718.0, 1715.0, 1715.0, 1716.0, 1713.0, 1711.0, 1711.0, 1710.0, 1705.0, 1707.0, 1707.0, 1712.0, 1712.0, 1710.0, 1711.0, 1716.0, 1717.0, 1716.0, 1715.0, 1714.0, 1715.0, 1714.0, 1716.0, 1718.0, 1718.0, 1718.0, 1717.0, 1715.0, 1711.0, 1708.0, 1711.0, 1716.0, 1714.0, 1715.0, 1716.0, 1717.0, 1716.0, 1718.0, 1720.0, 1719.0, 1717.0, 1717.0, 1715.0, 1713.0, 1708.0, 1710.0, 1711.0, 1711.0, 1709.0, 1710.0, 1707.0, 1706.0, 1702.0, 1702.0, 1704.0, 1706.0, 1709.0, 1706.0, 1709.0, 1711.0, 1710.0, 1710.0, 1708.0, 1711.0, 1712.0, 1712.0, 1711.0, 1709.0, 1707.0, 1705.0, 1703.0, 1705.0, 1704.0, 1706.0, 1710.0, 1712.0, 1715.0, 1717.0, 1718.0, 1717.0, 1716.0, 1714.0, 1714.0, 1716.0, 1712.0, 1713.0, 1714.0, 1715.0, 1715.0, 1714.0, 1715.0, 1715.0, 1714.0, 1717.0, 1722.0, 1723.0, 1722.0, 1722.0, 1720.0, 1720.0, 1717.0, 1714.0, 1712.0, 1713.0, 1716.0, 1717.0, 1718.0, 1716.0, 1715.0, 1715.0, 1713.0, 1716.0, 1716.0, 1716.0, 1713.0, 1706.0, 1705.0, 1695.0, 1696.0, 1692.0, 1691.0, 1691.0, 1689.0, 1694.0, 1695.0, 1691.0]
    },
    "slices": {}
  }
}