{
  "AcquisitionMatrixPE": 100,
  "AcquisitionNumber": 1,
  "AcquisitionTime": "16:53:20.495000",
  "BandwidthPerPixelPhaseEncode": 18.519,
  "BaseResolution": 100,
  "BodyPartExamined": "BRAIN",
  "CoilCombinationMethod": "Sum of Squares",
  "ConsistencyInfo": "N4_VE11C_LATEST_20160120",
  "ConversionSoftware": "dcm2niix",
  "ConversionSoftwareVersion": "v1.0.20211006",
  "DerivedVendorReportedEchoSpacing": 0.000539986,
  "DeviceSerialNumber": "166078",
  "DwellTime": 2.1e-06,
  "EchoTime": 0.034,
  "EchoTrainLength": 100,
  "EffectiveEchoSpacing": 0.000539986,
  "FlipAngle": 90,
  "ImageOrientationPatientDICOM": [1, 0, 0, 0, 0.997053, -0.076719],
  "ImageOrientationText": "Tra>Cor(-4.4)",
  "ImageType": [
    "ORIGINAL",
    "PRIMARY",
    "M",
    "ND",
    "MOSAIC"
],
  "ImagingFrequency": 123.258,
  "InPlanePhaseEncodingDirectionDICOM": "COL",
  "InstitutionAddress": "Street StreetNo,Bei Jing,District,CN,ZIP",
  "InstitutionName": "BeiJing Normal University",
  "InstitutionalDepartmentName": "Department",
  "MRAcquisitionType": "2D",
  "MagneticFieldStrength": 3,
  "Manufacturer": "Siemens",
  "ManufacturersModelName": "Prisma",
  "Modality": "MR",
  "MultibandAccelerationFactor": 3,
  "PartialFourier": 1,
  "PatientPosition": "HFS",
  "PercentPhaseFOV": 100,
  "PercentSampling": 100,
  "PhaseEncodingDirection": "j-",
  "PhaseEncodingSteps": 100,
  "PhaseResolution": 1,
  "PixelBandwidth": 2380,
  "ProcedureStepDescription": "BNU_P2018_64CH^Zhen.ZongLei",
  "ProtocolName": "bold_100x100_s3_2x2x2_static_156",
  "PulseSequenceDetails": "%SiemensSeq%\\ep2d_bold",
  "ReceiveCoilActiveElements": "HC1-7;NC1",
  "ReceiveCoilName": "HeadNeck_64",
  "ReconMatrixPE": 100,
  "RefLinesPE": 32,
  "RepetitionTime": 2,
  "SAR": 0.0676145,
  "ScanOptions": "FS",
  "ScanningSequence": "EP",
  "SequenceName": "*epfid2d1_100",
  "SequenceVariant": "SK",
  "SeriesDescription": "bold_100x100_s3_2x2x2_static_156",
  "SeriesNumber": 14,
  "ShimSetting": [-5440, -11517, -1244, 505, 102, -237, -185, 8],
  "SliceThickness": 2,
  "SliceTiming": [1.485, 0, 0.99, 0.0825, 1.0725, 0.165, 1.155, 0.2475, 1.2375, 0.33, 1.32, 0.4125, 1.4025, 0.5775, 1.5675, 0.66, 1.65, 0.7425, 1.7325, 0.825, 1.815, 0.9075, 1.8975, 0.495, 1.485, 0, 0.99, 0.0825, 1.0725, 0.165, 1.155, 0.2475, 1.2375, 0.33, 1.32, 0.4125, 1.4025, 0.5775, 1.5675, 0.66, 1.65, 0.7425, 1.7325, 0.825, 1.815, 0.9075, 1.8975, 0.495, 1.485, 0, 0.99, 0.0825, 1.0725, 0.165, 1.155, 0.2475, 1.2375, 0.33, 1.32, 0.4125, 1.4025, 0.5775, 1.5675, 0.66, 1.65, 0.7425, 1.7325, 0.825, 1.815, 0.9075, 1.8975, 0.495],
  "SoftwareVersions": "syngo MR E11",
  "SpacingBetweenSlices": 2,
  "StationName": "AWP166078",
  "TaskName": "action",
  "TotalReadoutTime": 0.0534586,
  "TxRefAmp": 205.285,
  "dcmmeta_affine": [
    [-2.0, 0.0, 0.0, 100.0],
    [0.0, 1.9941054582595825, -0.1534380465745926, -90.78712463378906],
    [0.0, 0.1534380465745926, 1.9941054582595825, -63.29710388183594],
    [0.0, 0.0, 0.0, 1.0]
],
  "dcmmeta_reorient_transform": [
    [0.0, -1.0, 0.0, 99.0],
    [1.0, 0.0, 0.0, 0.0],
    [0.0, 0.0, 1.0, 0.0],
    [0.0, 0.0, 0.0, 1.0]
],
  "dcmmeta_shape": [100, 100, 72, 156],
  "dcmmeta_slice_dim": 2,
  "dcmmeta_version": 0.6,
  "global": {
    "const": {
      "AcquisitionMatrix": [100, 0, 0, 100],
      "AngioFlag": "N",
      "BitsAllocated": 16,
      "BitsStored": 12,
      "BodyPartExamined": "BRAIN",
      "Columns": 900,
      "EchoNumbers": 1,
      "EchoTime": 34.0,
      "EchoTrainLength": 100,
      "FlipAngle": 90.0,
      "HighBit": 11,
      "ImageOrientationPatient": [1.0, 0.0, 0.0, 0.0, 0.99705275241223, -0.0767190257186],
      "ImagePositionPatient": [-900.0, -904.27152559477, 13.268482399648],
      "ImageType": [
        "ORIGINAL",
        "PRIMARY",
        "M",
        "ND",
        "MOSAIC"
],
      "ImagedNucleus": "1H",
      "ImagingFrequency": 123.257714,
      "InPlanePhaseEncodingDirection": "COL",
      "MRAcquisitionType": "2D",
      "MagneticFieldStrength": 3.0,
      "Manufacturer": "SIEMENS",
      "ManufacturerModelName": "Prisma",
      "Modality": "MR",
      "NumberOfAverages": 1.0,
      "NumberOfPhaseEncodingSteps": 100,
      "PercentPhaseFieldOfView": 100.0,
      "PercentSampling": 100.0,
      "PerformedProcedureStepStartTime": "153748.728000",
      "PhotometricInterpretation": "MONOCHROME2",
      "PixelBandwidth": 2380.0,
      "PixelRepresentation": 0,
      "PixelSpacing": [2.0, 2.0],
      "ProtocolName": "bold_100x100_s3_2x2x2_static_156",
      "RepetitionTime": 2000.0,
      "Rows": 900,
      "SAR": 0.06761446202849,
      "SamplesPerPixel": 1,
      "ScanOptions": "FS",
      "ScanningSequence": "EP",
      "SequenceName": "*epfid2d1_100",
      "SequenceVariant": "SK",
      "SeriesDescription": "bold_100x100_s3_2x2x2_static_156",
      "SeriesNumber": 14,
      "SeriesTime": "165322.971000",
      "SliceLocation": -56.145453531779,
      "SliceThickness": 2.0,
      "SmallestImagePixelValue": 0,
      "SoftwareVersions": "syngo MR E11",
      "SpacingBetweenSlices": 1.999999982254,
      "SpecificCharacterSet": "ISO_IR 100",
      "StudyID": "1",
      "StudyTime": "153748.609000",
      "TransmitCoilName": "Body",
      "VariableFlipAngleFlag": "N",
      "WindowCenterWidthExplanation": "Algo1",
      "dBdt": 0.0},
    "slices": {}
  },
  "time": {
    "samples": {
      "AcquisitionNumber": [1, 2, 3, 4, 5, 6, 7, 8, 9, 10, 11, 12, 13, 14, 15, 16, 17, 18, 19, 20, 21, 22, 23, 24, 25, 26, 27, 28, 29, 30, 31, 32, 33, 34, 35, 36, 37, 38, 39, 40, 41, 42, 43, 44, 45, 46, 47, 48, 49, 50, 51, 52, 53, 54, 55, 56, 57, 58, 59, 60, 61, 62, 63, 64, 65, 66, 67, 68, 69, 70, 71, 72, 73, 74, 75, 76, 77, 78, 79, 80, 81, 82, 83, 84, 85, 86, 87, 88, 89, 90, 91, 92, 93, 94, 95, 96, 97, 98, 99, 100, 101, 102, 103, 104, 105, 106, 107, 108, 109, 110, 111, 112, 113, 114, 115, 116, 117, 118, 119, 120, 121, 122, 123, 124, 125, 126, 127, 128, 129, 130, 131, 132, 133, 134, 135, 136, 137, 138, 139, 140, 141, 142, 143, 144, 145, 146, 147, 148, 149, 150, 151, 152, 153, 154, 155, 156],
      "AcquisitionTime": ["165320.495000", "165322.495000", "165324.495000", "165326.495000", "165328.495000", "165330.495000", "165332.495000", "165334.495000", "165336.495000", "165338.495000", "165340.495000", "165342.495000", "165344.495000", "165346.495000", "165348.495000", "165350.495000", "165352.495000", "165354.495000", "165356.495000", "165358.495000", "165400.495000", "165402.495000", "165404.495000", "165406.495000", "165408.495000", "165410.495000", "165412.495000", "165414.495000", "165416.495000", "165418.495000", "165420.495000", "165422.495000", "165424.495000", "165426.495000", "165428.495000", "165430.495000", "165432.495000", "165434.495000", "165436.495000", "165438.495000", "165440.495000", "165442.495000", "165444.495000", "165446.495000", "165448.495000", "165450.495000", "165452.495000", "165454.495000", "165456.495000", "165458.495000", "165500.495000", "165502.495000", "165504.495000", "165506.495000", "165508.495000", "165510.495000", "165512.495000", "165514.495000", "165516.495000", "165518.495000", "165520.495000", "165522.495000", "165524.495000", "165526.495000", "165528.495000", "165530.495000", "165532.495000", "165534.495000", "165536.495000", "165538.495000", "165540.495000", "165542.495000", "165544.495000", "165546.495000", "165548.495000", "165550.495000", "165552.495000", "165554.495000", "165556.495000", "165558.495000", "165600.495000", "165602.495000", "165604.495000", "165606.495000", "165608.495000", "165610.495000", "165612.495000", "165614.495000", "165616.495000", "165618.495000", "165620.495000", "165622.495000", "165624.495000", "165626.495000", "165628.495000", "165630.495000", "165632.495000", "165634.495000", "165636.495000", "165638.495000", "165640.495000", "165642.495000", "165644.495000", "165646.495000", "165648.495000", "165650.495000", "165652.495000", "165654.495000", "165656.495000", "165658.495000", "165700.495000", "165702.495000", "165704.495000", "165706.495000", "165708.495000", "165710.495000", "165712.495000", "165714.495000", "165716.495000", "165718.495000", "165720.495000", "165722.495000", "165724.495000", "165726.495000", "165728.495000", "165730.495000", "165732.495000", "165734.495000", "165736.495000", "165738.495000", "165740.495000", "165742.495000", "165744.495000", "165746.495000", "165748.495000", "165750.495000", "165752.495000", "165754.495000", "165756.495000", "165758.495000", "165800.495000", "165802.495000", "165804.495000", "165806.495000", "165808.495000", "165810.495000", "165812.495000", "165814.495000", "165816.495000", "165818.495000", "165820.495000", "165822.495000", "165824.495000", "165826.495000", "165828.495000", "165830.495000"],
      "ContentTime": ["165322.975000", "165324.470000", "165325.970000", "165327.970000", "165330.471000", "165331.970000", "165333.970000", "165335.969000", "165337.969000", "165339.970000", "165342.471000", "165343.970000", "165345.970000", "165347.971000", "165349.970000", "165352.469000", "165353.969000", "165355.969000", "165358.471000", "165359.971000", "165401.970000", "165403.971000", "165405.971000", "165408.469000", "165409.970000", "165411.969000", "165413.970000", "165415.970000", "165417.970000", "165419.970000", "165421.971000", "165423.971000", "165426.470000", "165427.970000", "165430.469000", "165432.471000", "165433.970000", "165435.971000", "165437.971000", "165440.471000", "165441.970000", "165443.969000", "165446.469000", "165447.969000", "165449.970000", "165451.971000", "165453.971000", "165455.970000", "165457.971000", "165459.971000", "165501.969000", "165503.970000", "165505.970000", "165507.971000", "165509.971000", "165511.971000", "165513.971000", "165515.971000", "165517.971000", "165519.969000", "165521.969000", "165523.969000", "165525.970000", "165527.971000", "165529.971000", "165531.970000", "165533.970000", "165535.970000", "165538.469000", "165539.969000", "165542.471000", "165544.470000", "165546.470000", "165548.471000", "165549.971000", "165551.971000", "165553.970000", "165555.970000", "165557.970000", "165559.971000", "165602.470000", "165604.471000", "165605.970000", "165607.970000", "165610.471000", "165611.970000", "165614.469000", "165616.472000", "165617.970000", "165619.971000", "165622.471000", "165623.971000", "165625.970000", "165627.971000", "165629.969000", "165631.969000", "165633.970000", "165635.970000", "165637.970000", "165639.971000", "165641.971000", "165643.971000", "165646.470000", "165648.470000", "165650.470000", "165651.970000", "165653.971000", "165656.470000", "165658.470000", "165659.971000", "165701.971000", "165703.969000", "165705.970000", "165708.470000", "165709.970000", "165712.470000", "165714.470000", "165715.971000", "165718.471000", "165719.971000", "165721.969000", "165723.970000", "165725.970000", "165728.470000", "165729.970000", "165731.970000", "165733.970000", "165735.971000", "165738.470000", "165739.970000", "165741.970000", "165743.969000", "165745.971000", "165747.970000", "165750.471000", "165751.971000", "165754.471000", "165755.969000", "165757.969000", "165759.969000", "165801.970000", "165803.971000", "165805.971000", "165807.970000", "165810.471000", "165812.471000", "165813.969000", "165815.969000", "165817.970000", "165819.970000", "165822.470000", "165823.970000", "165826.471000", "165828.471000", "165830.471000", "165832.012000"],
      "InstanceCreationTime": ["165322.975000", "165324.470000", "165325.970000", "165327.970000", "165330.471000", "165331.970000", "165333.970000", "165335.969000", "165337.969000", "165339.970000", "165342.471000", "165343.970000", "165345.970000", "165347.971000", "165349.970000", "165352.469000", "165353.969000", "165355.969000", "165358.471000", "165359.971000", "165401.970000", "165403.971000", "165405.971000", "165408.469000", "165409.970000", "165411.969000", "165413.970000", "165415.970000", "165417.970000", "165419.970000", "165421.971000", "165423.971000", "165426.470000", "165427.970000", "165430.469000", "165432.471000", "165433.970000", "165435.971000", "165437.971000", "165440.471000", "165441.970000", "165443.969000", "165446.469000", "165447.969000", "165449.970000", "165451.971000", "165453.971000", "165455.970000", "165457.971000", "165459.971000", "165501.969000", "165503.970000", "165505.970000", "165507.971000", "165509.971000", "165511.971000", "165513.971000", "165515.971000", "165517.971000", "165519.969000", "165521.969000", "165523.969000", "165525.970000", "165527.971000", "165529.971000", "165531.970000", "165533.970000", "165535.970000", "165538.469000", "165539.969000", "165542.471000", "165544.470000", "165546.470000", "165548.471000", "165549.971000", "165551.971000", "165553.970000", "165555.970000", "165557.970000", "165559.971000", "165602.470000", "165604.471000", "165605.970000", "165607.970000", "165610.471000", "165611.970000", "165614.469000", "165616.472000", "165617.970000", "165619.971000", "165622.471000", "165623.971000", "165625.970000", "165627.971000", "165629.969000", "165631.969000", "165633.970000", "165635.970000", "165637.970000", "165639.971000", "165641.971000", "165643.971000", "165646.470000", "165648.470000", "165650.470000", "165651.970000", "165653.971000", "165656.470000", "165658.470000", "165659.971000", "165701.971000", "165703.969000", "165705.970000", "165708.470000", "165709.970000", "165712.470000", "165714.470000", "165715.971000", "165718.471000", "165719.971000", "165721.969000", "165723.970000", "165725.970000", "165728.470000", "165729.970000", "165731.970000", "165733.970000", "165735.971000", "165738.470000", "165739.970000", "165741.970000", "165743.969000", "165745.971000", "165747.970000", "165750.471000", "165751.971000", "165754.471000", "165755.969000", "165757.969000", "165759.969000", "165801.970000", "165803.971000", "165805.971000", "165807.970000", "165810.471000", "165812.471000", "165813.969000", "165815.969000", "165817.970000", "165819.970000", "165822.470000", "165823.970000", "165826.471000", "165828.471000", "165830.471000", "165832.012000"],
      "InstanceNumber": [1, 2, 3, 4, 5, 6, 7, 8, 9, 10, 11, 12, 13, 14, 15, 16, 17, 18, 19, 20, 21, 22, 23, 24, 25, 26, 27, 28, 29, 30, 31, 32, 33, 34, 35, 36, 37, 38, 39, 40, 41, 42, 43, 44, 45, 46, 47, 48, 49, 50, 51, 52, 53, 54, 55, 56, 57, 58, 59, 60, 61, 62, 63, 64, 65, 66, 67, 68, 69, 70, 71, 72, 73, 74, 75, 76, 77, 78, 79, 80, 81, 82, 83, 84, 85, 86, 87, 88, 89, 90, 91, 92, 93, 94, 95, 96, 97, 98, 99, 100, 101, 102, 103, 104, 105, 106, 107, 108, 109, 110, 111, 112, 113, 114, 115, 116, 117, 118, 119, 120, 121, 122, 123, 124, 125, 126, 127, 128, 129, 130, 131, 132, 133, 134, 135, 136, 137, 138, 139, 140, 141, 142, 143, 144, 145, 146, 147, 148, 149, 150, 151, 152, 153, 154, 155, 156],
      "LargestImagePixelValue": [3088, 3186, 3198, 3182, 3252, 3214, 3222, 3210, 3241, 3313, 3291, 3282, 3275, 3295, 3300, 3258, 3257, 3295, 3260, 3318, 3290, 3296, 3336, 3310, 3275, 3300, 3295, 3312, 3330, 3300, 3330, 3335, 3300, 3330, 3274, 3299, 3311, 3305, 3313, 3281, 3313, 3283, 3285, 3280, 3290, 3261, 3272, 3260, 3293, 3277, 3254, 3255, 3280, 3245, 3254, 3252, 3261, 3263, 3260, 3283, 3260, 3260, 3237, 3296, 3270, 3280, 3247, 3272, 3242, 3282, 3284, 3281, 3277, 3279, 3262, 3279, 3301, 3259, 3262, 3305, 3251, 3273, 3283, 3261, 3254, 3269, 3269, 3266, 3265, 3275, 3271, 3245, 3259, 3256, 3258, 3257, 3267, 3271, 3262, 3248, 3283, 3281, 3266, 3254, 3265, 3280, 3262, 3275, 3262, 3268, 3263, 3277, 3265, 3288, 3254, 3251, 3274, 3264, 3264, 3251, 3274, 3262, 3282, 3268, 3269, 3262, 3262, 3280, 3239, 3256, 3236, 3244, 3258, 3249, 3261, 3253, 3244, 3268, 3258, 3262, 3260, 3280, 3244, 3270, 3283, 3266, 3279, 3260, 3238, 3246, 3239, 3246, 3268, 3267, 3266, 3263],
      "WindowCenter": [719.0, 718.0, 718.0, 717.0, 718.0, 717.0, 717.0, 718.0, 719.0, 720.0, 718.0, 717.0, 717.0, 718.0, 718.0, 717.0, 717.0, 717.0, 716.0, 717.0, 717.0, 718.0, 718.0, 717.0, 717.0, 717.0, 717.0, 718.0, 718.0, 717.0, 717.0, 717.0, 717.0, 717.0, 716.0, 717.0, 717.0, 717.0, 717.0, 717.0, 717.0, 717.0, 717.0, 715.0, 716.0, 716.0, 718.0, 718.0, 717.0, 716.0, 715.0, 715.0, 715.0, 716.0, 716.0, 716.0, 716.0, 715.0, 716.0, 716.0, 715.0, 716.0, 716.0, 718.0, 719.0, 718.0, 716.0, 716.0, 716.0, 717.0, 717.0, 717.0, 716.0, 716.0, 716.0, 717.0, 717.0, 717.0, 717.0, 717.0, 717.0, 716.0, 716.0, 716.0, 716.0, 716.0, 715.0, 715.0, 716.0, 716.0, 715.0, 714.0, 715.0, 716.0, 715.0, 715.0, 714.0, 715.0, 715.0, 715.0, 715.0, 715.0, 714.0, 714.0, 715.0, 716.0, 716.0, 716.0, 715.0, 716.0, 715.0, 715.0, 714.0, 714.0, 714.0, 716.0, 717.0, 716.0, 714.0, 713.0, 713.0, 714.0, 716.0, 716.0, 717.0, 717.0, 716.0, 715.0, 714.0, 714.0, 714.0, 714.0, 715.0, 714.0, 714.0, 715.0, 715.0, 715.0, 714.0, 715.0, 715.0, 716.0, 715.0, 716.0, 716.0, 716.0, 716.0, 715.0, 715.0, 715.0, 715.0, 714.0, 716.0, 717.0, 716.0, 714.0],
      "WindowWidth": [1564.0, 1562.0, 1563.0, 1560.0, 1561.0, 1560.0, 1560.0, 1561.0, 1565.0, 1567.0, 1563.0, 1560.0, 1560.0, 1562.0, 1562.0, 1561.0, 1560.0, 1560.0, 1557.0, 1559.0, 1558.0, 1561.0, 1563.0, 1559.0, 1558.0, 1559.0, 1560.0, 1562.0, 1562.0, 1561.0, 1560.0, 1559.0, 1558.0, 1558.0, 1556.0, 1560.0, 1561.0, 1559.0, 1560.0, 1559.0, 1560.0, 1559.0, 1558.0, 1554.0, 1556.0, 1558.0, 1563.0, 1562.0, 1560.0, 1558.0, 1554.0, 1553.0, 1555.0, 1556.0, 1558.0, 1558.0, 1556.0, 1555.0, 1557.0, 1557.0, 1555.0, 1557.0, 1558.0, 1563.0, 1564.0, 1562.0, 1555.0, 1555.0, 1555.0, 1559.0, 1560.0, 1558.0, 1558.0, 1558.0, 1558.0, 1559.0, 1560.0, 1560.0, 1560.0, 1559.0, 1558.0, 1557.0, 1557.0, 1556.0, 1558.0, 1557.0, 1555.0, 1555.0, 1556.0, 1555.0, 1554.0, 1551.0, 1553.0, 1556.0, 1554.0, 1553.0, 1552.0, 1554.0, 1555.0, 1554.0, 1554.0, 1553.0, 1550.0, 1551.0, 1553.0, 1556.0, 1556.0, 1555.0, 1553.0, 1556.0, 1555.0, 1554.0, 1553.0, 1552.0, 1552.0, 1556.0, 1559.0, 1555.0, 1552.0, 1549.0, 1549.0, 1552.0, 1556.0, 1558.0, 1559.0, 1558.0, 1555.0, 1554.0, 1551.0, 1551.0, 1550.0, 1550.0, 1553.0, 1552.0, 1551.0, 1553.0, 1553.0, 1553.0, 1551.0, 1552.0, 1555.0, 1556.0, 1553.0, 1555.0, 1556.0, 1558.0, 1557.0, 1553.0, 1554.0, 1553.0, 1554.0, 1552.0, 1556.0, 1558.0, 1555.0, 1551.0]
    },
    "slices": {}
  }
}