{
  "AcquisitionMatrixPE": 100,
  "AcquisitionNumber": 1,
  "AcquisitionTime": "16:07:12.802500",
  "BandwidthPerPixelPhaseEncode": 18.519,
  "BaseResolution": 100,
  "BodyPartExamined": "BRAIN",
  "CoilCombinationMethod": "Sum of Squares",
  "ConsistencyInfo": "N4_VE11C_LATEST_20160120",
  "ConversionSoftware": "dcm2niix",
  "ConversionSoftwareVersion": "v1.0.20211006",
  "DerivedVendorReportedEchoSpacing": 0.000539986,
  "DeviceSerialNumber": "166078",
  "DwellTime": 2.1e-06,
  "EchoTime": 0.034,
  "EchoTrainLength": 100,
  "EffectiveEchoSpacing": 0.000539986,
  "FlipAngle": 90,
  "ImageOrientationPatientDICOM": [1, 0, 0, 0, 0.997053, -0.076719],
  "ImageOrientationText": "Tra>Cor(-4.4)",
  "ImageType": [
    "ORIGINAL",
    "PRIMARY",
    "M",
    "ND",
    "MOSAIC"
],
  "ImagingFrequency": 123.258,
  "InPlanePhaseEncodingDirectionDICOM": "COL",
  "InstitutionAddress": "Street StreetNo,Bei Jing,District,CN,ZIP",
  "InstitutionName": "BeiJing Normal University",
  "InstitutionalDepartmentName": "Department",
  "MRAcquisitionType": "2D",
  "MagneticFieldStrength": 3,
  "Manufacturer": "Siemens",
  "ManufacturersModelName": "Prisma",
  "Modality": "MR",
  "MultibandAccelerationFactor": 3,
  "PartialFourier": 1,
  "PatientPosition": "HFS",
  "PercentPhaseFOV": 100,
  "PercentSampling": 100,
  "PhaseEncodingDirection": "j-",
  "PhaseEncodingSteps": 100,
  "PhaseResolution": 1,
  "PixelBandwidth": 2380,
  "ProcedureStepDescription": "BNU_P2018_64CH^Zhen.ZongLei",
  "ProtocolName": "bold_100x100_s3_2x2x2_static_156",
  "PulseSequenceDetails": "%SiemensSeq%\\ep2d_bold",
  "ReceiveCoilActiveElements": "HC1-7;NC1",
  "ReceiveCoilName": "HeadNeck_64",
  "ReconMatrixPE": 100,
  "RefLinesPE": 32,
  "RepetitionTime": 2,
  "SAR": 0.0676145,
  "ScanOptions": "FS",
  "ScanningSequence": "EP",
  "SequenceName": "*epfid2d1_100",
  "SequenceVariant": "SK",
  "SeriesDescription": "bold_100x100_s3_2x2x2_static_156",
  "SeriesNumber": 6,
  "ShimSetting": [-5440, -11517, -1244, 505, 102, -237, -185, 8],
  "SliceThickness": 2,
  "SliceTiming": [1.485, 0, 0.99, 0.0825, 1.0725, 0.165, 1.155, 0.2475, 1.2375, 0.33, 1.32, 0.4125, 1.4025, 0.5775, 1.5675, 0.66, 1.65, 0.7425, 1.7325, 0.825, 1.815, 0.9075, 1.8975, 0.495, 1.485, 0, 0.99, 0.0825, 1.0725, 0.165, 1.155, 0.2475, 1.2375, 0.33, 1.32, 0.4125, 1.4025, 0.5775, 1.5675, 0.66, 1.65, 0.7425, 1.7325, 0.825, 1.815, 0.9075, 1.8975, 0.495, 1.485, 0, 0.99, 0.0825, 1.0725, 0.165, 1.155, 0.2475, 1.2375, 0.33, 1.32, 0.4125, 1.4025, 0.5775, 1.5675, 0.66, 1.65, 0.7425, 1.7325, 0.825, 1.815, 0.9075, 1.8975, 0.495],
  "SoftwareVersions": "syngo MR E11",
  "SpacingBetweenSlices": 2,
  "StationName": "AWP166078",
  "TaskName": "action",
  "TotalReadoutTime": 0.0534586,
  "TxRefAmp": 205.285,
  "dcmmeta_affine": [
    [-2.0, 0.0, 0.0, 100.0],
    [0.0, 1.9941054582595825, -0.1534380465745926, -90.78712463378906],
    [0.0, 0.1534380465745926, 1.9941054582595825, -63.29710388183594],
    [0.0, 0.0, 0.0, 1.0]
],
  "dcmmeta_reorient_transform": [
    [0.0, -1.0, 0.0, 99.0],
    [1.0, 0.0, 0.0, 0.0],
    [0.0, 0.0, 1.0, 0.0],
    [0.0, 0.0, 0.0, 1.0]
],
  "dcmmeta_shape": [100, 100, 72, 156],
  "dcmmeta_slice_dim": 2,
  "dcmmeta_version": 0.6,
  "global": {
    "const": {
      "AcquisitionMatrix": [100, 0, 0, 100],
      "AngioFlag": "N",
      "BitsAllocated": 16,
      "BitsStored": 12,
      "BodyPartExamined": "BRAIN",
      "Columns": 900,
      "EchoNumbers": 1,
      "EchoTime": 34.0,
      "EchoTrainLength": 100,
      "FlipAngle": 90.0,
      "HighBit": 11,
      "ImageOrientationPatient": [1.0, 0.0, 0.0, 0.0, 0.99705275241223, -0.0767190257186],
      "ImagePositionPatient": [-900.0, -904.27152559477, 13.268482399648],
      "ImageType": [
        "ORIGINAL",
        "PRIMARY",
        "M",
        "ND",
        "MOSAIC"
],
      "ImagedNucleus": "1H",
      "ImagingFrequency": 123.257713,
      "InPlanePhaseEncodingDirection": "COL",
      "MRAcquisitionType": "2D",
      "MagneticFieldStrength": 3.0,
      "Manufacturer": "SIEMENS",
      "ManufacturerModelName": "Prisma",
      "Modality": "MR",
      "NumberOfAverages": 1.0,
      "NumberOfPhaseEncodingSteps": 100,
      "PercentPhaseFieldOfView": 100.0,
      "PercentSampling": 100.0,
      "PerformedProcedureStepStartTime": "153748.728000",
      "PhotometricInterpretation": "MONOCHROME2",
      "PixelBandwidth": 2380.0,
      "PixelRepresentation": 0,
      "PixelSpacing": [2.0, 2.0],
      "ProtocolName": "bold_100x100_s3_2x2x2_static_156",
      "RepetitionTime": 2000.0,
      "Rows": 900,
      "SAR": 0.06761446202849,
      "SamplesPerPixel": 1,
      "ScanOptions": "FS",
      "ScanningSequence": "EP",
      "SequenceName": "*epfid2d1_100",
      "SequenceVariant": "SK",
      "SeriesDescription": "bold_100x100_s3_2x2x2_static_156",
      "SeriesNumber": 6,
      "SeriesTime": "160715.451000",
      "SliceLocation": -56.145453531779,
      "SliceThickness": 2.0,
      "SmallestImagePixelValue": 0,
      "SoftwareVersions": "syngo MR E11",
      "SpacingBetweenSlices": 1.999999982254,
      "SpecificCharacterSet": "ISO_IR 100",
      "StudyID": "1",
      "StudyTime": "153748.609000",
      "TransmitCoilName": "Body",
      "VariableFlipAngleFlag": "N",
      "WindowCenterWidthExplanation": "Algo1",
      "dBdt": 0.0},
    "slices": {}
  },
  "time": {
    "samples": {
      "AcquisitionNumber": [1, 2, 3, 4, 5, 6, 7, 8, 9, 10, 11, 12, 13, 14, 15, 16, 17, 18, 19, 20, 21, 22, 23, 24, 25, 26, 27, 28, 29, 30, 31, 32, 33, 34, 35, 36, 37, 38, 39, 40, 41, 42, 43, 44, 45, 46, 47, 48, 49, 50, 51, 52, 53, 54, 55, 56, 57, 58, 59, 60, 61, 62, 63, 64, 65, 66, 67, 68, 69, 70, 71, 72, 73, 74, 75, 76, 77, 78, 79, 80, 81, 82, 83, 84, 85, 86, 87, 88, 89, 90, 91, 92, 93, 94, 95, 96, 97, 98, 99, 100, 101, 102, 103, 104, 105, 106, 107, 108, 109, 110, 111, 112, 113, 114, 115, 116, 117, 118, 119, 120, 121, 122, 123, 124, 125, 126, 127, 128, 129, 130, 131, 132, 133, 134, 135, 136, 137, 138, 139, 140, 141, 142, 143, 144, 145, 146, 147, 148, 149, 150, 151, 152, 153, 154, 155, 156],
      "AcquisitionTime": ["160712.802500", "160714.802500", "160716.802500", "160718.802500", "160720.802500", "160722.802500", "160724.802500", "160726.802500", "160728.802500", "160730.802500", "160732.802500", "160734.802500", "160736.802500", "160738.802500", "160740.802500", "160742.802500", "160744.802500", "160746.802500", "160748.802500", "160750.802500", "160752.802500", "160754.802500", "160756.802500", "160758.802500", "160800.802500", "160802.802500", "160804.802500", "160806.802500", "160808.802500", "160810.802500", "160812.802500", "160814.802500", "160816.802500", "160818.802500", "160820.802500", "160822.802500", "160824.802500", "160826.802500", "160828.802500", "160830.802500", "160832.802500", "160834.802500", "160836.802500", "160838.802500", "160840.802500", "160842.802500", "160844.802500", "160846.802500", "160848.802500", "160850.802500", "160852.802500", "160854.802500", "160856.802500", "160858.802500", "160900.802500", "160902.802500", "160904.802500", "160906.802500", "160908.802500", "160910.802500", "160912.802500", "160914.802500", "160916.802500", "160918.802500", "160920.802500", "160922.802500", "160924.802500", "160926.802500", "160928.802500", "160930.802500", "160932.802500", "160934.802500", "160936.802500", "160938.802500", "160940.802500", "160942.802500", "160944.802500", "160946.802500", "160948.802500", "160950.802500", "160952.802500", "160954.802500", "160956.802500", "160958.802500", "161000.802500", "161002.802500", "161004.802500", "161006.802500", "161008.802500", "161010.802500", "161012.802500", "161014.802500", "161016.802500", "161018.802500", "161020.802500", "161022.802500", "161024.802500", "161026.802500", "161028.802500", "161030.802500", "161032.802500", "161034.802500", "161036.802500", "161038.802500", "161040.802500", "161042.802500", "161044.802500", "161046.802500", "161048.802500", "161050.802500", "161052.802500", "161054.802500", "161056.802500", "161058.802500", "161100.802500", "161102.802500", "161104.802500", "161106.802500", "161108.802500", "161110.802500", "161112.802500", "161114.802500", "161116.802500", "161118.802500", "161120.802500", "161122.802500", "161124.802500", "161126.802500", "161128.802500", "161130.802500", "161132.802500", "161134.802500", "161136.802500", "161138.802500", "161140.802500", "161142.802500", "161144.802500", "161146.802500", "161148.802500", "161150.802500", "161152.802500", "161154.802500", "161156.802500", "161158.802500", "161200.802500", "161202.802500", "161204.802500", "161206.802500", "161208.802500", "161210.802500", "161212.802500", "161214.802500", "161216.802500", "161218.802500", "161220.802500", "161222.802500"],
      "ContentTime": ["160715.454000", "160716.950000", "160718.950000", "160720.950000", "160722.949000", "160724.950000", "160726.949000", "160728.950000", "160730.950000", "160732.949000", "160734.949000", "160736.949000", "160738.950000", "160740.950000", "160742.950000", "160744.949000", "160746.949000", "160748.949000", "160750.949000", "160752.950000", "160754.950000", "160756.950000", "160758.950000", "160800.950000", "160802.949000", "160804.950000", "160806.950000", "160808.949000", "160810.950000", "160812.949000", "160814.950000", "160816.950000", "160818.949000", "160820.950000", "160822.949000", "160824.950000", "160826.949000", "160828.950000", "160830.950000", "160832.950000", "160834.950000", "160836.950000", "160838.950000", "160840.950000", "160842.950000", "160844.950000", "160846.950000", "160848.949000", "160850.950000", "160852.950000", "160854.950000", "160856.950000", "160858.950000", "160900.950000", "160902.949000", "160904.949000", "160906.950000", "160908.950000", "160910.950000", "160912.950000", "160914.950000", "160916.950000", "160918.949000", "160920.950000", "160922.949000", "160924.949000", "160926.949000", "160928.949000", "160930.950000", "160932.950000", "160934.950000", "160936.950000", "160938.949000", "160940.950000", "160942.950000", "160944.949000", "160946.949000", "160948.949000", "160950.950000", "160952.949000", "160954.949000", "160956.950000", "160958.950000", "161000.949000", "161002.949000", "161004.950000", "161006.949000", "161008.949000", "161010.950000", "161012.949000", "161014.949000", "161016.950000", "161018.950000", "161020.950000", "161022.950000", "161024.950000", "161026.950000", "161028.950000", "161030.950000", "161032.950000", "161034.950000", "161036.950000", "161038.949000", "161040.950000", "161042.950000", "161044.950000", "161046.950000", "161048.950000", "161050.950000", "161052.950000", "161054.949000", "161056.951000", "161058.950000", "161100.950000", "161102.950000", "161104.950000", "161106.951000", "161108.950000", "161110.950000", "161112.950000", "161114.950000", "161116.963000", "161118.950000", "161120.949000", "161122.950000", "161124.950000", "161126.950000", "161128.949000", "161130.950000", "161132.950000", "161134.950000", "161136.950000", "161138.950000", "161140.949000", "161142.950000", "161144.949000", "161146.949000", "161148.950000", "161150.949000", "161152.950000", "161154.950000", "161156.950000", "161158.950000", "161200.949000", "161202.950000", "161204.949000", "161206.950000", "161208.950000", "161210.950000", "161212.949000", "161214.949000", "161216.950000", "161218.950000", "161220.950000", "161222.950000", "161224.765000"],
      "InstanceCreationTime": ["160715.454000", "160716.950000", "160718.950000", "160720.950000", "160722.949000", "160724.950000", "160726.949000", "160728.950000", "160730.950000", "160732.949000", "160734.949000", "160736.949000", "160738.950000", "160740.950000", "160742.950000", "160744.949000", "160746.949000", "160748.949000", "160750.949000", "160752.950000", "160754.950000", "160756.950000", "160758.950000", "160800.950000", "160802.949000", "160804.950000", "160806.950000", "160808.949000", "160810.950000", "160812.949000", "160814.950000", "160816.950000", "160818.949000", "160820.950000", "160822.949000", "160824.950000", "160826.949000", "160828.950000", "160830.950000", "160832.950000", "160834.950000", "160836.950000", "160838.950000", "160840.950000", "160842.950000", "160844.950000", "160846.950000", "160848.949000", "160850.950000", "160852.950000", "160854.950000", "160856.950000", "160858.950000", "160900.950000", "160902.949000", "160904.949000", "160906.950000", "160908.950000", "160910.950000", "160912.950000", "160914.950000", "160916.950000", "160918.949000", "160920.950000", "160922.949000", "160924.949000", "160926.949000", "160928.949000", "160930.950000", "160932.950000", "160934.950000", "160936.950000", "160938.949000", "160940.950000", "160942.950000", "160944.949000", "160946.949000", "160948.949000", "160950.950000", "160952.949000", "160954.949000", "160956.950000", "160958.950000", "161000.949000", "161002.949000", "161004.950000", "161006.949000", "161008.949000", "161010.950000", "161012.949000", "161014.949000", "161016.950000", "161018.950000", "161020.950000", "161022.950000", "161024.950000", "161026.950000", "161028.950000", "161030.950000", "161032.950000", "161034.950000", "161036.950000", "161038.949000", "161040.950000", "161042.950000", "161044.950000", "161046.950000", "161048.950000", "161050.950000", "161052.950000", "161054.949000", "161056.951000", "161058.950000", "161100.950000", "161102.950000", "161104.950000", "161106.951000", "161108.950000", "161110.950000", "161112.950000", "161114.950000", "161116.963000", "161118.950000", "161120.949000", "161122.950000", "161124.950000", "161126.950000", "161128.949000", "161130.950000", "161132.950000", "161134.950000", "161136.950000", "161138.950000", "161140.949000", "161142.950000", "161144.949000", "161146.949000", "161148.950000", "161150.949000", "161152.950000", "161154.950000", "161156.950000", "161158.950000", "161200.949000", "161202.950000", "161204.949000", "161206.950000", "161208.950000", "161210.950000", "161212.949000", "161214.949000", "161216.950000", "161218.950000", "161220.950000", "161222.950000", "161224.765000"],
      "InstanceNumber": [1, 2, 3, 4, 5, 6, 7, 8, 9, 10, 11, 12, 13, 14, 15, 16, 17, 18, 19, 20, 21, 22, 23, 24, 25, 26, 27, 28, 29, 30, 31, 32, 33, 34, 35, 36, 37, 38, 39, 40, 41, 42, 43, 44, 45, 46, 47, 48, 49, 50, 51, 52, 53, 54, 55, 56, 57, 58, 59, 60, 61, 62, 63, 64, 65, 66, 67, 68, 69, 70, 71, 72, 73, 74, 75, 76, 77, 78, 79, 80, 81, 82, 83, 84, 85, 86, 87, 88, 89, 90, 91, 92, 93, 94, 95, 96, 97, 98, 99, 100, 101, 102, 103, 104, 105, 106, 107, 108, 109, 110, 111, 112, 113, 114, 115, 116, 117, 118, 119, 120, 121, 122, 123, 124, 125, 126, 127, 128, 129, 130, 131, 132, 133, 134, 135, 136, 137, 138, 139, 140, 141, 142, 143, 144, 145, 146, 147, 148, 149, 150, 151, 152, 153, 154, 155, 156],
      "LargestImagePixelValue": [3382, 3296, 3302, 3297, 3266, 3296, 3285, 3301, 3280, 3305, 3315, 3283, 3316, 3317, 3295, 3295, 3295, 3286, 3271, 3281, 3303, 3287, 3308, 3298, 3306, 3327, 3294, 3308, 3287, 3300, 3267, 3325, 3321, 3261, 3315, 3321, 3318, 3321, 3276, 3300, 3259, 3305, 3296, 3251, 3325, 3309, 3289, 3294, 3322, 3278, 3302, 3316, 3294, 3318, 3301, 3324, 3314, 3302, 3290, 3322, 3319, 3311, 3330, 3257, 3314, 3309, 3259, 3284, 3287, 3288, 3286, 3287, 3324, 3314, 3297, 3305, 3307, 3282, 3326, 3325, 3279, 3303, 3310, 3319, 3301, 3301, 3311, 3318, 3297, 3325, 3266, 3292, 3287, 3291, 3304, 3286, 3285, 3300, 3302, 3308, 3287, 3286, 3305, 3305, 3286, 3239, 3303, 3298, 3285, 3297, 3304, 3305, 3284, 3292, 3265, 3306, 3304, 3278, 3265, 3277, 3299, 3288, 3312, 3287, 3289, 3306, 3251, 3288, 3284, 3320, 3293, 3297, 3298, 3335, 3282, 3297, 3273, 3303, 3295, 3307, 3295, 3265, 3285, 3307, 3311, 3292, 3323, 3326, 3326, 3288, 3255, 3289, 3300, 3285, 3272, 3286],
      "WindowCenter": [716.0, 714.0, 714.0, 715.0, 713.0, 713.0, 713.0, 713.0, 714.0, 714.0, 715.0, 714.0, 714.0, 715.0, 714.0, 715.0, 714.0, 714.0, 713.0, 713.0, 713.0, 714.0, 713.0, 714.0, 714.0, 715.0, 714.0, 714.0, 714.0, 714.0, 713.0, 713.0, 713.0, 713.0, 713.0, 713.0, 713.0, 713.0, 713.0, 713.0, 713.0, 713.0, 713.0, 713.0, 713.0, 713.0, 713.0, 714.0, 714.0, 714.0, 714.0, 713.0, 713.0, 713.0, 713.0, 712.0, 713.0, 714.0, 714.0, 714.0, 714.0, 713.0, 713.0, 713.0, 714.0, 714.0, 713.0, 714.0, 713.0, 712.0, 713.0, 714.0, 713.0, 712.0, 712.0, 712.0, 713.0, 714.0, 714.0, 714.0, 714.0, 713.0, 713.0, 713.0, 713.0, 713.0, 713.0, 712.0, 712.0, 714.0, 715.0, 714.0, 712.0, 712.0, 713.0, 715.0, 713.0, 712.0, 712.0, 712.0, 712.0, 713.0, 714.0, 713.0, 713.0, 711.0, 715.0, 715.0, 715.0, 714.0, 713.0, 713.0, 713.0, 714.0, 712.0, 712.0, 713.0, 714.0, 714.0, 715.0, 714.0, 713.0, 713.0, 712.0, 714.0, 714.0, 712.0, 712.0, 712.0, 713.0, 713.0, 713.0, 713.0, 713.0, 713.0, 713.0, 713.0, 714.0, 714.0, 713.0, 713.0, 713.0, 713.0, 712.0, 713.0, 713.0, 713.0, 713.0, 714.0, 713.0, 713.0, 713.0, 714.0, 714.0, 713.0, 713.0],
      "WindowWidth": [1556.0, 1550.0, 1551.0, 1552.0, 1548.0, 1547.0, 1546.0, 1547.0, 1549.0, 1550.0, 1552.0, 1550.0, 1551.0, 1552.0, 1551.0, 1552.0, 1551.0, 1549.0, 1548.0, 1546.0, 1549.0, 1550.0, 1549.0, 1552.0, 1550.0, 1552.0, 1549.0, 1551.0, 1551.0, 1549.0, 1547.0, 1547.0, 1548.0, 1547.0, 1547.0, 1546.0, 1547.0, 1549.0, 1548.0, 1548.0, 1548.0, 1547.0, 1546.0, 1547.0, 1548.0, 1546.0, 1547.0, 1551.0, 1550.0, 1551.0, 1549.0, 1547.0, 1546.0, 1547.0, 1546.0, 1545.0, 1546.0, 1549.0, 1549.0, 1551.0, 1550.0, 1546.0, 1548.0, 1548.0, 1551.0, 1550.0, 1549.0, 1549.0, 1547.0, 1546.0, 1547.0, 1549.0, 1549.0, 1545.0, 1543.0, 1544.0, 1547.0, 1549.0, 1549.0, 1548.0, 1549.0, 1548.0, 1548.0, 1546.0, 1546.0, 1547.0, 1546.0, 1545.0, 1545.0, 1551.0, 1552.0, 1550.0, 1545.0, 1543.0, 1547.0, 1551.0, 1547.0, 1545.0, 1544.0, 1546.0, 1546.0, 1547.0, 1548.0, 1547.0, 1546.0, 1543.0, 1551.0, 1553.0, 1551.0, 1549.0, 1548.0, 1547.0, 1548.0, 1548.0, 1545.0, 1545.0, 1547.0, 1550.0, 1549.0, 1551.0, 1549.0, 1548.0, 1547.0, 1544.0, 1548.0, 1549.0, 1544.0, 1543.0, 1545.0, 1547.0, 1547.0, 1547.0, 1546.0, 1546.0, 1547.0, 1547.0, 1548.0, 1549.0, 1548.0, 1548.0, 1546.0, 1546.0, 1548.0, 1545.0, 1546.0, 1547.0, 1548.0, 1548.0, 1549.0, 1547.0, 1547.0, 1547.0, 1549.0, 1549.0, 1548.0, 1547.0]
    },
    "slices": {}
  }
}