{
  "AcquisitionMatrixPE": 100,
  "AcquisitionNumber": 1,
  "AcquisitionTime": "16:16:48.690000",
  "BandwidthPerPixelPhaseEncode": 18.519,
  "BaseResolution": 100,
  "BodyPartExamined": "BRAIN",
  "CoilCombinationMethod": "Sum of Squares",
  "ConsistencyInfo": "N4_VE11C_LATEST_20160120",
  "ConversionSoftware": "dcm2niix",
  "ConversionSoftwareVersion": "v1.0.20211006",
  "DerivedVendorReportedEchoSpacing": 0.000539986,
  "DeviceSerialNumber": "166078",
  "DwellTime": 2.1e-06,
  "EchoTime": 0.034,
  "EchoTrainLength": 100,
  "EffectiveEchoSpacing": 0.000539986,
  "FlipAngle": 90,
  "ImageOrientationPatientDICOM": [1, 0, 0, 0, 0.96363, -0.267238],
  "ImageOrientationText": "Tra>Cor(-15.5)",
  "ImageType": [
    "ORIGINAL",
    "PRIMARY",
    "M",
    "ND",
    "MOSAIC"
],
  "ImagingFrequency": 123.258,
  "InPlanePhaseEncodingDirectionDICOM": "COL",
  "InstitutionAddress": "Street StreetNo,Bei Jing,District,CN,ZIP",
  "InstitutionName": "BeiJing Normal University",
  "InstitutionalDepartmentName": "Department",
  "MRAcquisitionType": "2D",
  "MagneticFieldStrength": 3,
  "Manufacturer": "Siemens",
  "ManufacturersModelName": "Prisma",
  "Modality": "MR",
  "MultibandAccelerationFactor": 3,
  "PartialFourier": 1,
  "PatientPosition": "HFS",
  "PercentPhaseFOV": 100,
  "PercentSampling": 100,
  "PhaseEncodingDirection": "j-",
  "PhaseEncodingSteps": 100,
  "PhaseResolution": 1,
  "PixelBandwidth": 2380,
  "ProcedureStepDescription": "BNU_P2018_64CH^Zhen.ZongLei",
  "ProtocolName": "bold_100x100_s3_2x2x2_static_156",
  "PulseSequenceDetails": "%SiemensSeq%\\ep2d_bold",
  "ReceiveCoilActiveElements": "HC1-7;NC1",
  "ReceiveCoilName": "HeadNeck_64",
  "ReconMatrixPE": 100,
  "RefLinesPE": 32,
  "RepetitionTime": 2,
  "SAR": 0.0670614,
  "ScanOptions": "FS",
  "ScanningSequence": "EP",
  "SequenceName": "*epfid2d1_100",
  "SequenceVariant": "SK",
  "SeriesDescription": "bold_100x100_s3_2x2x2_static_156",
  "SeriesNumber": 5,
  "ShimSetting": [-5460, -11527, -1257, 402, -8, -337, -117, 36],
  "SliceThickness": 2,
  "SliceTiming": [1.485, 0, 0.99, 0.0825, 1.0725, 0.165, 1.155, 0.2475, 1.2375, 0.33, 1.32, 0.4125, 1.4025, 0.5775, 1.5675, 0.66, 1.65, 0.7425, 1.7325, 0.825, 1.815, 0.9075, 1.8975, 0.495, 1.485, 0, 0.99, 0.0825, 1.0725, 0.165, 1.155, 0.2475, 1.2375, 0.33, 1.32, 0.4125, 1.4025, 0.5775, 1.5675, 0.66, 1.65, 0.7425, 1.7325, 0.825, 1.815, 0.9075, 1.8975, 0.495, 1.485, 0, 0.99, 0.0825, 1.0725, 0.165, 1.155, 0.2475, 1.2375, 0.33, 1.32, 0.4125, 1.4025, 0.5775, 1.5675, 0.66, 1.65, 0.7425, 1.7325, 0.825, 1.815, 0.9075, 1.8975, 0.495],
  "SoftwareVersions": "syngo MR E11",
  "SpacingBetweenSlices": 2,
  "StationName": "AWP166078",
  "TaskName": "action",
  "TotalReadoutTime": 0.0534586,
  "TxRefAmp": 212.816,
  "dcmmeta_affine": [
    [-2.0, 0.0, 0.0, 100.0],
    [0.0, 1.9272608757019043, -0.5344767570495605, -71.66040802001953],
    [0.0, 0.5344767570495605, 1.9272608757019043, -91.50785064697266],
    [0.0, 0.0, 0.0, 1.0]
],
  "dcmmeta_reorient_transform": [
    [0.0, -1.0, 0.0, 99.0],
    [1.0, 0.0, 0.0, 0.0],
    [0.0, 0.0, 1.0, 0.0],
    [0.0, 0.0, 0.0, 1.0]
],
  "dcmmeta_shape": [100, 100, 72, 156],
  "dcmmeta_slice_dim": 2,
  "dcmmeta_version": 0.6,
  "global": {
    "const": {
      "AcquisitionMatrix": [100, 0, 0, 100],
      "AngioFlag": "N",
      "BitsAllocated": 16,
      "BitsStored": 12,
      "BodyPartExamined": "BRAIN",
      "Columns": 900,
      "EchoNumbers": 1,
      "EchoTime": 34.0,
      "EchoTrainLength": 100,
      "FlipAngle": 90.0,
      "HighBit": 11,
      "ImageOrientationPatient": [1.0, 0.0, 0.0, 0.0, 0.9636304558474, -0.2672383665631],
      "ImagePositionPatient": [-900.0, -890.04278753622, 175.19604083213],
      "ImageType": [
        "ORIGINAL",
        "PRIMARY",
        "M",
        "ND",
        "MOSAIC"
],
      "ImagedNucleus": "1H",
      "ImagingFrequency": 123.257727,
      "InPlanePhaseEncodingDirection": "COL",
      "MRAcquisitionType": "2D",
      "MagneticFieldStrength": 3.0,
      "Manufacturer": "SIEMENS",
      "ManufacturerModelName": "Prisma",
      "Modality": "MR",
      "NumberOfAverages": 1.0,
      "NumberOfPhaseEncodingSteps": 100,
      "PercentPhaseFieldOfView": 100.0,
      "PercentSampling": 100.0,
      "PerformedProcedureStepStartTime": "160219.420000",
      "PhotometricInterpretation": "MONOCHROME2",
      "PixelBandwidth": 2380.0,
      "PixelRepresentation": 0,
      "PixelSpacing": [2.0, 2.0],
      "ProtocolName": "bold_100x100_s3_2x2x2_static_156",
      "RepetitionTime": 2000.0,
      "Rows": 900,
      "SAR": 0.06706142560556,
      "SamplesPerPixel": 1,
      "ScanOptions": "FS",
      "ScanningSequence": "EP",
      "SequenceName": "*epfid2d1_100",
      "SequenceVariant": "SK",
      "SeriesDescription": "bold_100x100_s3_2x2x2_static_156",
      "SeriesNumber": 5,
      "SeriesTime": "161651.510000",
      "SliceLocation": -69.029340022769,
      "SliceThickness": 2.0,
      "SmallestImagePixelValue": 0,
      "SoftwareVersions": "syngo MR E11",
      "SpacingBetweenSlices": 2.0000000152169,
      "SpecificCharacterSet": "ISO_IR 100",
      "StudyID": "1",
      "StudyTime": "160219.353000",
      "TransmitCoilName": "Body",
      "VariableFlipAngleFlag": "N",
      "WindowCenterWidthExplanation": "Algo1",
      "dBdt": 0.0},
    "slices": {}
  },
  "time": {
    "samples": {
      "AcquisitionNumber": [1, 2, 3, 4, 5, 6, 7, 8, 9, 10, 11, 12, 13, 14, 15, 16, 17, 18, 19, 20, 21, 22, 23, 24, 25, 26, 27, 28, 29, 30, 31, 32, 33, 34, 35, 36, 37, 38, 39, 40, 41, 42, 43, 44, 45, 46, 47, 48, 49, 50, 51, 52, 53, 54, 55, 56, 57, 58, 59, 60, 61, 62, 63, 64, 65, 66, 67, 68, 69, 70, 71, 72, 73, 74, 75, 76, 77, 78, 79, 80, 81, 82, 83, 84, 85, 86, 87, 88, 89, 90, 91, 92, 93, 94, 95, 96, 97, 98, 99, 100, 101, 102, 103, 104, 105, 106, 107, 108, 109, 110, 111, 112, 113, 114, 115, 116, 117, 118, 119, 120, 121, 122, 123, 124, 125, 126, 127, 128, 129, 130, 131, 132, 133, 134, 135, 136, 137, 138, 139, 140, 141, 142, 143, 144, 145, 146, 147, 148, 149, 150, 151, 152, 153, 154, 155, 156],
      "AcquisitionTime": ["161648.690000", "161650.690000", "161652.690000", "161654.690000", "161656.690000", "161658.690000", "161700.690000", "161702.690000", "161704.690000", "161706.690000", "161708.690000", "161710.690000", "161712.690000", "161714.690000", "161716.690000", "161718.690000", "161720.690000", "161722.690000", "161724.690000", "161726.690000", "161728.690000", "161730.690000", "161732.690000", "161734.690000", "161736.690000", "161738.690000", "161740.690000", "161742.690000", "161744.690000", "161746.690000", "161748.690000", "161750.690000", "161752.690000", "161754.690000", "161756.690000", "161758.690000", "161800.690000", "161802.690000", "161804.690000", "161806.690000", "161808.690000", "161810.690000", "161812.690000", "161814.690000", "161816.690000", "161818.690000", "161820.690000", "161822.690000", "161824.690000", "161826.690000", "161828.690000", "161830.690000", "161832.690000", "161834.690000", "161836.690000", "161838.690000", "161840.690000", "161842.690000", "161844.690000", "161846.690000", "161848.690000", "161850.690000", "161852.690000", "161854.690000", "161856.690000", "161858.690000", "161900.690000", "161902.690000", "161904.690000", "161906.690000", "161908.690000", "161910.690000", "161912.690000", "161914.690000", "161916.690000", "161918.690000", "161920.690000", "161922.690000", "161924.690000", "161926.690000", "161928.690000", "161930.690000", "161932.690000", "161934.690000", "161936.690000", "161938.690000", "161940.690000", "161942.690000", "161944.690000", "161946.690000", "161948.690000", "161950.690000", "161952.690000", "161954.690000", "161956.690000", "161958.690000", "162000.690000", "162002.690000", "162004.690000", "162006.690000", "162008.690000", "162010.690000", "162012.690000", "162014.690000", "162016.690000", "162018.690000", "162020.690000", "162022.690000", "162024.690000", "162026.690000", "162028.690000", "162030.690000", "162032.690000", "162034.690000", "162036.690000", "162038.690000", "162040.690000", "162042.690000", "162044.690000", "162046.690000", "162048.690000", "162050.690000", "162052.690000", "162054.690000", "162056.690000", "162058.690000", "162100.690000", "162102.690000", "162104.690000", "162106.690000", "162108.690000", "162110.690000", "162112.690000", "162114.690000", "162116.690000", "162118.690000", "162120.690000", "162122.690000", "162124.690000", "162126.690000", "162128.690000", "162130.690000", "162132.690000", "162134.690000", "162136.690000", "162138.690000", "162140.690000", "162142.690000", "162144.690000", "162146.690000", "162148.690000", "162150.690000", "162152.690000", "162154.690000", "162156.690000", "162158.690000"],
      "ContentTime": ["161651.514000", "161653.010000", "161655.009000", "161657.009000", "161659.010000", "161701.010000", "161703.010000", "161705.010000", "161707.008000", "161709.010000", "161711.009000", "161713.009000", "161715.009000", "161717.009000", "161719.009000", "161721.009000", "161723.009000", "161725.009000", "161727.010000", "161729.011000", "161731.011000", "161733.011000", "161735.009000", "161737.010000", "161739.009000", "161741.009000", "161743.010000", "161745.010000", "161747.010000", "161749.010000", "161751.009000", "161753.009000", "161755.010000", "161757.010000", "161759.010000", "161801.009000", "161803.009000", "161805.009000", "161807.010000", "161809.010000", "161811.009000", "161813.009000", "161815.009000", "161817.009000", "161819.010000", "161821.009000", "161823.009000", "161825.009000", "161827.009000", "161829.009000", "161831.009000", "161833.009000", "161835.010000", "161837.009000", "161839.010000", "161841.009000", "161843.010000", "161845.009000", "161847.009000", "161849.010000", "161851.010000", "161853.010000", "161855.009000", "161857.009000", "161859.009000", "161901.009000", "161903.009000", "161905.009000", "161907.010000", "161909.009000", "161911.010000", "161913.009000", "161915.009000", "161917.009000", "161919.010000", "161921.009000", "161923.010000", "161925.010000", "161927.009000", "161929.010000", "161931.010000", "161933.010000", "161935.010000", "161937.009000", "161939.010000", "161941.010000", "161943.010000", "161945.010000", "161947.010000", "161949.009000", "161951.010000", "161953.010000", "161955.010000", "161957.009000", "161959.009000", "162001.010000", "162003.010000", "162005.009000", "162007.010000", "162009.009000", "162011.009000", "162013.010000", "162015.009000", "162017.010000", "162019.010000", "162021.010000", "162023.009000", "162025.010000", "162027.010000", "162029.009000", "162031.010000", "162033.010000", "162035.010000", "162037.010000", "162039.009000", "162041.009000", "162043.009000", "162045.009000", "162047.009000", "162049.010000", "162051.010000", "162053.010000", "162055.009000", "162057.009000", "162059.009000", "162101.010000", "162103.009000", "162105.010000", "162107.009000", "162109.010000", "162111.010000", "162113.009000", "162115.009000", "162117.010000", "162119.010000", "162121.010000", "162123.010000", "162125.009000", "162127.010000", "162129.010000", "162131.009000", "162133.010000", "162135.009000", "162137.010000", "162139.010000", "162141.009000", "162143.010000", "162145.010000", "162147.009000", "162149.010000", "162151.009000", "162153.010000", "162155.010000", "162157.010000", "162159.021000", "162200.611000"],
      "InstanceCreationTime": ["161651.514000", "161653.010000", "161655.009000", "161657.009000", "161659.010000", "161701.010000", "161703.010000", "161705.010000", "161707.008000", "161709.010000", "161711.009000", "161713.009000", "161715.009000", "161717.009000", "161719.009000", "161721.009000", "161723.009000", "161725.009000", "161727.010000", "161729.011000", "161731.011000", "161733.011000", "161735.009000", "161737.010000", "161739.009000", "161741.009000", "161743.010000", "161745.010000", "161747.010000", "161749.010000", "161751.009000", "161753.009000", "161755.010000", "161757.010000", "161759.010000", "161801.009000", "161803.009000", "161805.009000", "161807.010000", "161809.010000", "161811.009000", "161813.009000", "161815.009000", "161817.009000", "161819.010000", "161821.009000", "161823.009000", "161825.009000", "161827.009000", "161829.009000", "161831.009000", "161833.009000", "161835.010000", "161837.009000", "161839.010000", "161841.009000", "161843.010000", "161845.009000", "161847.009000", "161849.010000", "161851.010000", "161853.010000", "161855.009000", "161857.009000", "161859.009000", "161901.009000", "161903.009000", "161905.009000", "161907.010000", "161909.009000", "161911.010000", "161913.009000", "161915.009000", "161917.009000", "161919.010000", "161921.009000", "161923.010000", "161925.010000", "161927.009000", "161929.010000", "161931.010000", "161933.010000", "161935.010000", "161937.009000", "161939.010000", "161941.010000", "161943.010000", "161945.010000", "161947.010000", "161949.009000", "161951.010000", "161953.010000", "161955.010000", "161957.009000", "161959.009000", "162001.010000", "162003.010000", "162005.009000", "162007.010000", "162009.009000", "162011.009000", "162013.010000", "162015.009000", "162017.010000", "162019.010000", "162021.010000", "162023.009000", "162025.010000", "162027.010000", "162029.009000", "162031.010000", "162033.010000", "162035.010000", "162037.010000", "162039.009000", "162041.009000", "162043.009000", "162045.009000", "162047.009000", "162049.010000", "162051.010000", "162053.010000", "162055.009000", "162057.009000", "162059.009000", "162101.010000", "162103.009000", "162105.010000", "162107.009000", "162109.010000", "162111.010000", "162113.009000", "162115.009000", "162117.010000", "162119.010000", "162121.010000", "162123.010000", "162125.009000", "162127.010000", "162129.010000", "162131.009000", "162133.010000", "162135.009000", "162137.010000", "162139.010000", "162141.009000", "162143.010000", "162145.010000", "162147.009000", "162149.010000", "162151.009000", "162153.010000", "162155.010000", "162157.010000", "162159.021000", "162200.611000"],
      "InstanceNumber": [1, 2, 3, 4, 5, 6, 7, 8, 9, 10, 11, 12, 13, 14, 15, 16, 17, 18, 19, 20, 21, 22, 23, 24, 25, 26, 27, 28, 29, 30, 31, 32, 33, 34, 35, 36, 37, 38, 39, 40, 41, 42, 43, 44, 45, 46, 47, 48, 49, 50, 51, 52, 53, 54, 55, 56, 57, 58, 59, 60, 61, 62, 63, 64, 65, 66, 67, 68, 69, 70, 71, 72, 73, 74, 75, 76, 77, 78, 79, 80, 81, 82, 83, 84, 85, 86, 87, 88, 89, 90, 91, 92, 93, 94, 95, 96, 97, 98, 99, 100, 101, 102, 103, 104, 105, 106, 107, 108, 109, 110, 111, 112, 113, 114, 115, 116, 117, 118, 119, 120, 121, 122, 123, 124, 125, 126, 127, 128, 129, 130, 131, 132, 133, 134, 135, 136, 137, 138, 139, 140, 141, 142, 143, 144, 145, 146, 147, 148, 149, 150, 151, 152, 153, 154, 155, 156],
      "LargestImagePixelValue": [2461, 2476, 2460, 2460, 2438, 2426, 2470, 2462, 2455, 2474, 2448, 2462, 2452, 2454, 2444, 2447, 2462, 2482, 2486, 2486, 2456, 2478, 2457, 2452, 2442, 2428, 2465, 2466, 2437, 2427, 2474, 2477, 2468, 2479, 2464, 2455, 2485, 2433, 2444, 2454, 2455, 2468, 2473, 2464, 2439, 2465, 2445, 2463, 2442, 2438, 2478, 2441, 2496, 2471, 2455, 2486, 2475, 2462, 2477, 2462, 2459, 2477, 2466, 2462, 2462, 2442, 2473, 2477, 2454, 2462, 2464, 2465, 2452, 2468, 2485, 2457, 2475, 2482, 2460, 2471, 2469, 2475, 2490, 2480, 2474, 2467, 2473, 2490, 2501, 2517, 2495, 2464, 2462, 2487, 2483, 2468, 2476, 2480, 2477, 2480, 2484, 2498, 2488, 2505, 2513, 2464, 2476, 2478, 2442, 2451, 2480, 2445, 2479, 2467, 2461, 2462, 2455, 2483, 2490, 2466, 2459, 2450, 2491, 2489, 2448, 2471, 2453, 2476, 2503, 2465, 2483, 2502, 2468, 2511, 2487, 2483, 2475, 2483, 2484, 2500, 2506, 2480, 2469, 2472, 2472, 2484, 2454, 2478, 2491, 2470, 2486, 2499, 2460, 2509, 2477, 2504],
      "WindowCenter": [715.0, 714.0, 713.0, 713.0, 712.0, 712.0, 713.0, 713.0, 712.0, 712.0, 712.0, 712.0, 713.0, 712.0, 712.0, 713.0, 714.0, 714.0, 714.0, 714.0, 714.0, 714.0, 714.0, 713.0, 713.0, 713.0, 714.0, 714.0, 714.0, 714.0, 715.0, 714.0, 713.0, 713.0, 713.0, 713.0, 713.0, 712.0, 712.0, 714.0, 715.0, 716.0, 714.0, 712.0, 711.0, 713.0, 713.0, 713.0, 712.0, 713.0, 714.0, 714.0, 714.0, 713.0, 713.0, 714.0, 714.0, 713.0, 713.0, 714.0, 713.0, 713.0, 712.0, 713.0, 713.0, 714.0, 714.0, 713.0, 712.0, 712.0, 713.0, 713.0, 712.0, 711.0, 711.0, 712.0, 713.0, 714.0, 713.0, 712.0, 712.0, 714.0, 715.0, 714.0, 713.0, 712.0, 713.0, 714.0, 714.0, 714.0, 714.0, 715.0, 714.0, 714.0, 713.0, 713.0, 713.0, 713.0, 714.0, 714.0, 715.0, 716.0, 716.0, 716.0, 716.0, 713.0, 713.0, 713.0, 714.0, 715.0, 715.0, 714.0, 714.0, 714.0, 713.0, 712.0, 712.0, 713.0, 714.0, 714.0, 713.0, 714.0, 715.0, 715.0, 714.0, 714.0, 712.0, 712.0, 713.0, 714.0, 715.0, 714.0, 714.0, 715.0, 714.0, 714.0, 714.0, 715.0, 714.0, 713.0, 713.0, 715.0, 716.0, 715.0, 714.0, 713.0, 714.0, 714.0, 714.0, 714.0, 714.0, 714.0, 715.0, 715.0, 713.0, 712.0],
      "WindowWidth": [1529.0, 1527.0, 1525.0, 1523.0, 1521.0, 1522.0, 1524.0, 1523.0, 1522.0, 1523.0, 1522.0, 1523.0, 1524.0, 1523.0, 1523.0, 1526.0, 1528.0, 1528.0, 1528.0, 1528.0, 1526.0, 1527.0, 1526.0, 1526.0, 1526.0, 1525.0, 1527.0, 1527.0, 1527.0, 1528.0, 1529.0, 1527.0, 1525.0, 1525.0, 1525.0, 1524.0, 1524.0, 1522.0, 1523.0, 1526.0, 1530.0, 1531.0, 1527.0, 1521.0, 1520.0, 1525.0, 1525.0, 1523.0, 1522.0, 1523.0, 1527.0, 1527.0, 1528.0, 1525.0, 1525.0, 1526.0, 1527.0, 1525.0, 1525.0, 1526.0, 1524.0, 1523.0, 1523.0, 1524.0, 1524.0, 1527.0, 1528.0, 1525.0, 1521.0, 1521.0, 1524.0, 1523.0, 1522.0, 1520.0, 1520.0, 1522.0, 1525.0, 1528.0, 1525.0, 1522.0, 1521.0, 1526.0, 1530.0, 1528.0, 1524.0, 1522.0, 1524.0, 1526.0, 1526.0, 1527.0, 1527.0, 1528.0, 1528.0, 1527.0, 1525.0, 1523.0, 1523.0, 1525.0, 1528.0, 1528.0, 1529.0, 1532.0, 1533.0, 1533.0, 1532.0, 1525.0, 1523.0, 1524.0, 1526.0, 1530.0, 1528.0, 1526.0, 1527.0, 1526.0, 1524.0, 1522.0, 1522.0, 1525.0, 1526.0, 1526.0, 1525.0, 1526.0, 1529.0, 1530.0, 1526.0, 1526.0, 1522.0, 1522.0, 1524.0, 1526.0, 1528.0, 1526.0, 1526.0, 1528.0, 1526.0, 1526.0, 1528.0, 1529.0, 1526.0, 1524.0, 1525.0, 1528.0, 1531.0, 1529.0, 1527.0, 1524.0, 1526.0, 1527.0, 1527.0, 1527.0, 1526.0, 1527.0, 1528.0, 1529.0, 1525.0, 1520.0]
    },
    "slices": {}
  }
}