{
  "AcquisitionMatrixPE": 100,
  "AcquisitionNumber": 1,
  "AcquisitionTime": "17:02:44.415000",
  "BandwidthPerPixelPhaseEncode": 18.519,
  "BaseResolution": 100,
  "BodyPartExamined": "BRAIN",
  "CoilCombinationMethod": "Sum of Squares",
  "ConsistencyInfo": "N4_VE11C_LATEST_20160120",
  "ConversionSoftware": "dcm2niix",
  "ConversionSoftwareVersion": "v1.0.20211006",
  "DerivedVendorReportedEchoSpacing": 0.000539986,
  "DeviceSerialNumber": "166078",
  "DwellTime": 2.1e-06,
  "EchoTime": 0.034,
  "EchoTrainLength": 100,
  "EffectiveEchoSpacing": 0.000539986,
  "FlipAngle": 90,
  "ImageOrientationPatientDICOM": [1, 0, 0, 0, 0.96363, -0.267238],
  "ImageOrientationText": "Tra>Cor(-15.5)",
  "ImageType": [
    "ORIGINAL",
    "PRIMARY",
    "M",
    "ND",
    "MOSAIC"
],
  "ImagingFrequency": 123.258,
  "InPlanePhaseEncodingDirectionDICOM": "COL",
  "InstitutionAddress": "Street StreetNo,Bei Jing,District,CN,ZIP",
  "InstitutionName": "BeiJing Normal University",
  "InstitutionalDepartmentName": "Department",
  "MRAcquisitionType": "2D",
  "MagneticFieldStrength": 3,
  "Manufacturer": "Siemens",
  "ManufacturersModelName": "Prisma",
  "Modality": "MR",
  "MultibandAccelerationFactor": 3,
  "PartialFourier": 1,
  "PatientPosition": "HFS",
  "PercentPhaseFOV": 100,
  "PercentSampling": 100,
  "PhaseEncodingDirection": "j-",
  "PhaseEncodingSteps": 100,
  "PhaseResolution": 1,
  "PixelBandwidth": 2380,
  "ProcedureStepDescription": "BNU_P2018_64CH^Zhen.ZongLei",
  "ProtocolName": "bold_100x100_s3_2x2x2_static_156",
  "PulseSequenceDetails": "%SiemensSeq%\\ep2d_bold",
  "ReceiveCoilActiveElements": "HC1-7;NC1",
  "ReceiveCoilName": "HeadNeck_64",
  "ReconMatrixPE": 100,
  "RefLinesPE": 32,
  "RepetitionTime": 2,
  "SAR": 0.0670614,
  "ScanOptions": "FS",
  "ScanningSequence": "EP",
  "SequenceName": "*epfid2d1_100",
  "SequenceVariant": "SK",
  "SeriesDescription": "bold_100x100_s3_2x2x2_static_156",
  "SeriesNumber": 14,
  "ShimSetting": [-5460, -11527, -1257, 402, -8, -337, -117, 36],
  "SliceThickness": 2,
  "SliceTiming": [1.485, 0, 0.99, 0.0825, 1.0725, 0.165, 1.155, 0.2475, 1.2375, 0.33, 1.32, 0.4125, 1.4025, 0.5775, 1.5675, 0.66, 1.65, 0.7425, 1.7325, 0.825, 1.815, 0.9075, 1.8975, 0.495, 1.485, 0, 0.99, 0.0825, 1.0725, 0.165, 1.155, 0.2475, 1.2375, 0.33, 1.32, 0.4125, 1.4025, 0.5775, 1.5675, 0.66, 1.65, 0.7425, 1.7325, 0.825, 1.815, 0.9075, 1.8975, 0.495, 1.485, 0, 0.99, 0.0825, 1.0725, 0.165, 1.155, 0.2475, 1.2375, 0.33, 1.32, 0.4125, 1.4025, 0.5775, 1.5675, 0.66, 1.65, 0.7425, 1.7325, 0.825, 1.815, 0.9075, 1.8975, 0.495],
  "SoftwareVersions": "syngo MR E11",
  "SpacingBetweenSlices": 2,
  "StationName": "AWP166078",
  "TaskName": "action",
  "TotalReadoutTime": 0.0534586,
  "TxRefAmp": 212.816,
  "dcmmeta_affine": [
    [-2.0, 0.0, 0.0, 100.0],
    [0.0, 1.9272608757019043, -0.5344767570495605, -71.66040802001953],
    [0.0, 0.5344767570495605, 1.9272608757019043, -91.50785064697266],
    [0.0, 0.0, 0.0, 1.0]
],
  "dcmmeta_reorient_transform": [
    [0.0, -1.0, 0.0, 99.0],
    [1.0, 0.0, 0.0, 0.0],
    [0.0, 0.0, 1.0, 0.0],
    [0.0, 0.0, 0.0, 1.0]
],
  "dcmmeta_shape": [100, 100, 72, 156],
  "dcmmeta_slice_dim": 2,
  "dcmmeta_version": 0.6,
  "global": {
    "const": {
      "AcquisitionMatrix": [100, 0, 0, 100],
      "AngioFlag": "N",
      "BitsAllocated": 16,
      "BitsStored": 12,
      "BodyPartExamined": "BRAIN",
      "Columns": 900,
      "EchoNumbers": 1,
      "EchoTime": 34.0,
      "EchoTrainLength": 100,
      "FlipAngle": 90.0,
      "HighBit": 11,
      "ImageOrientationPatient": [1.0, 0.0, 0.0, 0.0, 0.9636304558474, -0.2672383665631],
      "ImagePositionPatient": [-900.0, -890.04278753622, 175.19604083213],
      "ImageType": [
        "ORIGINAL",
        "PRIMARY",
        "M",
        "ND",
        "MOSAIC"
],
      "ImagedNucleus": "1H",
      "ImagingFrequency": 123.257728,
      "InPlanePhaseEncodingDirection": "COL",
      "MRAcquisitionType": "2D",
      "MagneticFieldStrength": 3.0,
      "Manufacturer": "SIEMENS",
      "ManufacturerModelName": "Prisma",
      "Modality": "MR",
      "NumberOfAverages": 1.0,
      "NumberOfPhaseEncodingSteps": 100,
      "PercentPhaseFieldOfView": 100.0,
      "PercentSampling": 100.0,
      "PerformedProcedureStepStartTime": "160219.420000",
      "PhotometricInterpretation": "MONOCHROME2",
      "PixelBandwidth": 2380.0,
      "PixelRepresentation": 0,
      "PixelSpacing": [2.0, 2.0],
      "ProtocolName": "bold_100x100_s3_2x2x2_static_156",
      "RepetitionTime": 2000.0,
      "Rows": 900,
      "SAR": 0.06706142560556,
      "SamplesPerPixel": 1,
      "ScanOptions": "FS",
      "ScanningSequence": "EP",
      "SequenceName": "*epfid2d1_100",
      "SequenceVariant": "SK",
      "SeriesDescription": "bold_100x100_s3_2x2x2_static_156",
      "SeriesNumber": 14,
      "SeriesTime": "170247.672000",
      "SliceLocation": -69.029340022769,
      "SliceThickness": 2.0,
      "SmallestImagePixelValue": 0,
      "SoftwareVersions": "syngo MR E11",
      "SpacingBetweenSlices": 2.0000000152169,
      "SpecificCharacterSet": "ISO_IR 100",
      "StudyID": "1",
      "StudyTime": "160219.353000",
      "TransmitCoilName": "Body",
      "VariableFlipAngleFlag": "N",
      "WindowCenterWidthExplanation": "Algo1",
      "dBdt": 0.0},
    "slices": {}
  },
  "time": {
    "samples": {
      "AcquisitionNumber": [1, 2, 3, 4, 5, 6, 7, 8, 9, 10, 11, 12, 13, 14, 15, 16, 17, 18, 19, 20, 21, 22, 23, 24, 25, 26, 27, 28, 29, 30, 31, 32, 33, 34, 35, 36, 37, 38, 39, 40, 41, 42, 43, 44, 45, 46, 47, 48, 49, 50, 51, 52, 53, 54, 55, 56, 57, 58, 59, 60, 61, 62, 63, 64, 65, 66, 67, 68, 69, 70, 71, 72, 73, 74, 75, 76, 77, 78, 79, 80, 81, 82, 83, 84, 85, 86, 87, 88, 89, 90, 91, 92, 93, 94, 95, 96, 97, 98, 99, 100, 101, 102, 103, 104, 105, 106, 107, 108, 109, 110, 111, 112, 113, 114, 115, 116, 117, 118, 119, 120, 121, 122, 123, 124, 125, 126, 127, 128, 129, 130, 131, 132, 133, 134, 135, 136, 137, 138, 139, 140, 141, 142, 143, 144, 145, 146, 147, 148, 149, 150, 151, 152, 153, 154, 155, 156],
      "AcquisitionTime": ["170244.415000", "170246.415000", "170248.415000", "170250.415000", "170252.415000", "170254.415000", "170256.415000", "170258.415000", "170300.415000", "170302.415000", "170304.415000", "170306.415000", "170308.415000", "170310.415000", "170312.415000", "170314.415000", "170316.415000", "170318.415000", "170320.415000", "170322.415000", "170324.415000", "170326.415000", "170328.415000", "170330.415000", "170332.415000", "170334.415000", "170336.415000", "170338.415000", "170340.415000", "170342.415000", "170344.415000", "170346.415000", "170348.415000", "170350.415000", "170352.415000", "170354.415000", "170356.415000", "170358.415000", "170400.415000", "170402.415000", "170404.415000", "170406.415000", "170408.415000", "170410.415000", "170412.415000", "170414.415000", "170416.415000", "170418.415000", "170420.415000", "170422.415000", "170424.415000", "170426.415000", "170428.415000", "170430.415000", "170432.415000", "170434.415000", "170436.415000", "170438.415000", "170440.415000", "170442.415000", "170444.415000", "170446.415000", "170448.415000", "170450.415000", "170452.415000", "170454.415000", "170456.415000", "170458.415000", "170500.415000", "170502.415000", "170504.415000", "170506.415000", "170508.415000", "170510.415000", "170512.415000", "170514.415000", "170516.415000", "170518.415000", "170520.415000", "170522.415000", "170524.415000", "170526.415000", "170528.415000", "170530.415000", "170532.415000", "170534.415000", "170536.415000", "170538.415000", "170540.415000", "170542.415000", "170544.415000", "170546.415000", "170548.415000", "170550.415000", "170552.415000", "170554.415000", "170556.415000", "170558.415000", "170600.415000", "170602.415000", "170604.415000", "170606.415000", "170608.415000", "170610.415000", "170612.415000", "170614.415000", "170616.415000", "170618.415000", "170620.415000", "170622.415000", "170624.415000", "170626.415000", "170628.415000", "170630.415000", "170632.415000", "170634.415000", "170636.415000", "170638.415000", "170640.415000", "170642.415000", "170644.415000", "170646.415000", "170648.415000", "170650.415000", "170652.415000", "170654.415000", "170656.415000", "170658.415000", "170700.415000", "170702.415000", "170704.415000", "170706.415000", "170708.415000", "170710.415000", "170712.415000", "170714.415000", "170716.415000", "170718.415000", "170720.415000", "170722.415000", "170724.415000", "170726.415000", "170728.415000", "170730.415000", "170732.415000", "170734.415000", "170736.415000", "170738.415000", "170740.415000", "170742.415000", "170744.415000", "170746.415000", "170748.415000", "170750.415000", "170752.415000", "170754.415000"],
      "ContentTime": ["170247.676000", "170248.671000", "170250.672000", "170252.673000", "170254.673000", "170257.173000", "170258.673000", "170300.673000", "170302.671000", "170304.671000", "170306.671000", "170308.671000", "170310.672000", "170312.672000", "170314.673000", "170316.673000", "170318.672000", "170320.672000", "170322.672000", "170324.671000", "170326.672000", "170328.673000", "170330.672000", "170332.672000", "170334.673000", "170336.673000", "170338.672000", "170340.672000", "170342.672000", "170344.673000", "170346.672000", "170348.673000", "170350.672000", "170352.673000", "170354.671000", "170356.672000", "170358.671000", "170400.672000", "170402.673000", "170404.673000", "170406.673000", "170408.672000", "170410.672000", "170412.672000", "170414.672000", "170416.672000", "170418.672000", "170420.673000", "170422.672000", "170424.672000", "170426.673000", "170428.672000", "170430.671000", "170433.172000", "170434.671000", "170436.672000", "170438.672000", "170440.672000", "170442.673000", "170444.673000", "170446.673000", "170448.671000", "170450.671000", "170452.672000", "170454.672000", "170456.672000", "170458.672000", "170500.672000", "170502.673000", "170504.672000", "170506.671000", "170508.671000", "170510.672000", "170512.672000", "170514.672000", "170516.673000", "170518.673000", "170520.673000", "170522.672000", "170524.671000", "170526.671000", "170528.671000", "170530.673000", "170532.673000", "170534.673000", "170536.673000", "170538.672000", "170540.672000", "170542.672000", "170544.672000", "170546.672000", "170548.673000", "170550.672000", "170552.673000", "170554.673000", "170556.672000", "170558.671000", "170600.671000", "170602.672000", "170604.673000", "170606.673000", "170608.673000", "170610.672000", "170612.673000", "170614.671000", "170616.671000", "170618.672000", "170620.671000", "170622.672000", "170624.672000", "170626.673000", "170628.672000", "170630.672000", "170632.672000", "170635.171000", "170636.672000", "170638.672000", "170640.673000", "170642.672000", "170644.672000", "170646.672000", "170648.672000", "170650.671000", "170652.672000", "170654.672000", "170656.671000", "170658.672000", "170700.672000", "170702.673000", "170704.673000", "170706.673000", "170708.672000", "170710.672000", "170712.671000", "170714.672000", "170716.672000", "170718.672000", "170720.673000", "170722.673000", "170724.671000", "170726.672000", "170728.672000", "170730.671000", "170733.172000", "170734.673000", "170736.672000", "170738.673000", "170740.672000", "170742.671000", "170744.671000", "170746.671000", "170748.672000", "170750.673000", "170753.173000", "170754.672000", "170756.717000"],
      "InstanceCreationTime": ["170247.676000", "170248.671000", "170250.672000", "170252.673000", "170254.673000", "170257.173000", "170258.673000", "170300.673000", "170302.671000", "170304.671000", "170306.671000", "170308.671000", "170310.672000", "170312.672000", "170314.673000", "170316.673000", "170318.672000", "170320.672000", "170322.672000", "170324.671000", "170326.672000", "170328.673000", "170330.672000", "170332.672000", "170334.673000", "170336.673000", "170338.672000", "170340.672000", "170342.672000", "170344.673000", "170346.672000", "170348.673000", "170350.672000", "170352.673000", "170354.671000", "170356.672000", "170358.671000", "170400.672000", "170402.673000", "170404.673000", "170406.673000", "170408.672000", "170410.672000", "170412.672000", "170414.672000", "170416.672000", "170418.672000", "170420.673000", "170422.672000", "170424.672000", "170426.673000", "170428.672000", "170430.671000", "170433.172000", "170434.671000", "170436.672000", "170438.672000", "170440.672000", "170442.673000", "170444.673000", "170446.673000", "170448.671000", "170450.671000", "170452.672000", "170454.672000", "170456.672000", "170458.672000", "170500.672000", "170502.673000", "170504.672000", "170506.671000", "170508.671000", "170510.672000", "170512.672000", "170514.672000", "170516.673000", "170518.673000", "170520.673000", "170522.672000", "170524.671000", "170526.671000", "170528.671000", "170530.673000", "170532.673000", "170534.673000", "170536.673000", "170538.672000", "170540.672000", "170542.672000", "170544.672000", "170546.672000", "170548.673000", "170550.672000", "170552.673000", "170554.673000", "170556.672000", "170558.671000", "170600.671000", "170602.672000", "170604.673000", "170606.673000", "170608.673000", "170610.672000", "170612.673000", "170614.671000", "170616.671000", "170618.672000", "170620.671000", "170622.672000", "170624.672000", "170626.673000", "170628.672000", "170630.672000", "170632.672000", "170635.171000", "170636.672000", "170638.672000", "170640.673000", "170642.672000", "170644.672000", "170646.672000", "170648.672000", "170650.671000", "170652.672000", "170654.672000", "170656.671000", "170658.672000", "170700.672000", "170702.673000", "170704.673000", "170706.673000", "170708.672000", "170710.672000", "170712.671000", "170714.672000", "170716.672000", "170718.672000", "170720.673000", "170722.673000", "170724.671000", "170726.672000", "170728.672000", "170730.671000", "170733.172000", "170734.673000", "170736.672000", "170738.673000", "170740.672000", "170742.671000", "170744.671000", "170746.671000", "170748.672000", "170750.673000", "170753.173000", "170754.672000", "170756.717000"],
      "InstanceNumber": [1, 2, 3, 4, 5, 6, 7, 8, 9, 10, 11, 12, 13, 14, 15, 16, 17, 18, 19, 20, 21, 22, 23, 24, 25, 26, 27, 28, 29, 30, 31, 32, 33, 34, 35, 36, 37, 38, 39, 40, 41, 42, 43, 44, 45, 46, 47, 48, 49, 50, 51, 52, 53, 54, 55, 56, 57, 58, 59, 60, 61, 62, 63, 64, 65, 66, 67, 68, 69, 70, 71, 72, 73, 74, 75, 76, 77, 78, 79, 80, 81, 82, 83, 84, 85, 86, 87, 88, 89, 90, 91, 92, 93, 94, 95, 96, 97, 98, 99, 100, 101, 102, 103, 104, 105, 106, 107, 108, 109, 110, 111, 112, 113, 114, 115, 116, 117, 118, 119, 120, 121, 122, 123, 124, 125, 126, 127, 128, 129, 130, 131, 132, 133, 134, 135, 136, 137, 138, 139, 140, 141, 142, 143, 144, 145, 146, 147, 148, 149, 150, 151, 152, 153, 154, 155, 156],
      "LargestImagePixelValue": [2640, 2626, 2635, 2600, 2620, 2582, 2568, 2550, 2614, 2585, 2583, 2551, 2578, 2592, 2578, 2572, 2596, 2624, 2550, 2579, 2583, 2585, 2601, 2637, 2574, 2559, 2593, 2542, 2574, 2535, 2589, 2607, 2602, 2597, 2553, 2556, 2576, 2591, 2615, 2598, 2595, 2617, 2587, 2609, 2580, 2594, 2614, 2604, 2554, 2544, 2540, 2588, 2565, 2570, 2598, 2612, 2608, 2637, 2627, 2574, 2535, 2576, 2532, 2573, 2579, 2606, 2603, 2633, 2571, 2603, 2592, 2568, 2533, 2548, 2564, 2561, 2547, 2572, 2548, 2583, 2616, 2594, 2595, 2609, 2538, 2597, 2597, 2588, 2583, 2580, 2610, 2594, 2564, 2602, 2563, 2553, 2544, 2560, 2601, 2585, 2580, 2577, 2592, 2569, 2628, 2566, 2553, 2562, 2575, 2561, 2531, 2549, 2561, 2571, 2602, 2563, 2600, 2594, 2568, 2589, 2567, 2596, 2553, 2549, 2549, 2620, 2615, 2616, 2598, 2555, 2547, 2599, 2598, 2546, 2587, 2560, 2542, 2555, 2597, 2573, 2557, 2572, 2545, 2590, 2550, 2543, 2517, 2536, 2530, 2512, 2571, 2551, 2595, 2561, 2528, 2512],
      "WindowCenter": [720.0, 719.0, 718.0, 716.0, 716.0, 715.0, 715.0, 717.0, 718.0, 717.0, 716.0, 717.0, 717.0, 717.0, 717.0, 717.0, 717.0, 718.0, 716.0, 716.0, 717.0, 718.0, 718.0, 717.0, 716.0, 716.0, 717.0, 717.0, 718.0, 717.0, 717.0, 718.0, 718.0, 716.0, 716.0, 717.0, 718.0, 718.0, 717.0, 717.0, 718.0, 718.0, 716.0, 716.0, 716.0, 718.0, 719.0, 717.0, 715.0, 716.0, 717.0, 718.0, 717.0, 716.0, 716.0, 717.0, 717.0, 718.0, 717.0, 716.0, 715.0, 717.0, 717.0, 717.0, 716.0, 716.0, 717.0, 718.0, 717.0, 717.0, 716.0, 715.0, 715.0, 715.0, 716.0, 717.0, 717.0, 718.0, 717.0, 717.0, 717.0, 717.0, 717.0, 717.0, 716.0, 718.0, 718.0, 718.0, 717.0, 717.0, 717.0, 717.0, 718.0, 718.0, 717.0, 716.0, 716.0, 716.0, 718.0, 717.0, 716.0, 717.0, 718.0, 717.0, 717.0, 718.0, 718.0, 718.0, 717.0, 716.0, 716.0, 717.0, 717.0, 717.0, 717.0, 717.0, 717.0, 718.0, 717.0, 718.0, 718.0, 717.0, 716.0, 717.0, 719.0, 719.0, 718.0, 717.0, 716.0, 716.0, 717.0, 718.0, 718.0, 716.0, 716.0, 717.0, 719.0, 719.0, 718.0, 717.0, 717.0, 718.0, 718.0, 718.0, 715.0, 714.0, 714.0, 716.0, 717.0, 717.0, 718.0, 718.0, 718.0, 716.0, 716.0, 717.0],
      "WindowWidth": [1541.0, 1539.0, 1536.0, 1531.0, 1529.0, 1527.0, 1528.0, 1531.0, 1535.0, 1532.0, 1531.0, 1532.0, 1534.0, 1534.0, 1532.0, 1531.0, 1533.0, 1534.0, 1531.0, 1531.0, 1534.0, 1535.0, 1535.0, 1534.0, 1530.0, 1529.0, 1532.0, 1532.0, 1534.0, 1533.0, 1533.0, 1536.0, 1534.0, 1531.0, 1530.0, 1533.0, 1534.0, 1534.0, 1533.0, 1532.0, 1534.0, 1534.0, 1531.0, 1529.0, 1531.0, 1535.0, 1537.0, 1534.0, 1529.0, 1529.0, 1533.0, 1536.0, 1534.0, 1531.0, 1530.0, 1531.0, 1533.0, 1534.0, 1532.0, 1529.0, 1528.0, 1531.0, 1532.0, 1532.0, 1530.0, 1530.0, 1532.0, 1535.0, 1534.0, 1532.0, 1529.0, 1527.0, 1526.0, 1527.0, 1530.0, 1532.0, 1534.0, 1536.0, 1533.0, 1532.0, 1533.0, 1533.0, 1533.0, 1532.0, 1530.0, 1534.0, 1536.0, 1534.0, 1532.0, 1533.0, 1533.0, 1533.0, 1534.0, 1536.0, 1533.0, 1530.0, 1529.0, 1530.0, 1534.0, 1532.0, 1530.0, 1533.0, 1534.0, 1531.0, 1533.0, 1535.0, 1536.0, 1535.0, 1532.0, 1530.0, 1531.0, 1534.0, 1534.0, 1533.0, 1533.0, 1531.0, 1533.0, 1534.0, 1533.0, 1535.0, 1534.0, 1533.0, 1530.0, 1533.0, 1538.0, 1538.0, 1534.0, 1531.0, 1531.0, 1531.0, 1533.0, 1536.0, 1534.0, 1529.0, 1531.0, 1534.0, 1537.0, 1537.0, 1535.0, 1533.0, 1532.0, 1536.0, 1535.0, 1534.0, 1528.0, 1524.0, 1525.0, 1529.0, 1531.0, 1532.0, 1534.0, 1535.0, 1533.0, 1529.0, 1529.0, 1532.0]
    },
    "slices": {}
  }
}