{
  "AcquisitionMatrixPE": 100,
  "AcquisitionNumber": 1,
  "AcquisitionTime": "17:14:45.577500",
  "BandwidthPerPixelPhaseEncode": 18.519,
  "BaseResolution": 100,
  "BodyPartExamined": "BRAIN",
  "CoilCombinationMethod": "Sum of Squares",
  "ConsistencyInfo": "N4_VE11C_LATEST_20160120",
  "ConversionSoftware": "dcm2niix",
  "ConversionSoftwareVersion": "v1.0.20211006",
  "DerivedVendorReportedEchoSpacing": 0.000539986,
  "DeviceSerialNumber": "166078",
  "DwellTime": 2.1e-06,
  "EchoTime": 0.034,
  "EchoTrainLength": 100,
  "EffectiveEchoSpacing": 0.000539986,
  "FlipAngle": 90,
  "ImageOrientationPatientDICOM": [1, 0, 0, 0, 0.96363, -0.267238],
  "ImageOrientationText": "Tra>Cor(-15.5)",
  "ImageType": [
    "ORIGINAL",
    "PRIMARY",
    "M",
    "ND",
    "MOSAIC"
],
  "ImagingFrequency": 123.258,
  "InPlanePhaseEncodingDirectionDICOM": "COL",
  "InstitutionAddress": "Street StreetNo,Bei Jing,District,CN,ZIP",
  "InstitutionName": "BeiJing Normal University",
  "InstitutionalDepartmentName": "Department",
  "MRAcquisitionType": "2D",
  "MagneticFieldStrength": 3,
  "Manufacturer": "Siemens",
  "ManufacturersModelName": "Prisma",
  "Modality": "MR",
  "MultibandAccelerationFactor": 3,
  "PartialFourier": 1,
  "PatientPosition": "HFS",
  "PercentPhaseFOV": 100,
  "PercentSampling": 100,
  "PhaseEncodingDirection": "j-",
  "PhaseEncodingSteps": 100,
  "PhaseResolution": 1,
  "PixelBandwidth": 2380,
  "ProcedureStepDescription": "BNU_P2018_64CH^Zhen.ZongLei",
  "ProtocolName": "bold_100x100_s3_2x2x2_static_156",
  "PulseSequenceDetails": "%SiemensSeq%\\ep2d_bold",
  "ReceiveCoilActiveElements": "HC1-7;NC1",
  "ReceiveCoilName": "HeadNeck_64",
  "ReconMatrixPE": 100,
  "RefLinesPE": 32,
  "RepetitionTime": 2,
  "SAR": 0.0670614,
  "ScanOptions": "FS",
  "ScanningSequence": "EP",
  "SequenceName": "*epfid2d1_100",
  "SequenceVariant": "SK",
  "SeriesDescription": "bold_100x100_s3_2x2x2_static_156",
  "SeriesNumber": 16,
  "ShimSetting": [-5460, -11527, -1257, 402, -8, -337, -117, 36],
  "SliceThickness": 2,
  "SliceTiming": [1.485, 0, 0.99, 0.0825, 1.0725, 0.165, 1.155, 0.2475, 1.2375, 0.33, 1.32, 0.4125, 1.4025, 0.5775, 1.5675, 0.66, 1.65, 0.7425, 1.7325, 0.825, 1.815, 0.9075, 1.8975, 0.495, 1.485, 0, 0.99, 0.0825, 1.0725, 0.165, 1.155, 0.2475, 1.2375, 0.33, 1.32, 0.4125, 1.4025, 0.5775, 1.5675, 0.66, 1.65, 0.7425, 1.7325, 0.825, 1.815, 0.9075, 1.8975, 0.495, 1.485, 0, 0.99, 0.0825, 1.0725, 0.165, 1.155, 0.2475, 1.2375, 0.33, 1.32, 0.4125, 1.4025, 0.5775, 1.5675, 0.66, 1.65, 0.7425, 1.7325, 0.825, 1.815, 0.9075, 1.8975, 0.495],
  "SoftwareVersions": "syngo MR E11",
  "SpacingBetweenSlices": 2,
  "StationName": "AWP166078",
  "TaskName": "action",
  "TotalReadoutTime": 0.0534586,
  "TxRefAmp": 212.816,
  "dcmmeta_affine": [
    [-2.0, 0.0, 0.0, 100.0],
    [0.0, 1.9272608757019043, -0.5344767570495605, -71.66040802001953],
    [0.0, 0.5344767570495605, 1.9272608757019043, -91.50785064697266],
    [0.0, 0.0, 0.0, 1.0]
],
  "dcmmeta_reorient_transform": [
    [0.0, -1.0, 0.0, 99.0],
    [1.0, 0.0, 0.0, 0.0],
    [0.0, 0.0, 1.0, 0.0],
    [0.0, 0.0, 0.0, 1.0]
],
  "dcmmeta_shape": [100, 100, 72, 156],
  "dcmmeta_slice_dim": 2,
  "dcmmeta_version": 0.6,
  "global": {
    "const": {
      "AcquisitionMatrix": [100, 0, 0, 100],
      "AngioFlag": "N",
      "BitsAllocated": 16,
      "BitsStored": 12,
      "BodyPartExamined": "BRAIN",
      "Columns": 900,
      "EchoNumbers": 1,
      "EchoTime": 34.0,
      "EchoTrainLength": 100,
      "FlipAngle": 90.0,
      "HighBit": 11,
      "ImageOrientationPatient": [1.0, 0.0, 0.0, 0.0, 0.9636304558474, -0.2672383665631],
      "ImagePositionPatient": [-900.0, -890.04278753622, 175.19604083213],
      "ImageType": [
        "ORIGINAL",
        "PRIMARY",
        "M",
        "ND",
        "MOSAIC"
],
      "ImagedNucleus": "1H",
      "ImagingFrequency": 123.25773,
      "InPlanePhaseEncodingDirection": "COL",
      "MRAcquisitionType": "2D",
      "MagneticFieldStrength": 3.0,
      "Manufacturer": "SIEMENS",
      "ManufacturerModelName": "Prisma",
      "Modality": "MR",
      "NumberOfAverages": 1.0,
      "NumberOfPhaseEncodingSteps": 100,
      "PercentPhaseFieldOfView": 100.0,
      "PercentSampling": 100.0,
      "PerformedProcedureStepStartTime": "160219.420000",
      "PhotometricInterpretation": "MONOCHROME2",
      "PixelBandwidth": 2380.0,
      "PixelRepresentation": 0,
      "PixelSpacing": [2.0, 2.0],
      "ProtocolName": "bold_100x100_s3_2x2x2_static_156",
      "RepetitionTime": 2000.0,
      "Rows": 900,
      "SAR": 0.06706142560556,
      "SamplesPerPixel": 1,
      "ScanOptions": "FS",
      "ScanningSequence": "EP",
      "SequenceName": "*epfid2d1_100",
      "SequenceVariant": "SK",
      "SeriesDescription": "bold_100x100_s3_2x2x2_static_156",
      "SeriesNumber": 16,
      "SeriesTime": "171447.884000",
      "SliceLocation": -69.029340022769,
      "SliceThickness": 2.0,
      "SmallestImagePixelValue": 0,
      "SoftwareVersions": "syngo MR E11",
      "SpacingBetweenSlices": 2.0000000152169,
      "SpecificCharacterSet": "ISO_IR 100",
      "StudyID": "1",
      "StudyTime": "160219.353000",
      "TransmitCoilName": "Body",
      "VariableFlipAngleFlag": "N",
      "WindowCenterWidthExplanation": "Algo1",
      "dBdt": 0.0},
    "slices": {}
  },
  "time": {
    "samples": {
      "AcquisitionNumber": [1, 2, 3, 4, 5, 6, 7, 8, 9, 10, 11, 12, 13, 14, 15, 16, 17, 18, 19, 20, 21, 22, 23, 24, 25, 26, 27, 28, 29, 30, 31, 32, 33, 34, 35, 36, 37, 38, 39, 40, 41, 42, 43, 44, 45, 46, 47, 48, 49, 50, 51, 52, 53, 54, 55, 56, 57, 58, 59, 60, 61, 62, 63, 64, 65, 66, 67, 68, 69, 70, 71, 72, 73, 74, 75, 76, 77, 78, 79, 80, 81, 82, 83, 84, 85, 86, 87, 88, 89, 90, 91, 92, 93, 94, 95, 96, 97, 98, 99, 100, 101, 102, 103, 104, 105, 106, 107, 108, 109, 110, 111, 112, 113, 114, 115, 116, 117, 118, 119, 120, 121, 122, 123, 124, 125, 126, 127, 128, 129, 130, 131, 132, 133, 134, 135, 136, 137, 138, 139, 140, 141, 142, 143, 144, 145, 146, 147, 148, 149, 150, 151, 152, 153, 154, 155, 156],
      "AcquisitionTime": ["171445.577500", "171447.577500", "171449.577500", "171451.577500", "171453.577500", "171455.577500", "171457.577500", "171459.577500", "171501.577500", "171503.577500", "171505.577500", "171507.577500", "171509.577500", "171511.577500", "171513.577500", "171515.577500", "171517.577500", "171519.577500", "171521.577500", "171523.577500", "171525.577500", "171527.577500", "171529.577500", "171531.577500", "171533.577500", "171535.577500", "171537.577500", "171539.577500", "171541.577500", "171543.577500", "171545.577500", "171547.577500", "171549.577500", "171551.577500", "171553.577500", "171555.577500", "171557.577500", "171559.577500", "171601.577500", "171603.577500", "171605.577500", "171607.577500", "171609.577500", "171611.577500", "171613.577500", "171615.577500", "171617.577500", "171619.577500", "171621.577500", "171623.577500", "171625.577500", "171627.577500", "171629.577500", "171631.577500", "171633.577500", "171635.577500", "171637.577500", "171639.577500", "171641.577500", "171643.577500", "171645.577500", "171647.577500", "171649.577500", "171651.577500", "171653.577500", "171655.577500", "171657.577500", "171659.577500", "171701.577500", "171703.577500", "171705.577500", "171707.577500", "171709.577500", "171711.577500", "171713.577500", "171715.577500", "171717.577500", "171719.577500", "171721.577500", "171723.577500", "171725.577500", "171727.577500", "171729.577500", "171731.577500", "171733.577500", "171735.577500", "171737.577500", "171739.577500", "171741.577500", "171743.577500", "171745.577500", "171747.577500", "171749.577500", "171751.577500", "171753.577500", "171755.577500", "171757.577500", "171759.577500", "171801.577500", "171803.577500", "171805.577500", "171807.577500", "171809.577500", "171811.577500", "171813.577500", "171815.577500", "171817.577500", "171819.577500", "171821.577500", "171823.577500", "171825.577500", "171827.577500", "171829.577500", "171831.577500", "171833.577500", "171835.577500", "171837.577500", "171839.577500", "171841.577500", "171843.577500", "171845.577500", "171847.577500", "171849.577500", "171851.577500", "171853.577500", "171855.577500", "171857.577500", "171859.577500", "171901.577500", "171903.577500", "171905.577500", "171907.577500", "171909.577500", "171911.577500", "171913.577500", "171915.577500", "171917.577500", "171919.577500", "171921.577500", "171923.577500", "171925.577500", "171927.577500", "171929.577500", "171931.577500", "171933.577500", "171935.577500", "171937.577500", "171939.577500", "171941.577500", "171943.577500", "171945.577500", "171947.577500", "171949.577500", "171951.577500", "171953.577500", "171955.577500"],
      "ContentTime": ["171447.888000", "171449.383000", "171451.383000", "171453.383000", "171455.383000", "171456.883000", "171459.384000", "171501.384000", "171503.384000", "171505.383000", "171507.384000", "171509.383000", "171511.384000", "171513.383000", "171515.383000", "171517.383000", "171519.384000", "171520.883000", "171523.384000", "171525.384000", "171527.384000", "171529.384000", "171531.384000", "171533.383000", "171535.384000", "171537.384000", "171539.383000", "171540.884000", "171543.383000", "171545.384000", "171547.384000", "171549.383000", "171551.384000", "171553.384000", "171555.384000", "171557.384000", "171559.383000", "171600.884000", "171603.384000", "171605.384000", "171607.384000", "171609.384000", "171611.384000", "171613.383000", "171615.383000", "171617.383000", "171619.383000", "171621.383000", "171623.383000", "171625.383000", "171627.383000", "171629.383000", "171631.383000", "171633.383000", "171635.383000", "171637.383000", "171639.384000", "171641.384000", "171643.384000", "171645.383000", "171647.383000", "171649.384000", "171651.383000", "171653.383000", "171655.383000", "171657.383000", "171659.383000", "171701.384000", "171703.383000", "171705.384000", "171707.384000", "171709.384000", "171711.384000", "171713.384000", "171715.384000", "171717.384000", "171719.383000", "171721.383000", "171723.383000", "171725.384000", "171727.383000", "171729.384000", "171731.383000", "171733.383000", "171734.883000", "171737.384000", "171739.383000", "171741.384000", "171743.383000", "171745.384000", "171747.384000", "171749.384000", "171751.384000", "171753.383000", "171755.384000", "171757.384000", "171759.384000", "171801.384000", "171803.383000", "171805.383000", "171807.384000", "171809.383000", "171811.384000", "171813.383000", "171815.383000", "171817.384000", "171819.383000", "171821.384000", "171823.384000", "171825.384000", "171827.384000", "171829.383000", "171831.383000", "171833.383000", "171835.383000", "171837.383000", "171839.384000", "171841.384000", "171843.384000", "171845.384000", "171847.384000", "171849.384000", "171851.383000", "171853.383000", "171855.383000", "171857.383000", "171859.384000", "171901.383000", "171903.384000", "171905.384000", "171907.383000", "171909.383000", "171911.384000", "171913.384000", "171915.383000", "171917.384000", "171919.384000", "171921.384000", "171923.384000", "171925.383000", "171927.383000", "171929.383000", "171931.384000", "171933.383000", "171935.383000", "171937.384000", "171939.383000", "171941.383000", "171943.383000", "171945.383000", "171947.384000", "171949.383000", "171951.383000", "171953.383000", "171955.383000", "171956.883000"],
      "InstanceCreationTime": ["171447.888000", "171449.383000", "171451.383000", "171453.383000", "171455.383000", "171456.883000", "171459.384000", "171501.384000", "171503.384000", "171505.383000", "171507.384000", "171509.383000", "171511.384000", "171513.383000", "171515.383000", "171517.383000", "171519.384000", "171520.883000", "171523.384000", "171525.384000", "171527.384000", "171529.384000", "171531.384000", "171533.383000", "171535.384000", "171537.384000", "171539.383000", "171540.884000", "171543.383000", "171545.384000", "171547.384000", "171549.383000", "171551.384000", "171553.384000", "171555.384000", "171557.384000", "171559.383000", "171600.884000", "171603.384000", "171605.384000", "171607.384000", "171609.384000", "171611.384000", "171613.383000", "171615.383000", "171617.383000", "171619.383000", "171621.383000", "171623.383000", "171625.383000", "171627.383000", "171629.383000", "171631.383000", "171633.383000", "171635.383000", "171637.383000", "171639.384000", "171641.384000", "171643.384000", "171645.383000", "171647.383000", "171649.384000", "171651.383000", "171653.383000", "171655.383000", "171657.383000", "171659.383000", "171701.384000", "171703.383000", "171705.384000", "171707.384000", "171709.384000", "171711.384000", "171713.384000", "171715.384000", "171717.384000", "171719.383000", "171721.383000", "171723.383000", "171725.384000", "171727.383000", "171729.384000", "171731.383000", "171733.383000", "171734.883000", "171737.384000", "171739.383000", "171741.384000", "171743.383000", "171745.384000", "171747.384000", "171749.384000", "171751.384000", "171753.383000", "171755.384000", "171757.384000", "171759.384000", "171801.384000", "171803.383000", "171805.383000", "171807.384000", "171809.383000", "171811.384000", "171813.383000", "171815.383000", "171817.384000", "171819.383000", "171821.384000", "171823.384000", "171825.384000", "171827.384000", "171829.383000", "171831.383000", "171833.383000", "171835.383000", "171837.383000", "171839.384000", "171841.384000", "171843.384000", "171845.384000", "171847.384000", "171849.384000", "171851.383000", "171853.383000", "171855.383000", "171857.383000", "171859.384000", "171901.383000", "171903.384000", "171905.384000", "171907.383000", "171909.383000", "171911.384000", "171913.384000", "171915.383000", "171917.384000", "171919.384000", "171921.384000", "171923.384000", "171925.383000", "171927.383000", "171929.383000", "171931.384000", "171933.383000", "171935.383000", "171937.384000", "171939.383000", "171941.383000", "171943.383000", "171945.383000", "171947.384000", "171949.383000", "171951.383000", "171953.383000", "171955.383000", "171956.883000"],
      "InstanceNumber": [1, 2, 3, 4, 5, 6, 7, 8, 9, 10, 11, 12, 13, 14, 15, 16, 17, 18, 19, 20, 21, 22, 23, 24, 25, 26, 27, 28, 29, 30, 31, 32, 33, 34, 35, 36, 37, 38, 39, 40, 41, 42, 43, 44, 45, 46, 47, 48, 49, 50, 51, 52, 53, 54, 55, 56, 57, 58, 59, 60, 61, 62, 63, 64, 65, 66, 67, 68, 69, 70, 71, 72, 73, 74, 75, 76, 77, 78, 79, 80, 81, 82, 83, 84, 85, 86, 87, 88, 89, 90, 91, 92, 93, 94, 95, 96, 97, 98, 99, 100, 101, 102, 103, 104, 105, 106, 107, 108, 109, 110, 111, 112, 113, 114, 115, 116, 117, 118, 119, 120, 121, 122, 123, 124, 125, 126, 127, 128, 129, 130, 131, 132, 133, 134, 135, 136, 137, 138, 139, 140, 141, 142, 143, 144, 145, 146, 147, 148, 149, 150, 151, 152, 153, 154, 155, 156],
      "LargestImagePixelValue": [2627, 2602, 2561, 2578, 2563, 2561, 2564, 2563, 2575, 2560, 2573, 2556, 2546, 2561, 2594, 2565, 2561, 2568, 2534, 2542, 2566, 2577, 2576, 2588, 2583, 2555, 2581, 2456, 2474, 2515, 2517, 2466, 2456, 2468, 2479, 2540, 2496, 2478, 2492, 2500, 2476, 2518, 2481, 2451, 2443, 2463, 2505, 2451, 2473, 2502, 2434, 2501, 2484, 2452, 2437, 2463, 2443, 2467, 2460, 2758, 2476, 2418, 2441, 2426, 2463, 2455, 2399, 2437, 2436, 2410, 2431, 2450, 2424, 2405, 2419, 2503, 2526, 2495, 2517, 2549, 2570, 2488, 2472, 2480, 2505, 2454, 2422, 2443, 2515, 2520, 2504, 2499, 2419, 2508, 2531, 2570, 2498, 2538, 2513, 2482, 2512, 2490, 2545, 2525, 2486, 2435, 2522, 2539, 2434, 2504, 2481, 2509, 2507, 2553, 2487, 2547, 2571, 2557, 2499, 2521, 2558, 2580, 2543, 2514, 2556, 2595, 2580, 2563, 2527, 2532, 2530, 2531, 2570, 2521, 2570, 2540, 2535, 2529, 2535, 2561, 2573, 2561, 2594, 2605, 2581, 2607, 2573, 2561, 2617, 2546, 2571, 2581, 2589, 2596, 2583, 2569],
      "WindowCenter": [711.0, 711.0, 710.0, 710.0, 710.0, 711.0, 711.0, 710.0, 710.0, 710.0, 712.0, 712.0, 711.0, 711.0, 711.0, 712.0, 713.0, 712.0, 711.0, 710.0, 711.0, 712.0, 714.0, 715.0, 713.0, 711.0, 711.0, 710.0, 713.0, 712.0, 710.0, 708.0, 708.0, 708.0, 708.0, 708.0, 706.0, 706.0, 708.0, 710.0, 710.0, 711.0, 711.0, 709.0, 707.0, 707.0, 709.0, 710.0, 711.0, 710.0, 710.0, 711.0, 711.0, 712.0, 711.0, 711.0, 710.0, 711.0, 703.0, 717.0, 709.0, 707.0, 707.0, 708.0, 708.0, 708.0, 707.0, 709.0, 709.0, 709.0, 710.0, 709.0, 708.0, 708.0, 710.0, 711.0, 711.0, 711.0, 711.0, 711.0, 710.0, 708.0, 709.0, 709.0, 710.0, 710.0, 709.0, 710.0, 711.0, 709.0, 707.0, 707.0, 707.0, 710.0, 712.0, 712.0, 710.0, 710.0, 711.0, 711.0, 711.0, 710.0, 709.0, 706.0, 705.0, 705.0, 707.0, 708.0, 707.0, 709.0, 708.0, 707.0, 707.0, 709.0, 709.0, 710.0, 712.0, 711.0, 710.0, 711.0, 711.0, 711.0, 710.0, 711.0, 711.0, 711.0, 710.0, 711.0, 710.0, 710.0, 710.0, 710.0, 710.0, 709.0, 708.0, 709.0, 709.0, 710.0, 710.0, 710.0, 711.0, 712.0, 712.0, 710.0, 710.0, 711.0, 714.0, 716.0, 716.0, 715.0, 714.0, 712.0, 712.0, 713.0, 714.0, 714.0],
      "WindowWidth": [1517.0, 1516.0, 1515.0, 1516.0, 1516.0, 1517.0, 1517.0, 1515.0, 1515.0, 1516.0, 1520.0, 1521.0, 1519.0, 1517.0, 1518.0, 1519.0, 1522.0, 1521.0, 1518.0, 1514.0, 1516.0, 1521.0, 1526.0, 1527.0, 1523.0, 1518.0, 1518.0, 1516.0, 1522.0, 1520.0, 1516.0, 1510.0, 1509.0, 1511.0, 1510.0, 1508.0, 1505.0, 1505.0, 1509.0, 1516.0, 1516.0, 1518.0, 1516.0, 1513.0, 1507.0, 1508.0, 1513.0, 1515.0, 1516.0, 1516.0, 1515.0, 1517.0, 1518.0, 1519.0, 1518.0, 1517.0, 1515.0, 1517.0, 1497.0, 1533.0, 1513.0, 1507.0, 1507.0, 1509.0, 1510.0, 1510.0, 1509.0, 1512.0, 1512.0, 1513.0, 1515.0, 1513.0, 1511.0, 1511.0, 1514.0, 1518.0, 1517.0, 1516.0, 1518.0, 1518.0, 1516.0, 1510.0, 1512.0, 1514.0, 1514.0, 1514.0, 1513.0, 1515.0, 1517.0, 1511.0, 1507.0, 1506.0, 1509.0, 1515.0, 1520.0, 1520.0, 1515.0, 1513.0, 1518.0, 1518.0, 1517.0, 1515.0, 1511.0, 1505.0, 1503.0, 1503.0, 1507.0, 1510.0, 1509.0, 1513.0, 1510.0, 1508.0, 1508.0, 1512.0, 1512.0, 1515.0, 1519.0, 1517.0, 1514.0, 1516.0, 1518.0, 1517.0, 1515.0, 1517.0, 1516.0, 1516.0, 1515.0, 1516.0, 1514.0, 1516.0, 1515.0, 1516.0, 1515.0, 1511.0, 1510.0, 1511.0, 1513.0, 1515.0, 1513.0, 1514.0, 1517.0, 1521.0, 1520.0, 1515.0, 1513.0, 1516.0, 1524.0, 1529.0, 1530.0, 1528.0, 1524.0, 1520.0, 1519.0, 1521.0, 1523.0, 1525.0]
    },
    "slices": {}
  }
}