{
  "AcquisitionMatrixPE": 100,
  "AcquisitionNumber": 1,
  "AcquisitionTime": "15:07:9.235000",
  "BandwidthPerPixelPhaseEncode": 18.519,
  "BaseResolution": 100,
  "BodyPartExamined": "BRAIN",
  "CoilCombinationMethod": "Sum of Squares",
  "ConsistencyInfo": "N4_VE11C_LATEST_20160120",
  "ConversionSoftware": "dcm2niix",
  "ConversionSoftwareVersion": "v1.0.20211006",
  "DerivedVendorReportedEchoSpacing": 0.000539986,
  "DeviceSerialNumber": "166078",
  "DwellTime": 2.1e-06,
  "EchoTime": 0.034,
  "EchoTrainLength": 100,
  "EffectiveEchoSpacing": 0.000539986,
  "FlipAngle": 90,
  "ImageOrientationPatientDICOM": [1, 0, 0, 0, 0.973579, -0.228351],
  "ImageOrientationText": "Tra>Cor(-13.2)",
  "ImageType": [
    "ORIGINAL",
    "PRIMARY",
    "M",
    "ND",
    "MOSAIC"
],
  "ImagingFrequency": 123.258,
  "InPlanePhaseEncodingDirectionDICOM": "COL",
  "InstitutionAddress": "Street StreetNo,Bei Jing,District,CN,ZIP",
  "InstitutionName": "BeiJing Normal University",
  "InstitutionalDepartmentName": "Department",
  "MRAcquisitionType": "2D",
  "MagneticFieldStrength": 3,
  "Manufacturer": "Siemens",
  "ManufacturersModelName": "Prisma",
  "Modality": "MR",
  "MultibandAccelerationFactor": 3,
  "PartialFourier": 1,
  "PatientPosition": "HFS",
  "PercentPhaseFOV": 100,
  "PercentSampling": 100,
  "PhaseEncodingDirection": "j-",
  "PhaseEncodingSteps": 100,
  "PhaseResolution": 1,
  "PixelBandwidth": 2380,
  "ProcedureStepDescription": "BNU_P2018_64CH^Zhen.ZongLei",
  "ProtocolName": "bold_100x100_s3_2x2x2_static_156",
  "PulseSequenceDetails": "%SiemensSeq%\\ep2d_bold",
  "ReceiveCoilActiveElements": "HC1-7;NC1",
  "ReceiveCoilName": "HeadNeck_64",
  "ReconMatrixPE": 100,
  "RefLinesPE": 32,
  "RepetitionTime": 2,
  "SAR": 0.0843285,
  "ScanOptions": "FS",
  "ScanningSequence": "EP",
  "SequenceName": "*epfid2d1_100",
  "SequenceVariant": "SK",
  "SeriesDescription": "bold_100x100_s3_2x2x2_static_156",
  "SeriesNumber": 11,
  "ShimSetting": [-5481, -11471, -1239, 161, -88, -543, 3, 1],
  "SliceThickness": 2,
  "SliceTiming": [1.485, 0, 0.99, 0.0825, 1.0725, 0.165, 1.155, 0.2475, 1.2375, 0.33, 1.32, 0.4125, 1.4025, 0.5775, 1.5675, 0.66, 1.65, 0.7425, 1.7325, 0.825, 1.815, 0.9075, 1.8975, 0.495, 1.485, 0, 0.99, 0.0825, 1.0725, 0.165, 1.155, 0.2475, 1.2375, 0.33, 1.32, 0.4125, 1.4025, 0.5775, 1.5675, 0.66, 1.65, 0.7425, 1.7325, 0.825, 1.815, 0.9075, 1.8975, 0.495, 1.485, 0, 0.99, 0.0825, 1.0725, 0.165, 1.155, 0.2475, 1.2375, 0.33, 1.32, 0.4125, 1.4025, 0.5775, 1.5675, 0.66, 1.65, 0.7425, 1.7325, 0.825, 1.815, 0.9075, 1.8975, 0.495],
  "SoftwareVersions": "syngo MR E11",
  "SpacingBetweenSlices": 2,
  "StationName": "AWP166078",
  "TaskName": "action",
  "TotalReadoutTime": 0.0534586,
  "TxRefAmp": 261.79,
  "dcmmeta_affine": [
    [-2.0, 0.0, 0.0, 101.3559341430664],
    [0.0, 1.9471577405929565, -0.45670175552368164, -69.9145278930664],
    [0.0, 0.45670175552368164, 1.9471577405929565, -103.58965301513672],
    [0.0, 0.0, 0.0, 1.0]
],
  "dcmmeta_reorient_transform": [
    [0.0, -1.0, 0.0, 99.0],
    [1.0, 0.0, 0.0, 0.0],
    [0.0, 0.0, 1.0, 0.0],
    [0.0, 0.0, 0.0, 1.0]
],
  "dcmmeta_shape": [100, 100, 72, 156],
  "dcmmeta_slice_dim": 2,
  "dcmmeta_version": 0.6,
  "global": {
    "const": {
      "AcquisitionMatrix": [100, 0, 0, 100],
      "AngioFlag": "N",
      "BitsAllocated": 16,
      "BitsStored": 12,
      "BodyPartExamined": "BRAIN",
      "Columns": 900,
      "EchoNumbers": 1,
      "EchoTime": 34.0,
      "EchoTrainLength": 100,
      "FlipAngle": 90.0,
      "HighBit": 11,
      "ImageOrientationPatient": [1.0, 0.0, 0.0, 0.0, 0.97357889963852, -0.2283508839016],
      "ImagePositionPatient": [-901.35593223572, -901.71721405089, 124.3045299475],
      "ImageType": [
        "ORIGINAL",
        "PRIMARY",
        "M",
        "ND",
        "MOSAIC"
],
      "ImagedNucleus": "1H",
      "ImagingFrequency": 123.257686,
      "InPlanePhaseEncodingDirection": "COL",
      "MRAcquisitionType": "2D",
      "MagneticFieldStrength": 3.0,
      "Manufacturer": "SIEMENS",
      "ManufacturerModelName": "Prisma",
      "Modality": "MR",
      "NumberOfAverages": 1.0,
      "NumberOfPhaseEncodingSteps": 100,
      "PercentPhaseFieldOfView": 100.0,
      "PercentSampling": 100.0,
      "PerformedProcedureStepStartTime": "142555.533000",
      "PhotometricInterpretation": "MONOCHROME2",
      "PixelBandwidth": 2380.0,
      "PixelRepresentation": 0,
      "PixelSpacing": [2.0, 2.0],
      "ProtocolName": "bold_100x100_s3_2x2x2_static_156",
      "RepetitionTime": 2000.0,
      "Rows": 900,
      "SAR": 0.08432847388955,
      "SamplesPerPixel": 1,
      "ScanOptions": "FS",
      "ScanningSequence": "EP",
      "SequenceName": "*epfid2d1_100",
      "SequenceVariant": "SK",
      "SeriesDescription": "bold_100x100_s3_2x2x2_static_156",
      "SeriesNumber": 11,
      "SeriesTime": "150712.317000",
      "SliceLocation": -84.887655371463,
      "SliceThickness": 2.0,
      "SmallestImagePixelValue": 0,
      "SoftwareVersions": "syngo MR E11",
      "SpacingBetweenSlices": 1.9999999338269,
      "SpecificCharacterSet": "ISO_IR 100",
      "StudyID": "1",
      "StudyTime": "142555.425000",
      "TransmitCoilName": "Body",
      "VariableFlipAngleFlag": "N",
      "WindowCenterWidthExplanation": "Algo1",
      "dBdt": 0.0},
    "slices": {}
  },
  "time": {
    "samples": {
      "AcquisitionNumber": [1, 2, 3, 4, 5, 6, 7, 8, 9, 10, 11, 12, 13, 14, 15, 16, 17, 18, 19, 20, 21, 22, 23, 24, 25, 26, 27, 28, 29, 30, 31, 32, 33, 34, 35, 36, 37, 38, 39, 40, 41, 42, 43, 44, 45, 46, 47, 48, 49, 50, 51, 52, 53, 54, 55, 56, 57, 58, 59, 60, 61, 62, 63, 64, 65, 66, 67, 68, 69, 70, 71, 72, 73, 74, 75, 76, 77, 78, 79, 80, 81, 82, 83, 84, 85, 86, 87, 88, 89, 90, 91, 92, 93, 94, 95, 96, 97, 98, 99, 100, 101, 102, 103, 104, 105, 106, 107, 108, 109, 110, 111, 112, 113, 114, 115, 116, 117, 118, 119, 120, 121, 122, 123, 124, 125, 126, 127, 128, 129, 130, 131, 132, 133, 134, 135, 136, 137, 138, 139, 140, 141, 142, 143, 144, 145, 146, 147, 148, 149, 150, 151, 152, 153, 154, 155, 156],
      "AcquisitionTime": ["150709.235000", "150711.235000", "150713.235000", "150715.235000", "150717.235000", "150719.235000", "150721.235000", "150723.235000", "150725.235000", "150727.235000", "150729.235000", "150731.235000", "150733.235000", "150735.235000", "150737.235000", "150739.235000", "150741.235000", "150743.235000", "150745.235000", "150747.235000", "150749.235000", "150751.235000", "150753.235000", "150755.235000", "150757.235000", "150759.235000", "150801.235000", "150803.235000", "150805.235000", "150807.235000", "150809.235000", "150811.235000", "150813.235000", "150815.235000", "150817.235000", "150819.235000", "150821.235000", "150823.235000", "150825.235000", "150827.235000", "150829.235000", "150831.235000", "150833.235000", "150835.235000", "150837.235000", "150839.235000", "150841.235000", "150843.235000", "150845.235000", "150847.235000", "150849.235000", "150851.235000", "150853.235000", "150855.235000", "150857.235000", "150859.235000", "150901.235000", "150903.235000", "150905.235000", "150907.235000", "150909.235000", "150911.235000", "150913.235000", "150915.235000", "150917.235000", "150919.235000", "150921.235000", "150923.235000", "150925.235000", "150927.235000", "150929.235000", "150931.235000", "150933.235000", "150935.235000", "150937.235000", "150939.235000", "150941.235000", "150943.235000", "150945.235000", "150947.235000", "150949.235000", "150951.235000", "150953.235000", "150955.235000", "150957.235000", "150959.235000", "151001.235000", "151003.235000", "151005.235000", "151007.235000", "151009.235000", "151011.235000", "151013.235000", "151015.235000", "151017.235000", "151019.235000", "151021.235000", "151023.235000", "151025.235000", "151027.235000", "151029.235000", "151031.235000", "151033.235000", "151035.235000", "151037.235000", "151039.235000", "151041.235000", "151043.235000", "151045.235000", "151047.235000", "151049.235000", "151051.235000", "151053.235000", "151055.235000", "151057.235000", "151059.235000", "151101.235000", "151103.235000", "151105.235000", "151107.235000", "151109.235000", "151111.235000", "151113.235000", "151115.235000", "151117.235000", "151119.235000", "151121.235000", "151123.235000", "151125.235000", "151127.235000", "151129.235000", "151131.235000", "151133.235000", "151135.235000", "151137.235000", "151139.235000", "151141.235000", "151143.235000", "151145.235000", "151147.235000", "151149.235000", "151151.235000", "151153.235000", "151155.235000", "151157.235000", "151159.235000", "151201.235000", "151203.235000", "151205.235000", "151207.235000", "151209.235000", "151211.235000", "151213.235000", "151215.235000", "151217.235000", "151219.235000"],
      "ContentTime": ["150712.321000", "150713.817000", "150715.817000", "150717.817000", "150719.817000", "150721.817000", "150723.817000", "150725.817000", "150727.816000", "150729.817000", "150731.817000", "150733.817000", "150735.817000", "150737.817000", "150739.817000", "150741.817000", "150743.817000", "150745.817000", "150747.818000", "150749.817000", "150751.817000", "150753.817000", "150755.817000", "150757.817000", "150759.817000", "150801.816000", "150803.817000", "150805.818000", "150807.817000", "150809.817000", "150811.816000", "150813.817000", "150815.816000", "150817.817000", "150819.817000", "150821.817000", "150823.818000", "150825.817000", "150827.817000", "150829.817000", "150831.817000", "150833.817000", "150835.817000", "150837.817000", "150839.816000", "150841.816000", "150843.817000", "150845.817000", "150847.817000", "150849.817000", "150851.817000", "150853.817000", "150855.817000", "150857.818000", "150859.816000", "150901.817000", "150903.817000", "150905.817000", "150907.817000", "150909.817000", "150911.816000", "150913.817000", "150915.817000", "150917.817000", "150919.817000", "150921.817000", "150923.816000", "150925.816000", "150927.817000", "150929.816000", "150931.816000", "150933.818000", "150935.817000", "150937.817000", "150939.817000", "150941.817000", "150943.816000", "150945.817000", "150947.817000", "150949.818000", "150951.817000", "150953.817000", "150955.817000", "150957.817000", "150959.817000", "151001.817000", "151003.817000", "151005.817000", "151007.818000", "151009.817000", "151011.817000", "151013.817000", "151015.816000", "151017.817000", "151019.817000", "151021.816000", "151023.817000", "151025.817000", "151027.817000", "151029.817000", "151031.817000", "151033.817000", "151035.817000", "151037.817000", "151039.817000", "151041.816000", "151043.818000", "151045.817000", "151047.817000", "151049.817000", "151051.817000", "151053.817000", "151055.817000", "151057.817000", "151059.818000", "151101.816000", "151103.837000", "151105.817000", "151107.817000", "151109.817000", "151111.817000", "151113.817000", "151115.817000", "151117.818000", "151119.816000", "151121.817000", "151123.817000", "151125.817000", "151127.817000", "151129.817000", "151131.817000", "151133.816000", "151135.818000", "151137.817000", "151139.817000", "151141.817000", "151143.817000", "151145.817000", "151147.817000", "151149.816000", "151151.817000", "151153.818000", "151155.817000", "151157.817000", "151159.817000", "151201.817000", "151203.817000", "151205.816000", "151207.817000", "151209.818000", "151211.817000", "151213.817000", "151215.817000", "151217.817000", "151219.817000", "151221.476000"],
      "InstanceCreationTime": ["150712.321000", "150713.817000", "150715.817000", "150717.817000", "150719.817000", "150721.817000", "150723.817000", "150725.817000", "150727.816000", "150729.817000", "150731.817000", "150733.817000", "150735.817000", "150737.817000", "150739.817000", "150741.817000", "150743.817000", "150745.817000", "150747.818000", "150749.817000", "150751.817000", "150753.817000", "150755.817000", "150757.817000", "150759.817000", "150801.816000", "150803.817000", "150805.818000", "150807.817000", "150809.817000", "150811.816000", "150813.817000", "150815.816000", "150817.817000", "150819.817000", "150821.817000", "150823.818000", "150825.817000", "150827.817000", "150829.817000", "150831.817000", "150833.817000", "150835.817000", "150837.817000", "150839.816000", "150841.816000", "150843.817000", "150845.817000", "150847.817000", "150849.817000", "150851.817000", "150853.817000", "150855.817000", "150857.818000", "150859.816000", "150901.817000", "150903.817000", "150905.817000", "150907.817000", "150909.817000", "150911.816000", "150913.817000", "150915.817000", "150917.817000", "150919.817000", "150921.817000", "150923.816000", "150925.816000", "150927.817000", "150929.816000", "150931.816000", "150933.818000", "150935.817000", "150937.817000", "150939.817000", "150941.817000", "150943.816000", "150945.817000", "150947.817000", "150949.818000", "150951.817000", "150953.817000", "150955.817000", "150957.817000", "150959.817000", "151001.817000", "151003.817000", "151005.817000", "151007.818000", "151009.817000", "151011.817000", "151013.817000", "151015.816000", "151017.817000", "151019.817000", "151021.816000", "151023.817000", "151025.817000", "151027.817000", "151029.817000", "151031.817000", "151033.817000", "151035.817000", "151037.817000", "151039.817000", "151041.816000", "151043.818000", "151045.817000", "151047.817000", "151049.817000", "151051.817000", "151053.817000", "151055.817000", "151057.817000", "151059.818000", "151101.816000", "151103.837000", "151105.817000", "151107.817000", "151109.817000", "151111.817000", "151113.817000", "151115.817000", "151117.818000", "151119.816000", "151121.817000", "151123.817000", "151125.817000", "151127.817000", "151129.817000", "151131.817000", "151133.816000", "151135.818000", "151137.817000", "151139.817000", "151141.817000", "151143.817000", "151145.817000", "151147.817000", "151149.816000", "151151.817000", "151153.818000", "151155.817000", "151157.817000", "151159.817000", "151201.817000", "151203.817000", "151205.816000", "151207.817000", "151209.818000", "151211.817000", "151213.817000", "151215.817000", "151217.817000", "151219.817000", "151221.476000"],
      "InstanceNumber": [1, 2, 3, 4, 5, 6, 7, 8, 9, 10, 11, 12, 13, 14, 15, 16, 17, 18, 19, 20, 21, 22, 23, 24, 25, 26, 27, 28, 29, 30, 31, 32, 33, 34, 35, 36, 37, 38, 39, 40, 41, 42, 43, 44, 45, 46, 47, 48, 49, 50, 51, 52, 53, 54, 55, 56, 57, 58, 59, 60, 61, 62, 63, 64, 65, 66, 67, 68, 69, 70, 71, 72, 73, 74, 75, 76, 77, 78, 79, 80, 81, 82, 83, 84, 85, 86, 87, 88, 89, 90, 91, 92, 93, 94, 95, 96, 97, 98, 99, 100, 101, 102, 103, 104, 105, 106, 107, 108, 109, 110, 111, 112, 113, 114, 115, 116, 117, 118, 119, 120, 121, 122, 123, 124, 125, 126, 127, 128, 129, 130, 131, 132, 133, 134, 135, 136, 137, 138, 139, 140, 141, 142, 143, 144, 145, 146, 147, 148, 149, 150, 151, 152, 153, 154, 155, 156],
      "LargestImagePixelValue": [3046, 2883, 2862, 2831, 2855, 2836, 2846, 2914, 2879, 2906, 2894, 2917, 2932, 2992, 2944, 2942, 2971, 2962, 2951, 2947, 2943, 2912, 2953, 2971, 2964, 2937, 2954, 2956, 2961, 2893, 2892, 2980, 2938, 2969, 2943, 2943, 2964, 2916, 2923, 2939, 2968, 2958, 2895, 2887, 2882, 2955, 2887, 2945, 2951, 2985, 2927, 2954, 2916, 2906, 2937, 2959, 2929, 2955, 2929, 2943, 2934, 2963, 2953, 2961, 2930, 2991, 2953, 2951, 2914, 2940, 2923, 2980, 2983, 2975, 2967, 2951, 2962, 2930, 2958, 2964, 2963, 2970, 2925, 2962, 2958, 3006, 2972, 2955, 2960, 2972, 2969, 2923, 2913, 2949, 2963, 3004, 2923, 2947, 2958, 2931, 2940, 2935, 2934, 2960, 2966, 2891, 2981, 2973, 2941, 2927, 2967, 2942, 2948, 2953, 2976, 2931, 2936, 2952, 2978, 2953, 2850, 2958, 2975, 2953, 2928, 2887, 2945, 2964, 2979, 2958, 2990, 2939, 2925, 2972, 2949, 2983, 2971, 2969, 3002, 2962, 2976, 2961, 2990, 2969, 2981, 2964, 2925, 2990, 2961, 2975, 2955, 2952, 3006, 2991, 2975, 2982],
      "WindowCenter": [788.0, 785.0, 785.0, 785.0, 786.0, 785.0, 785.0, 786.0, 785.0, 785.0, 785.0, 785.0, 785.0, 785.0, 785.0, 785.0, 786.0, 786.0, 785.0, 784.0, 785.0, 784.0, 785.0, 786.0, 785.0, 785.0, 785.0, 785.0, 785.0, 785.0, 783.0, 784.0, 785.0, 784.0, 784.0, 783.0, 784.0, 783.0, 784.0, 784.0, 784.0, 784.0, 783.0, 784.0, 784.0, 785.0, 784.0, 785.0, 786.0, 785.0, 784.0, 785.0, 785.0, 784.0, 783.0, 783.0, 784.0, 786.0, 785.0, 784.0, 783.0, 783.0, 782.0, 782.0, 783.0, 784.0, 784.0, 785.0, 786.0, 784.0, 783.0, 783.0, 784.0, 784.0, 784.0, 783.0, 785.0, 785.0, 784.0, 784.0, 784.0, 784.0, 784.0, 784.0, 784.0, 785.0, 786.0, 786.0, 786.0, 786.0, 786.0, 786.0, 786.0, 785.0, 784.0, 783.0, 783.0, 784.0, 783.0, 782.0, 784.0, 785.0, 784.0, 783.0, 783.0, 782.0, 784.0, 784.0, 785.0, 784.0, 784.0, 785.0, 785.0, 785.0, 785.0, 784.0, 785.0, 785.0, 786.0, 786.0, 784.0, 786.0, 786.0, 788.0, 786.0, 784.0, 783.0, 783.0, 783.0, 781.0, 780.0, 779.0, 779.0, 782.0, 784.0, 787.0, 787.0, 786.0, 786.0, 786.0, 785.0, 785.0, 785.0, 785.0, 785.0, 784.0, 785.0, 787.0, 786.0, 787.0, 785.0, 785.0, 786.0, 786.0, 786.0, 786.0],
      "WindowWidth": [1675.0, 1668.0, 1668.0, 1667.0, 1669.0, 1667.0, 1666.0, 1669.0, 1667.0, 1667.0, 1667.0, 1667.0, 1667.0, 1668.0, 1667.0, 1667.0, 1670.0, 1669.0, 1667.0, 1664.0, 1666.0, 1665.0, 1667.0, 1668.0, 1667.0, 1666.0, 1667.0, 1667.0, 1668.0, 1666.0, 1662.0, 1664.0, 1666.0, 1666.0, 1664.0, 1662.0, 1665.0, 1663.0, 1664.0, 1665.0, 1665.0, 1665.0, 1663.0, 1663.0, 1665.0, 1666.0, 1664.0, 1666.0, 1668.0, 1666.0, 1663.0, 1666.0, 1666.0, 1665.0, 1662.0, 1663.0, 1666.0, 1669.0, 1666.0, 1664.0, 1662.0, 1663.0, 1661.0, 1660.0, 1663.0, 1665.0, 1664.0, 1666.0, 1668.0, 1665.0, 1661.0, 1663.0, 1664.0, 1664.0, 1663.0, 1663.0, 1667.0, 1666.0, 1665.0, 1664.0, 1665.0, 1664.0, 1664.0, 1664.0, 1664.0, 1667.0, 1669.0, 1668.0, 1669.0, 1668.0, 1669.0, 1668.0, 1668.0, 1666.0, 1663.0, 1662.0, 1662.0, 1664.0, 1661.0, 1659.0, 1663.0, 1665.0, 1664.0, 1662.0, 1661.0, 1660.0, 1664.0, 1664.0, 1666.0, 1663.0, 1665.0, 1665.0, 1665.0, 1666.0, 1667.0, 1665.0, 1666.0, 1667.0, 1667.0, 1670.0, 1664.0, 1667.0, 1670.0, 1675.0, 1669.0, 1663.0, 1661.0, 1661.0, 1661.0, 1656.0, 1654.0, 1652.0, 1653.0, 1659.0, 1665.0, 1671.0, 1670.0, 1668.0, 1668.0, 1668.0, 1666.0, 1666.0, 1667.0, 1666.0, 1665.0, 1663.0, 1667.0, 1672.0, 1669.0, 1670.0, 1667.0, 1666.0, 1669.0, 1669.0, 1668.0, 1670.0]
    },
    "slices": {}
  }
}