{
  "AcquisitionMatrixPE": 100,
  "AcquisitionNumber": 1,
  "AcquisitionTime": "14:40:41.842500",
  "BandwidthPerPixelPhaseEncode": 18.519,
  "BaseResolution": 100,
  "BodyPartExamined": "BRAIN",
  "CoilCombinationMethod": "Sum of Squares",
  "ConsistencyInfo": "N4_VE11C_LATEST_20160120",
  "ConversionSoftware": "dcm2niix",
  "ConversionSoftwareVersion": "v1.0.20211006",
  "DerivedVendorReportedEchoSpacing": 0.000539986,
  "DeviceSerialNumber": "166078",
  "DwellTime": 2.1e-06,
  "EchoTime": 0.034,
  "EchoTrainLength": 100,
  "EffectiveEchoSpacing": 0.000539986,
  "FlipAngle": 90,
  "ImageOrientationPatientDICOM": [1, 0, 0, 0, 0.973579, -0.228351],
  "ImageOrientationText": "Tra>Cor(-13.2)",
  "ImageType": [
    "ORIGINAL",
    "PRIMARY",
    "M",
    "ND",
    "MOSAIC"
],
  "ImagingFrequency": 123.258,
  "InPlanePhaseEncodingDirectionDICOM": "COL",
  "InstitutionAddress": "Street StreetNo,Bei Jing,District,CN,ZIP",
  "InstitutionName": "BeiJing Normal University",
  "InstitutionalDepartmentName": "Department",
  "MRAcquisitionType": "2D",
  "MagneticFieldStrength": 3,
  "Manufacturer": "Siemens",
  "ManufacturersModelName": "Prisma",
  "Modality": "MR",
  "MultibandAccelerationFactor": 3,
  "PartialFourier": 1,
  "PatientPosition": "HFS",
  "PercentPhaseFOV": 100,
  "PercentSampling": 100,
  "PhaseEncodingDirection": "j-",
  "PhaseEncodingSteps": 100,
  "PhaseResolution": 1,
  "PixelBandwidth": 2380,
  "ProcedureStepDescription": "BNU_P2018_64CH^Zhen.ZongLei",
  "ProtocolName": "bold_100x100_s3_2x2x2_static_156",
  "PulseSequenceDetails": "%SiemensSeq%\\ep2d_bold",
  "ReceiveCoilActiveElements": "HC1-7;NC1",
  "ReceiveCoilName": "HeadNeck_64",
  "ReconMatrixPE": 100,
  "RefLinesPE": 32,
  "RepetitionTime": 2,
  "SAR": 0.0843285,
  "ScanOptions": "FS",
  "ScanningSequence": "EP",
  "SequenceName": "*epfid2d1_100",
  "SequenceVariant": "SK",
  "SeriesDescription": "bold_100x100_s3_2x2x2_static_156",
  "SeriesNumber": 5,
  "ShimSetting": [-5481, -11471, -1239, 161, -88, -543, 3, 1],
  "SliceThickness": 2,
  "SliceTiming": [1.485, 0, 0.99, 0.0825, 1.0725, 0.165, 1.155, 0.2475, 1.2375, 0.33, 1.32, 0.4125, 1.4025, 0.5775, 1.5675, 0.66, 1.65, 0.7425, 1.7325, 0.825, 1.815, 0.9075, 1.8975, 0.495, 1.485, 0, 0.99, 0.0825, 1.0725, 0.165, 1.155, 0.2475, 1.2375, 0.33, 1.32, 0.4125, 1.4025, 0.5775, 1.5675, 0.66, 1.65, 0.7425, 1.7325, 0.825, 1.815, 0.9075, 1.8975, 0.495, 1.485, 0, 0.99, 0.0825, 1.0725, 0.165, 1.155, 0.2475, 1.2375, 0.33, 1.32, 0.4125, 1.4025, 0.5775, 1.5675, 0.66, 1.65, 0.7425, 1.7325, 0.825, 1.815, 0.9075, 1.8975, 0.495],
  "SoftwareVersions": "syngo MR E11",
  "SpacingBetweenSlices": 2,
  "StationName": "AWP166078",
  "TaskName": "action",
  "TotalReadoutTime": 0.0534586,
  "TxRefAmp": 261.79,
  "dcmmeta_affine": [
    [-2.0, 0.0, 0.0, 101.3559341430664],
    [0.0, 1.9471577405929565, -0.45670175552368164, -69.9145278930664],
    [0.0, 0.45670175552368164, 1.9471577405929565, -103.58965301513672],
    [0.0, 0.0, 0.0, 1.0]
],
  "dcmmeta_reorient_transform": [
    [0.0, -1.0, 0.0, 99.0],
    [1.0, 0.0, 0.0, 0.0],
    [0.0, 0.0, 1.0, 0.0],
    [0.0, 0.0, 0.0, 1.0]
],
  "dcmmeta_shape": [100, 100, 72, 156],
  "dcmmeta_slice_dim": 2,
  "dcmmeta_version": 0.6,
  "global": {
    "const": {
      "AcquisitionMatrix": [100, 0, 0, 100],
      "AngioFlag": "N",
      "BitsAllocated": 16,
      "BitsStored": 12,
      "BodyPartExamined": "BRAIN",
      "Columns": 900,
      "EchoNumbers": 1,
      "EchoTime": 34.0,
      "EchoTrainLength": 100,
      "FlipAngle": 90.0,
      "HighBit": 11,
      "ImageOrientationPatient": [1.0, 0.0, 0.0, 0.0, 0.97357889963852, -0.2283508839016],
      "ImagePositionPatient": [-901.35593223572, -901.71721405089, 124.3045299475],
      "ImageType": [
        "ORIGINAL",
        "PRIMARY",
        "M",
        "ND",
        "MOSAIC"
],
      "ImagedNucleus": "1H",
      "ImagingFrequency": 123.257686,
      "InPlanePhaseEncodingDirection": "COL",
      "MRAcquisitionType": "2D",
      "MagneticFieldStrength": 3.0,
      "Manufacturer": "SIEMENS",
      "ManufacturerModelName": "Prisma",
      "Modality": "MR",
      "NumberOfAverages": 1.0,
      "NumberOfPhaseEncodingSteps": 100,
      "PercentPhaseFieldOfView": 100.0,
      "PercentSampling": 100.0,
      "PerformedProcedureStepStartTime": "142555.533000",
      "PhotometricInterpretation": "MONOCHROME2",
      "PixelBandwidth": 2380.0,
      "PixelRepresentation": 0,
      "PixelSpacing": [2.0, 2.0],
      "ProtocolName": "bold_100x100_s3_2x2x2_static_156",
      "RepetitionTime": 2000.0,
      "Rows": 900,
      "SAR": 0.08432847388955,
      "SamplesPerPixel": 1,
      "ScanOptions": "FS",
      "ScanningSequence": "EP",
      "SequenceName": "*epfid2d1_100",
      "SequenceVariant": "SK",
      "SeriesDescription": "bold_100x100_s3_2x2x2_static_156",
      "SeriesNumber": 5,
      "SeriesTime": "144044.262000",
      "SliceLocation": -84.887655371463,
      "SliceThickness": 2.0,
      "SmallestImagePixelValue": 0,
      "SoftwareVersions": "syngo MR E11",
      "SpacingBetweenSlices": 1.9999999338269,
      "SpecificCharacterSet": "ISO_IR 100",
      "StudyID": "1",
      "StudyTime": "142555.425000",
      "TransmitCoilName": "Body",
      "VariableFlipAngleFlag": "N",
      "WindowCenterWidthExplanation": "Algo1",
      "dBdt": 0.0},
    "slices": {}
  },
  "time": {
    "samples": {
      "AcquisitionNumber": [1, 2, 3, 4, 5, 6, 7, 8, 9, 10, 11, 12, 13, 14, 15, 16, 17, 18, 19, 20, 21, 22, 23, 24, 25, 26, 27, 28, 29, 30, 31, 32, 33, 34, 35, 36, 37, 38, 39, 40, 41, 42, 43, 44, 45, 46, 47, 48, 49, 50, 51, 52, 53, 54, 55, 56, 57, 58, 59, 60, 61, 62, 63, 64, 65, 66, 67, 68, 69, 70, 71, 72, 73, 74, 75, 76, 77, 78, 79, 80, 81, 82, 83, 84, 85, 86, 87, 88, 89, 90, 91, 92, 93, 94, 95, 96, 97, 98, 99, 100, 101, 102, 103, 104, 105, 106, 107, 108, 109, 110, 111, 112, 113, 114, 115, 116, 117, 118, 119, 120, 121, 122, 123, 124, 125, 126, 127, 128, 129, 130, 131, 132, 133, 134, 135, 136, 137, 138, 139, 140, 141, 142, 143, 144, 145, 146, 147, 148, 149, 150, 151, 152, 153, 154, 155, 156],
      "AcquisitionTime": ["144041.842500", "144043.842500", "144045.842500", "144047.842500", "144049.842500", "144051.842500", "144053.842500", "144055.842500", "144057.842500", "144059.842500", "144101.842500", "144103.842500", "144105.842500", "144107.842500", "144109.842500", "144111.842500", "144113.842500", "144115.842500", "144117.842500", "144119.842500", "144121.842500", "144123.842500", "144125.842500", "144127.842500", "144129.842500", "144131.842500", "144133.842500", "144135.842500", "144137.842500", "144139.842500", "144141.842500", "144143.842500", "144145.842500", "144147.842500", "144149.842500", "144151.842500", "144153.842500", "144155.842500", "144157.842500", "144159.842500", "144201.842500", "144203.842500", "144205.842500", "144207.842500", "144209.842500", "144211.842500", "144213.842500", "144215.842500", "144217.842500", "144219.842500", "144221.842500", "144223.842500", "144225.842500", "144227.842500", "144229.842500", "144231.842500", "144233.842500", "144235.842500", "144237.842500", "144239.842500", "144241.842500", "144243.842500", "144245.842500", "144247.842500", "144249.842500", "144251.842500", "144253.842500", "144255.842500", "144257.842500", "144259.842500", "144301.842500", "144303.842500", "144305.842500", "144307.842500", "144309.842500", "144311.842500", "144313.842500", "144315.842500", "144317.842500", "144319.842500", "144321.842500", "144323.842500", "144325.842500", "144327.842500", "144329.842500", "144331.842500", "144333.842500", "144335.842500", "144337.842500", "144339.842500", "144341.842500", "144343.842500", "144345.842500", "144347.842500", "144349.842500", "144351.842500", "144353.842500", "144355.842500", "144357.842500", "144359.842500", "144401.842500", "144403.842500", "144405.842500", "144407.842500", "144409.842500", "144411.842500", "144413.842500", "144415.842500", "144417.842500", "144419.842500", "144421.842500", "144423.842500", "144425.842500", "144427.842500", "144429.842500", "144431.842500", "144433.842500", "144435.842500", "144437.842500", "144439.842500", "144441.842500", "144443.842500", "144445.842500", "144447.842500", "144449.842500", "144451.842500", "144453.842500", "144455.842500", "144457.842500", "144459.842500", "144501.842500", "144503.842500", "144505.842500", "144507.842500", "144509.842500", "144511.842500", "144513.842500", "144515.842500", "144517.842500", "144519.842500", "144521.842500", "144523.842500", "144525.842500", "144527.842500", "144529.842500", "144531.842500", "144533.842500", "144535.842500", "144537.842500", "144539.842500", "144541.842500", "144543.842500", "144545.842500", "144547.842500", "144549.842500", "144551.842500"],
      "ContentTime": ["144044.266000", "144045.762000", "144047.762000", "144049.762000", "144051.760000", "144053.761000", "144055.760000", "144057.761000", "144059.762000", "144101.761000", "144103.762000", "144105.761000", "144107.761000", "144109.760000", "144111.761000", "144113.761000", "144115.760000", "144117.761000", "144119.762000", "144121.762000", "144123.761000", "144125.760000", "144127.760000", "144129.760000", "144131.761000", "144133.761000", "144135.762000", "144137.762000", "144139.762000", "144141.762000", "144143.761000", "144145.761000", "144147.760000", "144149.761000", "144151.761000", "144153.762000", "144155.762000", "144157.761000", "144159.761000", "144201.760000", "144203.761000", "144205.761000", "144207.761000", "144209.761000", "144211.761000", "144213.761000", "144215.762000", "144217.760000", "144219.760000", "144221.760000", "144223.760000", "144225.760000", "144227.762000", "144229.761000", "144231.761000", "144233.761000", "144235.761000", "144237.761000", "144239.761000", "144241.760000", "144243.760000", "144245.761000", "144247.761000", "144249.761000", "144251.761000", "144253.761000", "144255.761000", "144257.761000", "144259.761000", "144301.762000", "144303.762000", "144305.762000", "144307.761000", "144309.762000", "144311.760000", "144314.260000", "144315.761000", "144317.760000", "144319.761000", "144321.762000", "144323.762000", "144325.762000", "144327.761000", "144329.760000", "144331.761000", "144333.760000", "144335.760000", "144337.761000", "144339.761000", "144341.761000", "144343.762000", "144345.761000", "144347.761000", "144349.760000", "144351.761000", "144353.760000", "144355.761000", "144357.762000", "144359.761000", "144401.762000", "144403.761000", "144405.761000", "144407.761000", "144409.760000", "144411.762000", "144413.762000", "144415.762000", "144417.762000", "144419.762000", "144421.761000", "144423.760000", "144425.761000", "144427.760000", "144429.762000", "144431.761000", "144433.761000", "144435.761000", "144437.761000", "144439.761000", "144441.761000", "144443.760000", "144445.760000", "144447.761000", "144449.762000", "144451.761000", "144453.762000", "144455.761000", "144457.761000", "144459.760000", "144501.760000", "144503.762000", "144505.762000", "144507.762000", "144509.761000", "144511.762000", "144513.760000", "144515.761000", "144517.761000", "144519.760000", "144521.762000", "144523.762000", "144525.761000", "144527.762000", "144529.762000", "144531.761000", "144533.761000", "144535.761000", "144537.760000", "144539.761000", "144541.762000", "144543.762000", "144545.761000", "144547.760000", "144549.761000", "144551.761000", "144553.586000"],
      "InstanceCreationTime": ["144044.266000", "144045.762000", "144047.762000", "144049.762000", "144051.760000", "144053.761000", "144055.760000", "144057.761000", "144059.762000", "144101.761000", "144103.762000", "144105.761000", "144107.761000", "144109.760000", "144111.761000", "144113.761000", "144115.760000", "144117.761000", "144119.762000", "144121.762000", "144123.761000", "144125.760000", "144127.760000", "144129.760000", "144131.761000", "144133.761000", "144135.762000", "144137.762000", "144139.762000", "144141.762000", "144143.761000", "144145.761000", "144147.760000", "144149.761000", "144151.761000", "144153.762000", "144155.762000", "144157.761000", "144159.761000", "144201.760000", "144203.761000", "144205.761000", "144207.761000", "144209.761000", "144211.761000", "144213.761000", "144215.762000", "144217.760000", "144219.760000", "144221.760000", "144223.760000", "144225.760000", "144227.762000", "144229.761000", "144231.761000", "144233.761000", "144235.761000", "144237.761000", "144239.761000", "144241.760000", "144243.760000", "144245.761000", "144247.761000", "144249.761000", "144251.761000", "144253.761000", "144255.761000", "144257.761000", "144259.761000", "144301.762000", "144303.762000", "144305.762000", "144307.761000", "144309.762000", "144311.760000", "144314.260000", "144315.761000", "144317.760000", "144319.761000", "144321.762000", "144323.762000", "144325.762000", "144327.761000", "144329.760000", "144331.761000", "144333.760000", "144335.760000", "144337.761000", "144339.761000", "144341.761000", "144343.762000", "144345.761000", "144347.761000", "144349.760000", "144351.761000", "144353.760000", "144355.761000", "144357.762000", "144359.761000", "144401.762000", "144403.761000", "144405.761000", "144407.761000", "144409.760000", "144411.762000", "144413.762000", "144415.762000", "144417.762000", "144419.762000", "144421.761000", "144423.760000", "144425.761000", "144427.760000", "144429.762000", "144431.761000", "144433.761000", "144435.761000", "144437.761000", "144439.761000", "144441.761000", "144443.760000", "144445.760000", "144447.761000", "144449.762000", "144451.761000", "144453.762000", "144455.761000", "144457.761000", "144459.760000", "144501.760000", "144503.762000", "144505.762000", "144507.762000", "144509.761000", "144511.762000", "144513.760000", "144515.761000", "144517.761000", "144519.760000", "144521.762000", "144523.762000", "144525.761000", "144527.762000", "144529.762000", "144531.761000", "144533.761000", "144535.761000", "144537.760000", "144539.761000", "144541.762000", "144543.762000", "144545.761000", "144547.760000", "144549.761000", "144551.761000", "144553.586000"],
      "InstanceNumber": [1, 2, 3, 4, 5, 6, 7, 8, 9, 10, 11, 12, 13, 14, 15, 16, 17, 18, 19, 20, 21, 22, 23, 24, 25, 26, 27, 28, 29, 30, 31, 32, 33, 34, 35, 36, 37, 38, 39, 40, 41, 42, 43, 44, 45, 46, 47, 48, 49, 50, 51, 52, 53, 54, 55, 56, 57, 58, 59, 60, 61, 62, 63, 64, 65, 66, 67, 68, 69, 70, 71, 72, 73, 74, 75, 76, 77, 78, 79, 80, 81, 82, 83, 84, 85, 86, 87, 88, 89, 90, 91, 92, 93, 94, 95, 96, 97, 98, 99, 100, 101, 102, 103, 104, 105, 106, 107, 108, 109, 110, 111, 112, 113, 114, 115, 116, 117, 118, 119, 120, 121, 122, 123, 124, 125, 126, 127, 128, 129, 130, 131, 132, 133, 134, 135, 136, 137, 138, 139, 140, 141, 142, 143, 144, 145, 146, 147, 148, 149, 150, 151, 152, 153, 154, 155, 156],
      "LargestImagePixelValue": [2941, 2865, 2836, 2810, 2862, 2840, 2823, 2793, 2841, 2832, 2846, 2841, 2846, 2818, 2848, 2828, 2817, 2811, 2840, 2819, 2836, 2845, 2832, 2858, 2828, 2816, 2847, 2845, 2833, 2861, 2838, 2852, 2808, 2807, 2794, 2789, 2812, 2836, 2836, 2824, 2819, 2886, 2831, 2865, 2854, 2834, 2850, 2827, 2844, 2835, 2854, 2827, 2824, 2808, 2835, 2834, 2842, 2810, 2826, 2847, 2826, 2842, 2861, 2843, 2830, 2873, 2842, 2861, 2832, 2861, 2863, 2863, 2844, 2881, 2827, 2848, 2823, 2844, 2838, 2853, 2863, 2866, 2861, 2843, 2836, 2815, 2861, 2822, 2798, 2825, 2844, 2837, 2827, 2821, 2859, 2881, 2821, 2856, 2878, 2891, 2890, 2871, 2871, 2858, 2864, 2863, 2897, 2904, 2881, 2874, 2842, 2848, 2838, 2867, 2868, 2860, 2875, 2893, 2885, 2838, 2864, 2859, 2890, 2864, 2903, 2860, 2845, 2876, 2874, 2908, 2921, 2859, 2899, 2872, 2894, 2880, 2856, 2868, 2873, 2853, 2836, 2856, 2854, 2853, 2801, 2839, 2840, 2844, 2841, 2853, 2824, 2834, 2837, 2864, 2877, 2801],
      "WindowCenter": [786.0, 783.0, 781.0, 781.0, 781.0, 781.0, 781.0, 780.0, 781.0, 781.0, 781.0, 781.0, 781.0, 781.0, 782.0, 781.0, 780.0, 779.0, 779.0, 779.0, 780.0, 781.0, 780.0, 780.0, 779.0, 779.0, 780.0, 780.0, 780.0, 780.0, 780.0, 781.0, 781.0, 780.0, 779.0, 779.0, 780.0, 781.0, 781.0, 779.0, 778.0, 779.0, 779.0, 780.0, 780.0, 779.0, 780.0, 780.0, 780.0, 780.0, 780.0, 778.0, 778.0, 778.0, 779.0, 779.0, 779.0, 779.0, 779.0, 780.0, 780.0, 780.0, 779.0, 779.0, 781.0, 781.0, 780.0, 780.0, 779.0, 780.0, 781.0, 781.0, 779.0, 779.0, 778.0, 778.0, 778.0, 779.0, 779.0, 780.0, 781.0, 781.0, 780.0, 779.0, 780.0, 780.0, 781.0, 780.0, 780.0, 779.0, 779.0, 779.0, 780.0, 781.0, 781.0, 780.0, 778.0, 780.0, 781.0, 780.0, 781.0, 780.0, 778.0, 778.0, 780.0, 780.0, 781.0, 780.0, 780.0, 779.0, 778.0, 778.0, 779.0, 779.0, 779.0, 778.0, 779.0, 781.0, 779.0, 779.0, 780.0, 780.0, 780.0, 780.0, 779.0, 778.0, 778.0, 778.0, 777.0, 778.0, 780.0, 779.0, 780.0, 780.0, 781.0, 780.0, 780.0, 778.0, 778.0, 777.0, 777.0, 778.0, 779.0, 780.0, 780.0, 779.0, 779.0, 779.0, 779.0, 781.0, 782.0, 783.0, 782.0, 782.0, 779.0, 777.0],
      "WindowWidth": [1672.0, 1663.0, 1659.0, 1658.0, 1660.0, 1659.0, 1658.0, 1658.0, 1659.0, 1659.0, 1660.0, 1659.0, 1658.0, 1659.0, 1662.0, 1659.0, 1656.0, 1654.0, 1655.0, 1655.0, 1658.0, 1658.0, 1657.0, 1656.0, 1655.0, 1655.0, 1657.0, 1656.0, 1656.0, 1657.0, 1657.0, 1658.0, 1658.0, 1656.0, 1654.0, 1654.0, 1657.0, 1659.0, 1658.0, 1655.0, 1652.0, 1655.0, 1655.0, 1656.0, 1656.0, 1655.0, 1656.0, 1655.0, 1657.0, 1657.0, 1657.0, 1653.0, 1652.0, 1652.0, 1653.0, 1655.0, 1655.0, 1653.0, 1655.0, 1657.0, 1656.0, 1656.0, 1655.0, 1655.0, 1659.0, 1660.0, 1658.0, 1656.0, 1655.0, 1657.0, 1660.0, 1659.0, 1654.0, 1655.0, 1651.0, 1653.0, 1652.0, 1653.0, 1654.0, 1656.0, 1658.0, 1658.0, 1656.0, 1653.0, 1656.0, 1657.0, 1660.0, 1657.0, 1657.0, 1655.0, 1653.0, 1654.0, 1656.0, 1658.0, 1659.0, 1655.0, 1652.0, 1656.0, 1659.0, 1657.0, 1658.0, 1656.0, 1652.0, 1652.0, 1655.0, 1655.0, 1657.0, 1657.0, 1655.0, 1653.0, 1652.0, 1652.0, 1653.0, 1652.0, 1652.0, 1651.0, 1654.0, 1657.0, 1653.0, 1653.0, 1655.0, 1655.0, 1657.0, 1656.0, 1653.0, 1652.0, 1652.0, 1651.0, 1649.0, 1651.0, 1655.0, 1655.0, 1657.0, 1655.0, 1657.0, 1657.0, 1655.0, 1651.0, 1651.0, 1649.0, 1650.0, 1651.0, 1653.0, 1655.0, 1656.0, 1653.0, 1653.0, 1654.0, 1654.0, 1658.0, 1660.0, 1663.0, 1662.0, 1660.0, 1654.0, 1649.0]
    },
    "slices": {}
  }
}