{
  "AcquisitionMatrixPE": 100,
  "AcquisitionNumber": 1,
  "AcquisitionTime": "08:58:2.337500",
  "BandwidthPerPixelPhaseEncode": 18.519,
  "BaseResolution": 100,
  "BodyPartExamined": "BRAIN",
  "CoilCombinationMethod": "Sum of Squares",
  "ConsistencyInfo": "N4_VE11C_LATEST_20160120",
  "ConversionSoftware": "dcm2niix",
  "ConversionSoftwareVersion": "v1.0.20211006",
  "DerivedVendorReportedEchoSpacing": 0.000539986,
  "DeviceSerialNumber": "166078",
  "DwellTime": 2.1e-06,
  "EchoTime": 0.034,
  "EchoTrainLength": 100,
  "EffectiveEchoSpacing": 0.000539986,
  "FlipAngle": 90,
  "ImageOrientationPatientDICOM": [0.997595, -0.00798625, -0.0688557, -3.63914e-08, 0.993341, -0.115214],
  "ImageOrientationText": "Tra>Cor(-6.6)>Sag(-4.0)",
  "ImageType": [
    "ORIGINAL",
    "PRIMARY",
    "M",
    "ND",
    "MOSAIC"
],
  "ImagingFrequency": 123.258,
  "InPlanePhaseEncodingDirectionDICOM": "COL",
  "InstitutionAddress": "Street StreetNo,Bei Jing,District,CN,ZIP",
  "InstitutionName": "BeiJing Normal University",
  "InstitutionalDepartmentName": "Department",
  "MRAcquisitionType": "2D",
  "MagneticFieldStrength": 3,
  "Manufacturer": "Siemens",
  "ManufacturersModelName": "Prisma",
  "Modality": "MR",
  "MultibandAccelerationFactor": 3,
  "PartialFourier": 1,
  "PatientPosition": "HFS",
  "PercentPhaseFOV": 100,
  "PercentSampling": 100,
  "PhaseEncodingDirection": "j-",
  "PhaseEncodingSteps": 100,
  "PhaseResolution": 1,
  "PixelBandwidth": 2380,
  "ProcedureStepDescription": "BNU_P2018_64CH^Zhen.ZongLei",
  "ProtocolName": "bold_100x100_s3_2x2x2_static_156",
  "PulseSequenceDetails": "%SiemensSeq%\\ep2d_bold",
  "ReceiveCoilActiveElements": "HC1-7;NC1",
  "ReceiveCoilName": "HeadNeck_64",
  "ReconMatrixPE": 100,
  "RefLinesPE": 32,
  "RepetitionTime": 2,
  "SAR": 0.0706612,
  "ScanOptions": "FS",
  "ScanningSequence": "EP",
  "SequenceName": "*epfid2d1_100",
  "SequenceVariant": "SK",
  "SeriesDescription": "bold_100x100_s3_2x2x2_static_156",
  "SeriesNumber": 3,
  "ShimSetting": [-5486, -11512, -1275, 305, -95, -247, -12, 79],
  "SliceThickness": 2,
  "SliceTiming": [1.485, 0, 0.99, 0.0825, 1.0725, 0.165, 1.155, 0.2475, 1.2375, 0.33, 1.32, 0.4125, 1.4025, 0.5775, 1.5675, 0.66, 1.65, 0.7425, 1.7325, 0.825, 1.815, 0.9075, 1.8975, 0.495, 1.485, 0, 0.99, 0.0825, 1.0725, 0.165, 1.155, 0.2475, 1.2375, 0.33, 1.32, 0.4125, 1.4025, 0.5775, 1.5675, 0.66, 1.65, 0.7425, 1.7325, 0.825, 1.815, 0.9075, 1.8975, 0.495, 1.485, 0, 0.99, 0.0825, 1.0725, 0.165, 1.155, 0.2475, 1.2375, 0.33, 1.32, 0.4125, 1.4025, 0.5775, 1.5675, 0.66, 1.65, 0.7425, 1.7325, 0.825, 1.815, 0.9075, 1.8975, 0.495],
  "SoftwareVersions": "syngo MR E11",
  "SpacingBetweenSlices": 2,
  "StationName": "AWP166078",
  "TaskName": "action",
  "TotalReadoutTime": 0.0534586,
  "TxRefAmp": 220.789,
  "dcmmeta_affine": [
    [-1.9951893091201782, -7.278278246758418e-08, -0.13863451778888702, 104.43451690673828],
    [0.015972508117556572, 1.9866814613342285, -0.2298729121685028, -73.78707122802734],
    [-0.1377113312482834, 0.23042716085910797, 1.981902837753296, -71.05197143554688],
    [0.0, 0.0, 0.0, 1.0]
],
  "dcmmeta_reorient_transform": [
    [0.0, -1.0, 0.0, 99.0],
    [1.0, 0.0, 0.0, 0.0],
    [0.0, 0.0, 1.0, 0.0],
    [0.0, 0.0, 0.0, 1.0]
],
  "dcmmeta_shape": [100, 100, 72, 156],
  "dcmmeta_slice_dim": 2,
  "dcmmeta_version": 0.6,
  "global": {
    "const": {
      "AcquisitionMatrix": [100, 0, 0, 100],
      "AngioFlag": "N",
      "BitsAllocated": 16,
      "BitsStored": 12,
      "BodyPartExamined": "BRAIN",
      "Columns": 900,
      "EchoNumbers": 1,
      "EchoTime": 34.0,
      "EchoTrainLength": 100,
      "FlipAngle": 90.0,
      "HighBit": 11,
      "ImageOrientationPatient": [0.99759466577659, -0.0079862536882, -0.0688556647351, -3.6391392e-08, 0.99334074291012, -0.1152135776494],
      "ImagePositionPatient": [-902.51021146011, -911.17798805364, 99.015711700742],
      "ImageType": [
        "ORIGINAL",
        "PRIMARY",
        "M",
        "ND",
        "MOSAIC"
],
      "ImagedNucleus": "1H",
      "ImagingFrequency": 123.257676,
      "InPlanePhaseEncodingDirection": "COL",
      "MRAcquisitionType": "2D",
      "MagneticFieldStrength": 3.0,
      "Manufacturer": "SIEMENS",
      "ManufacturerModelName": "Prisma",
      "Modality": "MR",
      "NumberOfAverages": 1.0,
      "NumberOfPhaseEncodingSteps": 100,
      "PercentPhaseFieldOfView": 100.0,
      "PercentSampling": 100.0,
      "PerformedProcedureStepStartTime": "085431.095000",
      "PhotometricInterpretation": "MONOCHROME2",
      "PixelBandwidth": 2380.0,
      "PixelRepresentation": 0,
      "PixelSpacing": [2.0, 2.0],
      "ProtocolName": "bold_100x100_s3_2x2x2_static_156",
      "RepetitionTime": 2000.0,
      "Rows": 900,
      "SAR": 0.0706611717982,
      "SamplesPerPixel": 1,
      "ScanOptions": "FS",
      "ScanningSequence": "EP",
      "SequenceName": "*epfid2d1_100",
      "SequenceVariant": "SK",
      "SeriesDescription": "bold_100x100_s3_2x2x2_static_156",
      "SeriesNumber": 3,
      "SeriesTime": "085804.458000",
      "SliceLocation": -69.167342077696,
      "SliceThickness": 2.0,
      "SmallestImagePixelValue": 0,
      "SoftwareVersions": "syngo MR E11",
      "SpacingBetweenSlices": 2.0000000090193,
      "SpecificCharacterSet": "ISO_IR 100",
      "StudyID": "1",
      "StudyTime": "085430.986000",
      "TransmitCoilName": "Body",
      "VariableFlipAngleFlag": "N",
      "WindowCenterWidthExplanation": "Algo1",
      "dBdt": 0.0},
    "slices": {}
  },
  "time": {
    "samples": {
      "AcquisitionNumber": [1, 2, 3, 4, 5, 6, 7, 8, 9, 10, 11, 12, 13, 14, 15, 16, 17, 18, 19, 20, 21, 22, 23, 24, 25, 26, 27, 28, 29, 30, 31, 32, 33, 34, 35, 36, 37, 38, 39, 40, 41, 42, 43, 44, 45, 46, 47, 48, 49, 50, 51, 52, 53, 54, 55, 56, 57, 58, 59, 60, 61, 62, 63, 64, 65, 66, 67, 68, 69, 70, 71, 72, 73, 74, 75, 76, 77, 78, 79, 80, 81, 82, 83, 84, 85, 86, 87, 88, 89, 90, 91, 92, 93, 94, 95, 96, 97, 98, 99, 100, 101, 102, 103, 104, 105, 106, 107, 108, 109, 110, 111, 112, 113, 114, 115, 116, 117, 118, 119, 120, 121, 122, 123, 124, 125, 126, 127, 128, 129, 130, 131, 132, 133, 134, 135, 136, 137, 138, 139, 140, 141, 142, 143, 144, 145, 146, 147, 148, 149, 150, 151, 152, 153, 154, 155, 156],
      "AcquisitionTime": ["085802.337500", "085804.337500", "085806.337500", "085808.337500", "085810.337500", "085812.337500", "085814.337500", "085816.337500", "085818.337500", "085820.337500", "085822.337500", "085824.337500", "085826.337500", "085828.337500", "085830.337500", "085832.337500", "085834.337500", "085836.337500", "085838.337500", "085840.337500", "085842.337500", "085844.337500", "085846.337500", "085848.337500", "085850.337500", "085852.337500", "085854.337500", "085856.337500", "085858.337500", "085900.337500", "085902.337500", "085904.337500", "085906.337500", "085908.337500", "085910.337500", "085912.337500", "085914.337500", "085916.337500", "085918.337500", "085920.337500", "085922.337500", "085924.337500", "085926.337500", "085928.337500", "085930.337500", "085932.337500", "085934.337500", "085936.337500", "085938.337500", "085940.337500", "085942.337500", "085944.337500", "085946.337500", "085948.337500", "085950.337500", "085952.337500", "085954.337500", "085956.337500", "085958.337500", "090000.337500", "090002.337500", "090004.337500", "090006.337500", "090008.337500", "090010.337500", "090012.337500", "090014.337500", "090016.337500", "090018.337500", "090020.337500", "090022.337500", "090024.337500", "090026.337500", "090028.337500", "090030.337500", "090032.337500", "090034.337500", "090036.337500", "090038.337500", "090040.337500", "090042.337500", "090044.337500", "090046.337500", "090048.337500", "090050.337500", "090052.337500", "090054.337500", "090056.337500", "090058.337500", "090100.337500", "090102.337500", "090104.337500", "090106.337500", "090108.337500", "090110.337500", "090112.337500", "090114.337500", "090116.337500", "090118.337500", "090120.337500", "090122.337500", "090124.337500", "090126.337500", "090128.337500", "090130.337500", "090132.337500", "090134.337500", "090136.337500", "090138.337500", "090140.337500", "090142.337500", "090144.337500", "090146.337500", "090148.337500", "090150.337500", "090152.337500", "090154.337500", "090156.337500", "090158.337500", "090200.337500", "090202.337500", "090204.337500", "090206.337500", "090208.337500", "090210.337500", "090212.337500", "090214.337500", "090216.337500", "090218.337500", "090220.337500", "090222.337500", "090224.337500", "090226.337500", "090228.337500", "090230.337500", "090232.337500", "090234.337500", "090236.337500", "090238.337500", "090240.337500", "090242.337500", "090244.337500", "090246.337500", "090248.337500", "090250.337500", "090252.337500", "090254.337500", "090256.337500", "090258.337500", "090300.337500", "090302.337500", "090304.337500", "090306.337500", "090308.337500", "090310.337500", "090312.337500"],
      "ContentTime": ["085804.461000", "085806.457000", "085807.957000", "085809.956000", "085811.956000", "085813.956000", "085815.955000", "085817.955000", "085819.957000", "085821.956000", "085823.957000", "085825.957000", "085827.957000", "085829.955000", "085831.956000", "085833.955000", "085835.956000", "085837.956000", "085839.957000", "085841.957000", "085843.956000", "085845.956000", "085847.955000", "085849.956000", "085851.956000", "085853.956000", "085855.956000", "085857.957000", "085859.957000", "085901.956000", "085903.956000", "085905.955000", "085907.955000", "085909.956000", "085911.956000", "085913.956000", "085915.957000", "085917.957000", "085919.957000", "085921.957000", "085923.956000", "085925.956000", "085927.956000", "085929.957000", "085931.957000", "085933.956000", "085935.957000", "085937.956000", "085939.955000", "085941.955000", "085943.956000", "085945.955000", "085947.956000", "085949.956000", "085951.956000", "085953.957000", "085955.956000", "085957.955000", "085959.955000", "090001.955000", "090003.955000", "090005.957000", "090007.956000", "090009.956000", "090011.956000", "090013.957000", "090015.955000", "090017.956000", "090019.955000", "090021.957000", "090023.956000", "090025.957000", "090027.956000", "090029.956000", "090031.957000", "090033.955000", "090035.955000", "090037.955000", "090039.957000", "090041.956000", "090043.956000", "090045.956000", "090047.957000", "090049.955000", "090051.955000", "090053.955000", "090055.955000", "090057.957000", "090059.957000", "090101.956000", "090103.956000", "090105.957000", "090107.955000", "090109.956000", "090111.955000", "090113.955000", "090115.957000", "090117.957000", "090119.957000", "090121.957000", "090123.956000", "090125.955000", "090127.955000", "090129.955000", "090131.957000", "090133.957000", "090135.957000", "090137.956000", "090139.956000", "090141.956000", "090143.955000", "090145.955000", "090147.955000", "090149.957000", "090151.957000", "090153.956000", "090155.956000", "090157.956000", "090159.955000", "090201.955000", "090203.956000", "090205.955000", "090207.977000", "090209.957000", "090211.956000", "090213.957000", "090215.956000", "090217.956000", "090219.955000", "090221.955000", "090223.955000", "090225.957000", "090227.957000", "090229.956000", "090231.956000", "090233.957000", "090235.956000", "090237.955000", "090239.955000", "090241.957000", "090243.956000", "090245.956000", "090247.957000", "090249.956000", "090251.956000", "090253.956000", "090255.956000", "090257.955000", "090259.956000", "090301.956000", "090303.956000", "090305.956000", "090307.956000", "090309.955000", "090311.956000", "090313.819000"],
      "InstanceCreationTime": ["085804.461000", "085806.457000", "085807.957000", "085809.956000", "085811.956000", "085813.956000", "085815.955000", "085817.955000", "085819.957000", "085821.956000", "085823.957000", "085825.957000", "085827.957000", "085829.955000", "085831.956000", "085833.955000", "085835.956000", "085837.956000", "085839.957000", "085841.957000", "085843.956000", "085845.956000", "085847.955000", "085849.956000", "085851.956000", "085853.956000", "085855.956000", "085857.957000", "085859.957000", "085901.956000", "085903.956000", "085905.955000", "085907.955000", "085909.956000", "085911.956000", "085913.956000", "085915.957000", "085917.957000", "085919.957000", "085921.957000", "085923.956000", "085925.956000", "085927.956000", "085929.957000", "085931.957000", "085933.956000", "085935.957000", "085937.956000", "085939.955000", "085941.955000", "085943.956000", "085945.955000", "085947.956000", "085949.956000", "085951.956000", "085953.957000", "085955.956000", "085957.955000", "085959.955000", "090001.955000", "090003.955000", "090005.957000", "090007.956000", "090009.956000", "090011.956000", "090013.957000", "090015.955000", "090017.956000", "090019.955000", "090021.957000", "090023.956000", "090025.957000", "090027.956000", "090029.956000", "090031.957000", "090033.955000", "090035.955000", "090037.955000", "090039.957000", "090041.956000", "090043.956000", "090045.956000", "090047.957000", "090049.955000", "090051.955000", "090053.955000", "090055.955000", "090057.957000", "090059.957000", "090101.956000", "090103.956000", "090105.957000", "090107.955000", "090109.956000", "090111.955000", "090113.955000", "090115.957000", "090117.957000", "090119.957000", "090121.957000", "090123.956000", "090125.955000", "090127.955000", "090129.955000", "090131.957000", "090133.957000", "090135.957000", "090137.956000", "090139.956000", "090141.956000", "090143.955000", "090145.955000", "090147.955000", "090149.957000", "090151.957000", "090153.956000", "090155.956000", "090157.956000", "090159.955000", "090201.955000", "090203.956000", "090205.955000", "090207.977000", "090209.957000", "090211.956000", "090213.957000", "090215.956000", "090217.956000", "090219.955000", "090221.955000", "090223.955000", "090225.957000", "090227.957000", "090229.956000", "090231.956000", "090233.957000", "090235.956000", "090237.955000", "090239.955000", "090241.957000", "090243.956000", "090245.956000", "090247.957000", "090249.956000", "090251.956000", "090253.956000", "090255.956000", "090257.955000", "090259.956000", "090301.956000", "090303.956000", "090305.956000", "090307.956000", "090309.955000", "090311.956000", "090313.819000"],
      "InstanceNumber": [1, 2, 3, 4, 5, 6, 7, 8, 9, 10, 11, 12, 13, 14, 15, 16, 17, 18, 19, 20, 21, 22, 23, 24, 25, 26, 27, 28, 29, 30, 31, 32, 33, 34, 35, 36, 37, 38, 39, 40, 41, 42, 43, 44, 45, 46, 47, 48, 49, 50, 51, 52, 53, 54, 55, 56, 57, 58, 59, 60, 61, 62, 63, 64, 65, 66, 67, 68, 69, 70, 71, 72, 73, 74, 75, 76, 77, 78, 79, 80, 81, 82, 83, 84, 85, 86, 87, 88, 89, 90, 91, 92, 93, 94, 95, 96, 97, 98, 99, 100, 101, 102, 103, 104, 105, 106, 107, 108, 109, 110, 111, 112, 113, 114, 115, 116, 117, 118, 119, 120, 121, 122, 123, 124, 125, 126, 127, 128, 129, 130, 131, 132, 133, 134, 135, 136, 137, 138, 139, 140, 141, 142, 143, 144, 145, 146, 147, 148, 149, 150, 151, 152, 153, 154, 155, 156],
      "LargestImagePixelValue": [2634, 2648, 2727, 2677, 2686, 2633, 2578, 2571, 2735, 2777, 2741, 2655, 2697, 2676, 2746, 2641, 2691, 2656, 2708, 2647, 2743, 2781, 2769, 2745, 2654, 2687, 2571, 2623, 2655, 2689, 2759, 2602, 2699, 2711, 2706, 2695, 2672, 2652, 2714, 2736, 2826, 2711, 2734, 2763, 2719, 2715, 2746, 2700, 2752, 2676, 2662, 2719, 2662, 2644, 2620, 2721, 2771, 2652, 2729, 2735, 2659, 2668, 2702, 2672, 2730, 2687, 2683, 2642, 2570, 2727, 2679, 2694, 2671, 2685, 2697, 2650, 2655, 2735, 2747, 2645, 2714, 2693, 2673, 2711, 2715, 2698, 2647, 2691, 2703, 2699, 2735, 2657, 2707, 2720, 2789, 2735, 2705, 2711, 2731, 2692, 2684, 2758, 2688, 2727, 2747, 2613, 2815, 2638, 2767, 2805, 2747, 2799, 2700, 2791, 2745, 2646, 2754, 2650, 2775, 2810, 2783, 2738, 2814, 2773, 2787, 2781, 2692, 2657, 2759, 2790, 2792, 2738, 2729, 2732, 2726, 2702, 2778, 2767, 2715, 2710, 2697, 2787, 2736, 2672, 2792, 2733, 2691, 2764, 2808, 2799, 2754, 2640, 2736, 2761, 2732, 2672],
      "WindowCenter": [744.0, 743.0, 744.0, 743.0, 743.0, 742.0, 741.0, 742.0, 746.0, 747.0, 745.0, 744.0, 744.0, 744.0, 744.0, 743.0, 744.0, 743.0, 743.0, 743.0, 745.0, 745.0, 744.0, 744.0, 743.0, 742.0, 741.0, 741.0, 742.0, 742.0, 743.0, 741.0, 743.0, 743.0, 743.0, 742.0, 742.0, 742.0, 743.0, 744.0, 745.0, 743.0, 743.0, 743.0, 743.0, 743.0, 743.0, 743.0, 743.0, 743.0, 743.0, 744.0, 743.0, 741.0, 740.0, 742.0, 743.0, 742.0, 743.0, 744.0, 743.0, 742.0, 742.0, 742.0, 743.0, 742.0, 741.0, 741.0, 741.0, 743.0, 742.0, 742.0, 741.0, 741.0, 742.0, 741.0, 742.0, 743.0, 741.0, 740.0, 742.0, 742.0, 742.0, 743.0, 743.0, 742.0, 742.0, 742.0, 742.0, 743.0, 742.0, 741.0, 743.0, 744.0, 744.0, 742.0, 742.0, 742.0, 742.0, 742.0, 743.0, 743.0, 742.0, 743.0, 745.0, 743.0, 746.0, 744.0, 746.0, 746.0, 745.0, 745.0, 744.0, 745.0, 743.0, 742.0, 745.0, 744.0, 746.0, 745.0, 745.0, 744.0, 745.0, 744.0, 743.0, 743.0, 741.0, 741.0, 744.0, 745.0, 745.0, 743.0, 742.0, 742.0, 742.0, 742.0, 743.0, 741.0, 741.0, 742.0, 743.0, 744.0, 743.0, 741.0, 743.0, 742.0, 743.0, 745.0, 744.0, 743.0, 742.0, 740.0, 742.0, 742.0, 742.0, 743.0],
      "WindowWidth": [1572.0, 1570.0, 1573.0, 1570.0, 1570.0, 1567.0, 1565.0, 1568.0, 1579.0, 1580.0, 1576.0, 1573.0, 1574.0, 1572.0, 1573.0, 1569.0, 1572.0, 1570.0, 1570.0, 1570.0, 1575.0, 1575.0, 1574.0, 1573.0, 1570.0, 1569.0, 1565.0, 1566.0, 1568.0, 1569.0, 1570.0, 1567.0, 1571.0, 1570.0, 1569.0, 1569.0, 1569.0, 1568.0, 1570.0, 1571.0, 1574.0, 1570.0, 1569.0, 1570.0, 1571.0, 1571.0, 1571.0, 1569.0, 1571.0, 1571.0, 1570.0, 1572.0, 1569.0, 1567.0, 1564.0, 1567.0, 1571.0, 1568.0, 1570.0, 1572.0, 1570.0, 1568.0, 1568.0, 1567.0, 1570.0, 1566.0, 1566.0, 1566.0, 1566.0, 1569.0, 1567.0, 1568.0, 1566.0, 1565.0, 1567.0, 1566.0, 1568.0, 1569.0, 1566.0, 1563.0, 1567.0, 1568.0, 1567.0, 1569.0, 1569.0, 1568.0, 1566.0, 1568.0, 1568.0, 1569.0, 1567.0, 1564.0, 1569.0, 1573.0, 1572.0, 1568.0, 1568.0, 1568.0, 1568.0, 1566.0, 1570.0, 1570.0, 1566.0, 1570.0, 1574.0, 1569.0, 1576.0, 1572.0, 1576.0, 1577.0, 1575.0, 1575.0, 1572.0, 1573.0, 1569.0, 1568.0, 1573.0, 1573.0, 1577.0, 1575.0, 1573.0, 1571.0, 1573.0, 1571.0, 1569.0, 1569.0, 1565.0, 1566.0, 1573.0, 1575.0, 1573.0, 1568.0, 1567.0, 1568.0, 1567.0, 1567.0, 1568.0, 1565.0, 1565.0, 1566.0, 1569.0, 1571.0, 1568.0, 1565.0, 1569.0, 1567.0, 1570.0, 1574.0, 1572.0, 1569.0, 1565.0, 1562.0, 1567.0, 1567.0, 1568.0, 1568.0]
    },
    "slices": {}
  }
}