{
  "AcquisitionMatrixPE": 100,
  "AcquisitionNumber": 1,
  "AcquisitionTime": "09:30:51.910000",
  "BandwidthPerPixelPhaseEncode": 18.519,
  "BaseResolution": 100,
  "BodyPartExamined": "BRAIN",
  "CoilCombinationMethod": "Sum of Squares",
  "ConsistencyInfo": "N4_VE11C_LATEST_20160120",
  "ConversionSoftware": "dcm2niix",
  "ConversionSoftwareVersion": "v1.0.20211006",
  "DerivedVendorReportedEchoSpacing": 0.000539986,
  "DeviceSerialNumber": "166078",
  "DwellTime": 2.1e-06,
  "EchoTime": 0.034,
  "EchoTrainLength": 100,
  "EffectiveEchoSpacing": 0.000539986,
  "FlipAngle": 90,
  "ImageOrientationPatientDICOM": [0.997595, -0.00798625, -0.0688557, -3.63914e-08, 0.993341, -0.115214],
  "ImageOrientationText": "Tra>Cor(-6.6)>Sag(-4.0)",
  "ImageType": [
    "ORIGINAL",
    "PRIMARY",
    "M",
    "ND",
    "MOSAIC"
],
  "ImagingFrequency": 123.258,
  "InPlanePhaseEncodingDirectionDICOM": "COL",
  "InstitutionAddress": "Street StreetNo,Bei Jing,District,CN,ZIP",
  "InstitutionName": "BeiJing Normal University",
  "InstitutionalDepartmentName": "Department",
  "MRAcquisitionType": "2D",
  "MagneticFieldStrength": 3,
  "Manufacturer": "Siemens",
  "ManufacturersModelName": "Prisma",
  "Modality": "MR",
  "MultibandAccelerationFactor": 3,
  "PartialFourier": 1,
  "PatientPosition": "HFS",
  "PercentPhaseFOV": 100,
  "PercentSampling": 100,
  "PhaseEncodingDirection": "j-",
  "PhaseEncodingSteps": 100,
  "PhaseResolution": 1,
  "PixelBandwidth": 2380,
  "ProcedureStepDescription": "BNU_P2018_64CH^Zhen.ZongLei",
  "ProtocolName": "bold_100x100_s3_2x2x2_static_156",
  "PulseSequenceDetails": "%SiemensSeq%\\ep2d_bold",
  "ReceiveCoilActiveElements": "HC1-7;NC1",
  "ReceiveCoilName": "HeadNeck_64",
  "ReconMatrixPE": 100,
  "RefLinesPE": 32,
  "RepetitionTime": 2,
  "SAR": 0.0706612,
  "ScanOptions": "FS",
  "ScanningSequence": "EP",
  "SequenceName": "*epfid2d1_100",
  "SequenceVariant": "SK",
  "SeriesDescription": "bold_100x100_s3_2x2x2_static_156",
  "SeriesNumber": 10,
  "ShimSetting": [-5486, -11512, -1275, 305, -95, -247, -12, 79],
  "SliceThickness": 2,
  "SliceTiming": [1.485, 0, 0.99, 0.0825, 1.0725, 0.165, 1.155, 0.2475, 1.2375, 0.33, 1.32, 0.4125, 1.4025, 0.5775, 1.5675, 0.66, 1.65, 0.7425, 1.7325, 0.825, 1.815, 0.9075, 1.8975, 0.495, 1.485, 0, 0.99, 0.0825, 1.0725, 0.165, 1.155, 0.2475, 1.2375, 0.33, 1.32, 0.4125, 1.4025, 0.5775, 1.5675, 0.66, 1.65, 0.7425, 1.7325, 0.825, 1.815, 0.9075, 1.8975, 0.495, 1.485, 0, 0.99, 0.0825, 1.0725, 0.165, 1.155, 0.2475, 1.2375, 0.33, 1.32, 0.4125, 1.4025, 0.5775, 1.5675, 0.66, 1.65, 0.7425, 1.7325, 0.825, 1.815, 0.9075, 1.8975, 0.495],
  "SoftwareVersions": "syngo MR E11",
  "SpacingBetweenSlices": 2,
  "StationName": "AWP166078",
  "TaskName": "action",
  "TotalReadoutTime": 0.0534586,
  "TxRefAmp": 220.789,
  "dcmmeta_affine": [
    [-1.9951893091201782, -7.278278246758418e-08, -0.13863451778888702, 104.43451690673828],
    [0.015972508117556572, 1.9866814613342285, -0.2298729121685028, -73.78707122802734],
    [-0.1377113312482834, 0.23042716085910797, 1.981902837753296, -71.05197143554688],
    [0.0, 0.0, 0.0, 1.0]
],
  "dcmmeta_reorient_transform": [
    [0.0, -1.0, 0.0, 99.0],
    [1.0, 0.0, 0.0, 0.0],
    [0.0, 0.0, 1.0, 0.0],
    [0.0, 0.0, 0.0, 1.0]
],
  "dcmmeta_shape": [100, 100, 72, 156],
  "dcmmeta_slice_dim": 2,
  "dcmmeta_version": 0.6,
  "global": {
    "const": {
      "AcquisitionMatrix": [100, 0, 0, 100],
      "AngioFlag": "N",
      "BitsAllocated": 16,
      "BitsStored": 12,
      "BodyPartExamined": "BRAIN",
      "Columns": 900,
      "EchoNumbers": 1,
      "EchoTime": 34.0,
      "EchoTrainLength": 100,
      "FlipAngle": 90.0,
      "HighBit": 11,
      "ImageOrientationPatient": [0.99759466577659, -0.0079862536882, -0.0688556647351, -3.6391392e-08, 0.99334074291012, -0.1152135776494],
      "ImagePositionPatient": [-902.51021146011, -911.17798805364, 99.015711700742],
      "ImageType": [
        "ORIGINAL",
        "PRIMARY",
        "M",
        "ND",
        "MOSAIC"
],
      "ImagedNucleus": "1H",
      "ImagingFrequency": 123.257704,
      "InPlanePhaseEncodingDirection": "COL",
      "MRAcquisitionType": "2D",
      "MagneticFieldStrength": 3.0,
      "Manufacturer": "SIEMENS",
      "ManufacturerModelName": "Prisma",
      "Modality": "MR",
      "NumberOfAverages": 1.0,
      "NumberOfPhaseEncodingSteps": 100,
      "PercentPhaseFieldOfView": 100.0,
      "PercentSampling": 100.0,
      "PerformedProcedureStepStartTime": "085431.095000",
      "PhotometricInterpretation": "MONOCHROME2",
      "PixelBandwidth": 2380.0,
      "PixelRepresentation": 0,
      "PixelSpacing": [2.0, 2.0],
      "ProtocolName": "bold_100x100_s3_2x2x2_static_156",
      "RepetitionTime": 2000.0,
      "Rows": 900,
      "SAR": 0.0706611717982,
      "SamplesPerPixel": 1,
      "ScanOptions": "FS",
      "ScanningSequence": "EP",
      "SequenceName": "*epfid2d1_100",
      "SequenceVariant": "SK",
      "SeriesDescription": "bold_100x100_s3_2x2x2_static_156",
      "SeriesNumber": 10,
      "SeriesTime": "093053.898000",
      "SliceLocation": -69.167342077696,
      "SliceThickness": 2.0,
      "SmallestImagePixelValue": 0,
      "SoftwareVersions": "syngo MR E11",
      "SpacingBetweenSlices": 2.0000000090193,
      "SpecificCharacterSet": "ISO_IR 100",
      "StudyID": "1",
      "StudyTime": "085430.986000",
      "TransmitCoilName": "Body",
      "VariableFlipAngleFlag": "N",
      "WindowCenterWidthExplanation": "Algo1",
      "dBdt": 0.0},
    "slices": {}
  },
  "time": {
    "samples": {
      "AcquisitionNumber": [1, 2, 3, 4, 5, 6, 7, 8, 9, 10, 11, 12, 13, 14, 15, 16, 17, 18, 19, 20, 21, 22, 23, 24, 25, 26, 27, 28, 29, 30, 31, 32, 33, 34, 35, 36, 37, 38, 39, 40, 41, 42, 43, 44, 45, 46, 47, 48, 49, 50, 51, 52, 53, 54, 55, 56, 57, 58, 59, 60, 61, 62, 63, 64, 65, 66, 67, 68, 69, 70, 71, 72, 73, 74, 75, 76, 77, 78, 79, 80, 81, 82, 83, 84, 85, 86, 87, 88, 89, 90, 91, 92, 93, 94, 95, 96, 97, 98, 99, 100, 101, 102, 103, 104, 105, 106, 107, 108, 109, 110, 111, 112, 113, 114, 115, 116, 117, 118, 119, 120, 121, 122, 123, 124, 125, 126, 127, 128, 129, 130, 131, 132, 133, 134, 135, 136, 137, 138, 139, 140, 141, 142, 143, 144, 145, 146, 147, 148, 149, 150, 151, 152, 153, 154, 155, 156],
      "AcquisitionTime": ["093051.910000", "093053.910000", "093055.910000", "093057.910000", "093059.910000", "093101.910000", "093103.910000", "093105.910000", "093107.910000", "093109.910000", "093111.910000", "093113.910000", "093115.910000", "093117.910000", "093119.910000", "093121.910000", "093123.910000", "093125.910000", "093127.910000", "093129.910000", "093131.910000", "093133.910000", "093135.910000", "093137.910000", "093139.910000", "093141.910000", "093143.910000", "093145.910000", "093147.910000", "093149.910000", "093151.910000", "093153.910000", "093155.910000", "093157.910000", "093159.910000", "093201.910000", "093203.910000", "093205.910000", "093207.910000", "093209.910000", "093211.910000", "093213.910000", "093215.910000", "093217.910000", "093219.910000", "093221.910000", "093223.910000", "093225.910000", "093227.910000", "093229.910000", "093231.910000", "093233.910000", "093235.910000", "093237.910000", "093239.910000", "093241.910000", "093243.910000", "093245.910000", "093247.910000", "093249.910000", "093251.910000", "093253.910000", "093255.910000", "093257.910000", "093259.910000", "093301.910000", "093303.910000", "093305.910000", "093307.910000", "093309.910000", "093311.910000", "093313.910000", "093315.910000", "093317.910000", "093319.910000", "093321.910000", "093323.910000", "093325.910000", "093327.910000", "093329.910000", "093331.910000", "093333.910000", "093335.910000", "093337.910000", "093339.910000", "093341.910000", "093343.910000", "093345.910000", "093347.910000", "093349.910000", "093351.910000", "093353.910000", "093355.910000", "093357.910000", "093359.910000", "093401.910000", "093403.910000", "093405.910000", "093407.910000", "093409.910000", "093411.910000", "093413.910000", "093415.910000", "093417.910000", "093419.910000", "093421.910000", "093423.910000", "093425.910000", "093427.910000", "093429.910000", "093431.910000", "093433.910000", "093435.910000", "093437.910000", "093439.910000", "093441.910000", "093443.910000", "093445.910000", "093447.910000", "093449.910000", "093451.910000", "093453.910000", "093455.910000", "093457.910000", "093459.910000", "093501.910000", "093503.910000", "093505.910000", "093507.910000", "093509.910000", "093511.910000", "093513.910000", "093515.910000", "093517.910000", "093519.910000", "093521.910000", "093523.910000", "093525.910000", "093527.910000", "093529.910000", "093531.910000", "093533.910000", "093535.910000", "093537.910000", "093539.910000", "093541.910000", "093543.910000", "093545.910000", "093547.910000", "093549.910000", "093551.910000", "093553.910000", "093555.910000", "093557.910000", "093559.910000", "093601.910000"],
      "ContentTime": ["093053.902000", "093055.398000", "093057.397000", "093059.398000", "093101.398000", "093103.397000", "093105.397000", "093107.398000", "093109.398000", "093111.397000", "093113.397000", "093115.398000", "093117.398000", "093119.398000", "093121.397000", "093123.397000", "093125.397000", "093127.397000", "093129.397000", "093131.398000", "093133.398000", "093135.399000", "093137.399000", "093139.397000", "093141.397000", "093143.398000", "093145.398000", "093147.397000", "093149.398000", "093151.399000", "093153.398000", "093155.397000", "093157.398000", "093159.397000", "093201.398000", "093203.398000", "093205.398000", "093207.397000", "093209.398000", "093211.399000", "093213.397000", "093215.397000", "093217.397000", "093219.897000", "093221.397000", "093223.397000", "093225.399000", "093227.898000", "093229.898000", "093231.397000", "093233.397000", "093235.397000", "093237.398000", "093239.398000", "093241.398000", "093243.398000", "093245.398000", "093247.399000", "093249.397000", "093251.398000", "093253.398000", "093255.398000", "093257.398000", "093259.397000", "093301.398000", "093303.398000", "093305.398000", "093307.397000", "093309.398000", "093311.397000", "093313.397000", "093315.398000", "093317.397000", "093319.399000", "093321.398000", "093323.397000", "093325.398000", "093327.397000", "093329.397000", "093331.398000", "093333.397000", "093335.398000", "093337.398000", "093339.399000", "093341.398000", "093343.398000", "093345.398000", "093347.398000", "093349.397000", "093351.398000", "093353.399000", "093355.398000", "093357.398000", "093359.397000", "093401.398000", "093403.398000", "093405.397000", "093407.397000", "093409.398000", "093411.399000", "093413.399000", "093415.398000", "093417.397000", "093419.398000", "093421.398000", "093423.397000", "093425.398000", "093427.398000", "093429.398000", "093431.398000", "093433.398000", "093435.398000", "093437.397000", "093439.397000", "093441.397000", "093443.397000", "093445.398000", "093447.398000", "093449.398000", "093451.397000", "093453.397000", "093455.398000", "093457.398000", "093459.398000", "093501.397000", "093503.398000", "093505.398000", "093507.398000", "093509.397000", "093511.397000", "093513.397000", "093515.397000", "093517.398000", "093519.398000", "093521.398000", "093523.398000", "093525.398000", "093527.397000", "093529.398000", "093531.398000", "093533.397000", "093535.397000", "093537.398000", "093539.399000", "093541.398000", "093543.397000", "093545.398000", "093547.397000", "093549.398000", "093551.398000", "093553.398000", "093555.399000", "093557.399000", "093559.398000", "093601.398000", "093603.241000"],
      "InstanceCreationTime": ["093053.902000", "093055.398000", "093057.397000", "093059.398000", "093101.398000", "093103.397000", "093105.397000", "093107.398000", "093109.398000", "093111.397000", "093113.397000", "093115.398000", "093117.398000", "093119.398000", "093121.397000", "093123.397000", "093125.397000", "093127.397000", "093129.397000", "093131.398000", "093133.398000", "093135.399000", "093137.399000", "093139.397000", "093141.397000", "093143.398000", "093145.398000", "093147.397000", "093149.398000", "093151.399000", "093153.398000", "093155.397000", "093157.398000", "093159.397000", "093201.398000", "093203.398000", "093205.398000", "093207.397000", "093209.398000", "093211.399000", "093213.397000", "093215.397000", "093217.397000", "093219.897000", "093221.397000", "093223.397000", "093225.399000", "093227.898000", "093229.898000", "093231.397000", "093233.397000", "093235.397000", "093237.398000", "093239.398000", "093241.398000", "093243.398000", "093245.398000", "093247.399000", "093249.397000", "093251.398000", "093253.398000", "093255.398000", "093257.398000", "093259.397000", "093301.398000", "093303.398000", "093305.398000", "093307.397000", "093309.398000", "093311.397000", "093313.397000", "093315.398000", "093317.397000", "093319.399000", "093321.398000", "093323.397000", "093325.398000", "093327.397000", "093329.397000", "093331.398000", "093333.397000", "093335.398000", "093337.398000", "093339.399000", "093341.398000", "093343.398000", "093345.398000", "093347.398000", "093349.397000", "093351.398000", "093353.399000", "093355.398000", "093357.398000", "093359.397000", "093401.398000", "093403.398000", "093405.397000", "093407.397000", "093409.398000", "093411.399000", "093413.399000", "093415.398000", "093417.397000", "093419.398000", "093421.398000", "093423.397000", "093425.398000", "093427.398000", "093429.398000", "093431.398000", "093433.398000", "093435.398000", "093437.397000", "093439.397000", "093441.397000", "093443.397000", "093445.398000", "093447.398000", "093449.398000", "093451.397000", "093453.397000", "093455.398000", "093457.398000", "093459.398000", "093501.397000", "093503.398000", "093505.398000", "093507.398000", "093509.397000", "093511.397000", "093513.397000", "093515.397000", "093517.398000", "093519.398000", "093521.398000", "093523.398000", "093525.398000", "093527.397000", "093529.398000", "093531.398000", "093533.397000", "093535.397000", "093537.398000", "093539.399000", "093541.398000", "093543.397000", "093545.398000", "093547.397000", "093549.398000", "093551.398000", "093553.398000", "093555.399000", "093557.399000", "093559.398000", "093601.398000", "093603.241000"],
      "InstanceNumber": [1, 2, 3, 4, 5, 6, 7, 8, 9, 10, 11, 12, 13, 14, 15, 16, 17, 18, 19, 20, 21, 22, 23, 24, 25, 26, 27, 28, 29, 30, 31, 32, 33, 34, 35, 36, 37, 38, 39, 40, 41, 42, 43, 44, 45, 46, 47, 48, 49, 50, 51, 52, 53, 54, 55, 56, 57, 58, 59, 60, 61, 62, 63, 64, 65, 66, 67, 68, 69, 70, 71, 72, 73, 74, 75, 76, 77, 78, 79, 80, 81, 82, 83, 84, 85, 86, 87, 88, 89, 90, 91, 92, 93, 94, 95, 96, 97, 98, 99, 100, 101, 102, 103, 104, 105, 106, 107, 108, 109, 110, 111, 112, 113, 114, 115, 116, 117, 118, 119, 120, 121, 122, 123, 124, 125, 126, 127, 128, 129, 130, 131, 132, 133, 134, 135, 136, 137, 138, 139, 140, 141, 142, 143, 144, 145, 146, 147, 148, 149, 150, 151, 152, 153, 154, 155, 156],
      "LargestImagePixelValue": [2861, 2805, 2702, 2720, 2801, 2789, 2745, 2784, 2651, 2716, 2800, 2807, 2811, 2685, 2704, 2736, 2741, 2797, 2742, 2760, 2730, 2741, 2803, 2840, 2788, 2867, 2842, 2828, 2760, 2803, 2647, 2719, 2741, 2837, 2770, 2679, 2737, 2763, 2781, 2777, 2763, 2805, 2759, 2741, 2838, 2825, 2828, 2772, 2734, 2735, 2781, 2755, 2827, 2799, 2743, 2741, 2712, 2699, 2738, 2733, 2829, 2813, 2790, 2803, 3261, 2736, 2655, 2708, 2790, 2878, 2721, 2800, 2759, 2773, 2798, 2886, 2720, 2767, 2750, 2888, 2694, 2779, 2687, 2816, 2775, 2755, 2767, 2668, 2768, 2712, 2687, 2644, 2672, 2720, 2780, 2807, 2815, 2805, 2772, 2657, 2727, 2801, 2695, 2763, 2702, 2716, 2764, 2766, 2798, 2782, 2756, 2896, 2697, 2834, 2619, 2875, 2834, 2595, 2760, 2769, 2799, 2796, 2636, 2988, 2734, 2733, 2711, 2747, 2737, 2799, 2741, 2763, 2776, 2828, 2731, 2786, 2795, 2720, 2784, 2842, 2735, 2829, 2759, 2780, 2787, 2743, 2702, 2615, 2600, 2697, 2747, 2675, 2624, 2994, 2687, 2753],
      "WindowCenter": [749.0, 748.0, 747.0, 748.0, 748.0, 748.0, 747.0, 747.0, 746.0, 747.0, 748.0, 748.0, 747.0, 745.0, 745.0, 746.0, 747.0, 747.0, 744.0, 745.0, 745.0, 747.0, 748.0, 748.0, 747.0, 747.0, 747.0, 747.0, 747.0, 748.0, 746.0, 747.0, 747.0, 748.0, 748.0, 747.0, 747.0, 747.0, 747.0, 746.0, 746.0, 747.0, 746.0, 746.0, 747.0, 748.0, 747.0, 746.0, 745.0, 745.0, 746.0, 746.0, 747.0, 746.0, 746.0, 746.0, 746.0, 745.0, 744.0, 745.0, 747.0, 747.0, 747.0, 746.0, 750.0, 745.0, 744.0, 745.0, 747.0, 748.0, 746.0, 747.0, 746.0, 747.0, 747.0, 747.0, 746.0, 747.0, 747.0, 747.0, 746.0, 747.0, 746.0, 747.0, 746.0, 746.0, 746.0, 745.0, 746.0, 746.0, 745.0, 745.0, 746.0, 747.0, 747.0, 748.0, 748.0, 746.0, 745.0, 746.0, 747.0, 746.0, 744.0, 745.0, 745.0, 746.0, 747.0, 747.0, 747.0, 747.0, 746.0, 748.0, 746.0, 746.0, 743.0, 746.0, 747.0, 746.0, 748.0, 747.0, 747.0, 746.0, 744.0, 749.0, 747.0, 746.0, 746.0, 747.0, 747.0, 747.0, 745.0, 746.0, 747.0, 747.0, 745.0, 745.0, 746.0, 745.0, 746.0, 747.0, 746.0, 746.0, 746.0, 747.0, 746.0, 745.0, 745.0, 743.0, 745.0, 746.0, 746.0, 744.0, 744.0, 748.0, 745.0, 746.0],
      "WindowWidth": [1586.0, 1582.0, 1579.0, 1581.0, 1582.0, 1581.0, 1578.0, 1579.0, 1577.0, 1580.0, 1581.0, 1581.0, 1580.0, 1575.0, 1575.0, 1577.0, 1579.0, 1578.0, 1572.0, 1574.0, 1576.0, 1579.0, 1581.0, 1581.0, 1579.0, 1580.0, 1579.0, 1580.0, 1580.0, 1581.0, 1577.0, 1580.0, 1580.0, 1583.0, 1581.0, 1580.0, 1579.0, 1579.0, 1579.0, 1577.0, 1578.0, 1579.0, 1577.0, 1576.0, 1579.0, 1581.0, 1580.0, 1577.0, 1574.0, 1576.0, 1578.0, 1578.0, 1581.0, 1578.0, 1576.0, 1577.0, 1576.0, 1575.0, 1573.0, 1574.0, 1578.0, 1579.0, 1579.0, 1577.0, 1587.0, 1574.0, 1572.0, 1575.0, 1578.0, 1582.0, 1578.0, 1579.0, 1578.0, 1578.0, 1580.0, 1581.0, 1578.0, 1580.0, 1578.0, 1580.0, 1577.0, 1579.0, 1578.0, 1580.0, 1577.0, 1577.0, 1577.0, 1574.0, 1577.0, 1577.0, 1575.0, 1574.0, 1577.0, 1579.0, 1579.0, 1582.0, 1581.0, 1576.0, 1575.0, 1576.0, 1579.0, 1577.0, 1571.0, 1574.0, 1575.0, 1578.0, 1579.0, 1579.0, 1580.0, 1579.0, 1576.0, 1581.0, 1577.0, 1578.0, 1569.0, 1576.0, 1579.0, 1576.0, 1581.0, 1580.0, 1579.0, 1576.0, 1573.0, 1585.0, 1579.0, 1577.0, 1577.0, 1580.0, 1579.0, 1580.0, 1575.0, 1578.0, 1579.0, 1580.0, 1575.0, 1575.0, 1576.0, 1575.0, 1577.0, 1580.0, 1578.0, 1578.0, 1577.0, 1578.0, 1577.0, 1574.0, 1573.0, 1571.0, 1576.0, 1578.0, 1577.0, 1573.0, 1572.0, 1582.0, 1575.0, 1577.0]
    },
    "slices": {}
  }
}