{
  "AcquisitionMatrixPE": 100,
  "AcquisitionNumber": 1,
  "AcquisitionTime": "09:39:44.365000",
  "BandwidthPerPixelPhaseEncode": 18.519,
  "BaseResolution": 100,
  "BodyPartExamined": "BRAIN",
  "CoilCombinationMethod": "Sum of Squares",
  "ConsistencyInfo": "N4_VE11C_LATEST_20160120",
  "ConversionSoftware": "dcm2niix",
  "ConversionSoftwareVersion": "v1.0.20211006",
  "DerivedVendorReportedEchoSpacing": 0.000539986,
  "DeviceSerialNumber": "166078",
  "DwellTime": 2.1e-06,
  "EchoTime": 0.034,
  "EchoTrainLength": 100,
  "EffectiveEchoSpacing": 0.000539986,
  "FlipAngle": 90,
  "ImageOrientationPatientDICOM": [0.997595, -0.00798625, -0.0688557, -3.63914e-08, 0.993341, -0.115214],
  "ImageOrientationText": "Tra>Cor(-6.6)>Sag(-4.0)",
  "ImageType": [
    "ORIGINAL",
    "PRIMARY",
    "M",
    "ND",
    "MOSAIC"
],
  "ImagingFrequency": 123.258,
  "InPlanePhaseEncodingDirectionDICOM": "COL",
  "InstitutionAddress": "Street StreetNo,Bei Jing,District,CN,ZIP",
  "InstitutionName": "BeiJing Normal University",
  "InstitutionalDepartmentName": "Department",
  "MRAcquisitionType": "2D",
  "MagneticFieldStrength": 3,
  "Manufacturer": "Siemens",
  "ManufacturersModelName": "Prisma",
  "Modality": "MR",
  "MultibandAccelerationFactor": 3,
  "PartialFourier": 1,
  "PatientPosition": "HFS",
  "PercentPhaseFOV": 100,
  "PercentSampling": 100,
  "PhaseEncodingDirection": "j-",
  "PhaseEncodingSteps": 100,
  "PhaseResolution": 1,
  "PixelBandwidth": 2380,
  "ProcedureStepDescription": "BNU_P2018_64CH^Zhen.ZongLei",
  "ProtocolName": "bold_100x100_s3_2x2x2_static_156",
  "PulseSequenceDetails": "%SiemensSeq%\\ep2d_bold",
  "ReceiveCoilActiveElements": "HC1-7;NC1",
  "ReceiveCoilName": "HeadNeck_64",
  "ReconMatrixPE": 100,
  "RefLinesPE": 32,
  "RepetitionTime": 2,
  "SAR": 0.0706612,
  "ScanOptions": "FS",
  "ScanningSequence": "EP",
  "SequenceName": "*epfid2d1_100",
  "SequenceVariant": "SK",
  "SeriesDescription": "bold_100x100_s3_2x2x2_static_156",
  "SeriesNumber": 13,
  "ShimSetting": [-5486, -11512, -1275, 305, -95, -247, -12, 79],
  "SliceThickness": 2,
  "SliceTiming": [1.485, 0, 0.99, 0.0825, 1.0725, 0.165, 1.155, 0.2475, 1.2375, 0.33, 1.32, 0.4125, 1.4025, 0.5775, 1.5675, 0.66, 1.65, 0.7425, 1.7325, 0.825, 1.815, 0.9075, 1.8975, 0.495, 1.485, 0, 0.99, 0.0825, 1.0725, 0.165, 1.155, 0.2475, 1.2375, 0.33, 1.32, 0.4125, 1.4025, 0.5775, 1.5675, 0.66, 1.65, 0.7425, 1.7325, 0.825, 1.815, 0.9075, 1.8975, 0.495, 1.485, 0, 0.99, 0.0825, 1.0725, 0.165, 1.155, 0.2475, 1.2375, 0.33, 1.32, 0.4125, 1.4025, 0.5775, 1.5675, 0.66, 1.65, 0.7425, 1.7325, 0.825, 1.815, 0.9075, 1.8975, 0.495],
  "SoftwareVersions": "syngo MR E11",
  "SpacingBetweenSlices": 2,
  "StationName": "AWP166078",
  "TaskName": "action",
  "TotalReadoutTime": 0.0534586,
  "TxRefAmp": 220.789,
  "dcmmeta_affine": [
    [-1.9951893091201782, -7.278278246758418e-08, -0.13863451778888702, 104.43451690673828],
    [0.015972508117556572, 1.9866814613342285, -0.2298729121685028, -73.78707122802734],
    [-0.1377113312482834, 0.23042716085910797, 1.981902837753296, -71.05197143554688],
    [0.0, 0.0, 0.0, 1.0]
],
  "dcmmeta_reorient_transform": [
    [0.0, -1.0, 0.0, 99.0],
    [1.0, 0.0, 0.0, 0.0],
    [0.0, 0.0, 1.0, 0.0],
    [0.0, 0.0, 0.0, 1.0]
],
  "dcmmeta_shape": [100, 100, 72, 156],
  "dcmmeta_slice_dim": 2,
  "dcmmeta_version": 0.6,
  "global": {
    "const": {
      "AcquisitionMatrix": [100, 0, 0, 100],
      "AngioFlag": "N",
      "BitsAllocated": 16,
      "BitsStored": 12,
      "BodyPartExamined": "BRAIN",
      "Columns": 900,
      "EchoNumbers": 1,
      "EchoTime": 34.0,
      "EchoTrainLength": 100,
      "FlipAngle": 90.0,
      "HighBit": 11,
      "ImageOrientationPatient": [0.99759466577659, -0.0079862536882, -0.0688556647351, -3.6391392e-08, 0.99334074291012, -0.1152135776494],
      "ImagePositionPatient": [-902.51021146011, -911.17798805364, 99.015711700742],
      "ImageType": [
        "ORIGINAL",
        "PRIMARY",
        "M",
        "ND",
        "MOSAIC"
],
      "ImagedNucleus": "1H",
      "ImagingFrequency": 123.257701,
      "InPlanePhaseEncodingDirection": "COL",
      "MRAcquisitionType": "2D",
      "MagneticFieldStrength": 3.0,
      "Manufacturer": "SIEMENS",
      "ManufacturerModelName": "Prisma",
      "Modality": "MR",
      "NumberOfAverages": 1.0,
      "NumberOfPhaseEncodingSteps": 100,
      "PercentPhaseFieldOfView": 100.0,
      "PercentSampling": 100.0,
      "PerformedProcedureStepStartTime": "085431.095000",
      "PhotometricInterpretation": "MONOCHROME2",
      "PixelBandwidth": 2380.0,
      "PixelRepresentation": 0,
      "PixelSpacing": [2.0, 2.0],
      "ProtocolName": "bold_100x100_s3_2x2x2_static_156",
      "RepetitionTime": 2000.0,
      "Rows": 900,
      "SAR": 0.0706611717982,
      "SamplesPerPixel": 1,
      "ScanOptions": "FS",
      "ScanningSequence": "EP",
      "SequenceName": "*epfid2d1_100",
      "SequenceVariant": "SK",
      "SeriesDescription": "bold_100x100_s3_2x2x2_static_156",
      "SeriesNumber": 13,
      "SeriesTime": "093946.501000",
      "SliceLocation": -69.167342077696,
      "SliceThickness": 2.0,
      "SmallestImagePixelValue": 0,
      "SoftwareVersions": "syngo MR E11",
      "SpacingBetweenSlices": 2.0000000090193,
      "SpecificCharacterSet": "ISO_IR 100",
      "StudyID": "1",
      "StudyTime": "085430.986000",
      "TransmitCoilName": "Body",
      "VariableFlipAngleFlag": "N",
      "WindowCenterWidthExplanation": "Algo1",
      "dBdt": 0.0},
    "slices": {}
  },
  "time": {
    "samples": {
      "AcquisitionNumber": [1, 2, 3, 4, 5, 6, 7, 8, 9, 10, 11, 12, 13, 14, 15, 16, 17, 18, 19, 20, 21, 22, 23, 24, 25, 26, 27, 28, 29, 30, 31, 32, 33, 34, 35, 36, 37, 38, 39, 40, 41, 42, 43, 44, 45, 46, 47, 48, 49, 50, 51, 52, 53, 54, 55, 56, 57, 58, 59, 60, 61, 62, 63, 64, 65, 66, 67, 68, 69, 70, 71, 72, 73, 74, 75, 76, 77, 78, 79, 80, 81, 82, 83, 84, 85, 86, 87, 88, 89, 90, 91, 92, 93, 94, 95, 96, 97, 98, 99, 100, 101, 102, 103, 104, 105, 106, 107, 108, 109, 110, 111, 112, 113, 114, 115, 116, 117, 118, 119, 120, 121, 122, 123, 124, 125, 126, 127, 128, 129, 130, 131, 132, 133, 134, 135, 136, 137, 138, 139, 140, 141, 142, 143, 144, 145, 146, 147, 148, 149, 150, 151, 152, 153, 154, 155, 156],
      "AcquisitionTime": ["093944.365000", "093946.365000", "093948.365000", "093950.365000", "093952.365000", "093954.365000", "093956.365000", "093958.365000", "094000.365000", "094002.365000", "094004.365000", "094006.365000", "094008.365000", "094010.365000", "094012.365000", "094014.365000", "094016.365000", "094018.365000", "094020.365000", "094022.365000", "094024.365000", "094026.365000", "094028.365000", "094030.365000", "094032.365000", "094034.365000", "094036.365000", "094038.365000", "094040.365000", "094042.365000", "094044.365000", "094046.365000", "094048.365000", "094050.365000", "094052.365000", "094054.365000", "094056.365000", "094058.365000", "094100.365000", "094102.365000", "094104.365000", "094106.365000", "094108.365000", "094110.365000", "094112.365000", "094114.365000", "094116.365000", "094118.365000", "094120.365000", "094122.365000", "094124.365000", "094126.365000", "094128.365000", "094130.365000", "094132.365000", "094134.365000", "094136.365000", "094138.365000", "094140.365000", "094142.365000", "094144.365000", "094146.365000", "094148.365000", "094150.365000", "094152.365000", "094154.365000", "094156.365000", "094158.365000", "094200.365000", "094202.365000", "094204.365000", "094206.365000", "094208.365000", "094210.365000", "094212.365000", "094214.365000", "094216.365000", "094218.365000", "094220.365000", "094222.365000", "094224.365000", "094226.365000", "094228.365000", "094230.365000", "094232.365000", "094234.365000", "094236.365000", "094238.365000", "094240.365000", "094242.365000", "094244.365000", "094246.365000", "094248.365000", "094250.365000", "094252.365000", "094254.365000", "094256.365000", "094258.365000", "094300.365000", "094302.365000", "094304.365000", "094306.365000", "094308.365000", "094310.365000", "094312.365000", "094314.365000", "094316.365000", "094318.365000", "094320.365000", "094322.365000", "094324.365000", "094326.365000", "094328.365000", "094330.365000", "094332.365000", "094334.365000", "094336.365000", "094338.365000", "094340.365000", "094342.365000", "094344.365000", "094346.365000", "094348.365000", "094350.365000", "094352.365000", "094354.365000", "094356.365000", "094358.365000", "094400.365000", "094402.365000", "094404.365000", "094406.365000", "094408.365000", "094410.365000", "094412.365000", "094414.365000", "094416.365000", "094418.365000", "094420.365000", "094422.365000", "094424.365000", "094426.365000", "094428.365000", "094430.365000", "094432.365000", "094434.365000", "094436.365000", "094438.365000", "094440.365000", "094442.365000", "094444.365000", "094446.365000", "094448.365000", "094450.365000", "094452.365000", "094454.365000"],
      "ContentTime": ["093946.504000", "093948.000000", "093950.001000", "093952.000000", "093954.001000", "093956.000000", "093958.000000", "094000.000000", "094002.001000", "094004.000000", "094006.001000", "094008.000000", "094010.001000", "094012.001000", "094013.998000", "094015.998000", "094018.000000", "094020.000000", "094022.000000", "094024.000000", "094026.000000", "094028.001000", "094029.998000", "094032.000000", "094034.000000", "094036.000000", "094038.000000", "094040.000000", "094042.000000", "094044.001000", "094046.001000", "094047.998000", "094049.998000", "094051.999000", "094054.000000", "094056.000000", "094058.000000", "094100.000000", "094102.001000", "094104.000000", "094105.998000", "094107.998000", "094110.000000", "094112.000000", "094114.001000", "094116.000000", "094118.000000", "094120.001000", "094122.001000", "094123.998000", "094126.000000", "094128.000000", "094130.000000", "094132.001000", "094134.000000", "094136.001000", "094138.000000", "094139.998000", "094142.000000", "094143.998000", "094146.000000", "094148.001000", "094150.000000", "094152.001000", "094154.000000", "094156.001000", "094158.000000", "094200.000000", "094201.999000", "094204.001000", "094206.001000", "094208.001000", "094210.000000", "094212.000000", "094214.000000", "094216.000000", "094217.998000", "094220.000000", "094222.001000", "094224.001000", "094226.001000", "094228.000000", "094230.000000", "094232.001000", "094234.000000", "094236.000000", "094238.001000", "094240.000000", "094242.001000", "094244.001000", "094246.000000", "094248.001000", "094249.998000", "094252.000000", "094254.000000", "094256.000000", "094258.001000", "094300.000000", "094302.001000", "094304.001000", "094306.001000", "094307.998000", "094310.000000", "094312.000000", "094314.000000", "094316.000000", "094318.001000", "094320.000000", "094322.000000", "094324.001000", "094325.998000", "094328.000000", "094330.000000", "094332.001000", "094334.000000", "094336.001000", "094338.000000", "094340.000000", "094342.001000", "094343.998000", "094345.999000", "094348.000000", "094350.001000", "094352.001000", "094354.001000", "094356.001000", "094358.001000", "094400.000000", "094402.000000", "094404.000000", "094406.000000", "094408.000000", "094410.000000", "094412.001000", "094414.020000", "094416.000000", "094417.998000", "094420.000000", "094422.000000", "094424.001000", "094426.001000", "094428.001000", "094430.000000", "094432.000000", "094434.001000", "094436.000000", "094437.998000", "094440.000000", "094442.000000", "094444.001000", "094446.000000", "094448.000000", "094450.001000", "094452.002000", "094454.002000", "094455.911000"],
      "InstanceCreationTime": ["093946.504000", "093948.000000", "093950.001000", "093952.000000", "093954.001000", "093956.000000", "093958.000000", "094000.000000", "094002.001000", "094004.000000", "094006.001000", "094008.000000", "094010.001000", "094012.001000", "094013.998000", "094015.998000", "094018.000000", "094020.000000", "094022.000000", "094024.000000", "094026.000000", "094028.001000", "094029.998000", "094032.000000", "094034.000000", "094036.000000", "094038.000000", "094040.000000", "094042.000000", "094044.001000", "094046.001000", "094047.998000", "094049.998000", "094051.999000", "094054.000000", "094056.000000", "094058.000000", "094100.000000", "094102.001000", "094104.000000", "094105.998000", "094107.998000", "094110.000000", "094112.000000", "094114.001000", "094116.000000", "094118.000000", "094120.001000", "094122.001000", "094123.998000", "094126.000000", "094128.000000", "094130.000000", "094132.001000", "094134.000000", "094136.001000", "094138.000000", "094139.998000", "094142.000000", "094143.998000", "094146.000000", "094148.001000", "094150.000000", "094152.001000", "094154.000000", "094156.001000", "094158.000000", "094200.000000", "094201.999000", "094204.001000", "094206.001000", "094208.001000", "094210.000000", "094212.000000", "094214.000000", "094216.000000", "094217.998000", "094220.000000", "094222.001000", "094224.001000", "094226.001000", "094228.000000", "094230.000000", "094232.001000", "094234.000000", "094236.000000", "094238.001000", "094240.000000", "094242.001000", "094244.001000", "094246.000000", "094248.001000", "094249.998000", "094252.000000", "094254.000000", "094256.000000", "094258.001000", "094300.000000", "094302.001000", "094304.001000", "094306.001000", "094307.998000", "094310.000000", "094312.000000", "094314.000000", "094316.000000", "094318.001000", "094320.000000", "094322.000000", "094324.001000", "094325.998000", "094328.000000", "094330.000000", "094332.001000", "094334.000000", "094336.001000", "094338.000000", "094340.000000", "094342.001000", "094343.998000", "094345.999000", "094348.000000", "094350.001000", "094352.001000", "094354.001000", "094356.001000", "094358.001000", "094400.000000", "094402.000000", "094404.000000", "094406.000000", "094408.000000", "094410.000000", "094412.001000", "094414.020000", "094416.000000", "094417.998000", "094420.000000", "094422.000000", "094424.001000", "094426.001000", "094428.001000", "094430.000000", "094432.000000", "094434.001000", "094436.000000", "094437.998000", "094440.000000", "094442.000000", "094444.001000", "094446.000000", "094448.000000", "094450.001000", "094452.002000", "094454.002000", "094455.911000"],
      "InstanceNumber": [1, 2, 3, 4, 5, 6, 7, 8, 9, 10, 11, 12, 13, 14, 15, 16, 17, 18, 19, 20, 21, 22, 23, 24, 25, 26, 27, 28, 29, 30, 31, 32, 33, 34, 35, 36, 37, 38, 39, 40, 41, 42, 43, 44, 45, 46, 47, 48, 49, 50, 51, 52, 53, 54, 55, 56, 57, 58, 59, 60, 61, 62, 63, 64, 65, 66, 67, 68, 69, 70, 71, 72, 73, 74, 75, 76, 77, 78, 79, 80, 81, 82, 83, 84, 85, 86, 87, 88, 89, 90, 91, 92, 93, 94, 95, 96, 97, 98, 99, 100, 101, 102, 103, 104, 105, 106, 107, 108, 109, 110, 111, 112, 113, 114, 115, 116, 117, 118, 119, 120, 121, 122, 123, 124, 125, 126, 127, 128, 129, 130, 131, 132, 133, 134, 135, 136, 137, 138, 139, 140, 141, 142, 143, 144, 145, 146, 147, 148, 149, 150, 151, 152, 153, 154, 155, 156],
      "LargestImagePixelValue": [2829, 2788, 2665, 2806, 2741, 2617, 2719, 2744, 2768, 2705, 2656, 2754, 2758, 2895, 2855, 2657, 2904, 2788, 2837, 2672, 2728, 2958, 2768, 2700, 2703, 2794, 2822, 2685, 2677, 2714, 2884, 2715, 2769, 2723, 2773, 2822, 2784, 2695, 2703, 2688, 2662, 2673, 2783, 2837, 2811, 2774, 2792, 2736, 2785, 2741, 2743, 2753, 2755, 2728, 2803, 2730, 2752, 2602, 2761, 2706, 2742, 2744, 2697, 2731, 2638, 2715, 2562, 2665, 2655, 2692, 2706, 2719, 2806, 2776, 2804, 2725, 2693, 2717, 2719, 2693, 2655, 2698, 2739, 2638, 2601, 2721, 2679, 2564, 2623, 2749, 2664, 2847, 2776, 2720, 2607, 2568, 2862, 2776, 2738, 2710, 2683, 2688, 2661, 2757, 2730, 2765, 2678, 2655, 2668, 2621, 2708, 2850, 2807, 2797, 2750, 2766, 2729, 2762, 2722, 2692, 2670, 2653, 2594, 2780, 2729, 2702, 2818, 2760, 2786, 2748, 2727, 2683, 2731, 2805, 2826, 2790, 2799, 2848, 2771, 2646, 2741, 2765, 2671, 2737, 2708, 2663, 2569, 2527, 2823, 2877, 2768, 2747, 2725, 2820, 2887, 2816],
      "WindowCenter": [748.0, 747.0, 745.0, 746.0, 746.0, 746.0, 747.0, 747.0, 747.0, 747.0, 746.0, 747.0, 748.0, 748.0, 747.0, 746.0, 748.0, 746.0, 746.0, 744.0, 746.0, 749.0, 746.0, 746.0, 746.0, 747.0, 747.0, 745.0, 745.0, 745.0, 746.0, 745.0, 746.0, 747.0, 747.0, 747.0, 746.0, 745.0, 744.0, 744.0, 745.0, 745.0, 746.0, 746.0, 745.0, 745.0, 745.0, 744.0, 745.0, 745.0, 745.0, 746.0, 745.0, 745.0, 745.0, 743.0, 742.0, 743.0, 745.0, 744.0, 744.0, 744.0, 743.0, 742.0, 741.0, 743.0, 740.0, 742.0, 741.0, 743.0, 744.0, 746.0, 747.0, 747.0, 746.0, 745.0, 746.0, 746.0, 746.0, 745.0, 745.0, 746.0, 746.0, 744.0, 744.0, 746.0, 746.0, 745.0, 746.0, 746.0, 744.0, 746.0, 746.0, 745.0, 744.0, 744.0, 748.0, 747.0, 746.0, 746.0, 745.0, 745.0, 744.0, 746.0, 745.0, 745.0, 744.0, 744.0, 745.0, 745.0, 745.0, 746.0, 746.0, 746.0, 745.0, 746.0, 746.0, 746.0, 745.0, 745.0, 745.0, 745.0, 744.0, 746.0, 746.0, 746.0, 746.0, 746.0, 747.0, 746.0, 746.0, 746.0, 747.0, 748.0, 747.0, 746.0, 746.0, 746.0, 744.0, 744.0, 745.0, 745.0, 743.0, 745.0, 745.0, 744.0, 744.0, 744.0, 748.0, 747.0, 744.0, 745.0, 746.0, 748.0, 748.0, 746.0],
      "WindowWidth": [1581.0, 1579.0, 1575.0, 1576.0, 1578.0, 1576.0, 1578.0, 1579.0, 1580.0, 1580.0, 1577.0, 1580.0, 1581.0, 1583.0, 1579.0, 1576.0, 1582.0, 1578.0, 1576.0, 1573.0, 1578.0, 1584.0, 1577.0, 1576.0, 1576.0, 1579.0, 1578.0, 1574.0, 1575.0, 1575.0, 1576.0, 1574.0, 1577.0, 1578.0, 1580.0, 1578.0, 1576.0, 1573.0, 1573.0, 1572.0, 1573.0, 1573.0, 1575.0, 1575.0, 1574.0, 1573.0, 1573.0, 1573.0, 1575.0, 1573.0, 1575.0, 1576.0, 1575.0, 1575.0, 1574.0, 1568.0, 1568.0, 1568.0, 1575.0, 1572.0, 1572.0, 1572.0, 1570.0, 1567.0, 1565.0, 1568.0, 1563.0, 1566.0, 1565.0, 1570.0, 1573.0, 1577.0, 1580.0, 1579.0, 1578.0, 1575.0, 1578.0, 1577.0, 1576.0, 1574.0, 1574.0, 1576.0, 1575.0, 1571.0, 1572.0, 1578.0, 1578.0, 1576.0, 1578.0, 1577.0, 1573.0, 1577.0, 1576.0, 1573.0, 1571.0, 1572.0, 1581.0, 1579.0, 1577.0, 1577.0, 1575.0, 1574.0, 1573.0, 1576.0, 1575.0, 1575.0, 1572.0, 1573.0, 1574.0, 1573.0, 1574.0, 1577.0, 1576.0, 1577.0, 1575.0, 1577.0, 1576.0, 1578.0, 1575.0, 1574.0, 1574.0, 1573.0, 1573.0, 1578.0, 1576.0, 1576.0, 1577.0, 1576.0, 1578.0, 1576.0, 1577.0, 1577.0, 1580.0, 1581.0, 1579.0, 1576.0, 1576.0, 1576.0, 1572.0, 1571.0, 1574.0, 1573.0, 1570.0, 1573.0, 1573.0, 1573.0, 1571.0, 1573.0, 1580.0, 1578.0, 1572.0, 1573.0, 1577.0, 1581.0, 1581.0, 1576.0]
    },
    "slices": {}
  }
}