{
  "AcquisitionMatrixPE": 100,
  "AcquisitionNumber": 1,
  "AcquisitionTime": "09:57:51.602500",
  "BandwidthPerPixelPhaseEncode": 18.519,
  "BaseResolution": 100,
  "BodyPartExamined": "BRAIN",
  "CoilCombinationMethod": "Sum of Squares",
  "ConsistencyInfo": "N4_VE11C_LATEST_20160120",
  "ConversionSoftware": "dcm2niix",
  "ConversionSoftwareVersion": "v1.0.20211006",
  "DerivedVendorReportedEchoSpacing": 0.000539986,
  "DeviceSerialNumber": "166078",
  "DwellTime": 2.1e-06,
  "EchoTime": 0.034,
  "EchoTrainLength": 100,
  "EffectiveEchoSpacing": 0.000539986,
  "FlipAngle": 90,
  "ImageOrientationPatientDICOM": [0.997595, -0.00798625, -0.0688557, -3.63914e-08, 0.993341, -0.115214],
  "ImageOrientationText": "Tra>Cor(-6.6)>Sag(-4.0)",
  "ImageType": [
    "ORIGINAL",
    "PRIMARY",
    "M",
    "ND",
    "MOSAIC"
],
  "ImagingFrequency": 123.258,
  "InPlanePhaseEncodingDirectionDICOM": "COL",
  "InstitutionAddress": "Street StreetNo,Bei Jing,District,CN,ZIP",
  "InstitutionName": "BeiJing Normal University",
  "InstitutionalDepartmentName": "Department",
  "MRAcquisitionType": "2D",
  "MagneticFieldStrength": 3,
  "Manufacturer": "Siemens",
  "ManufacturersModelName": "Prisma",
  "Modality": "MR",
  "MultibandAccelerationFactor": 3,
  "PartialFourier": 1,
  "PatientPosition": "HFS",
  "PercentPhaseFOV": 100,
  "PercentSampling": 100,
  "PhaseEncodingDirection": "j-",
  "PhaseEncodingSteps": 100,
  "PhaseResolution": 1,
  "PixelBandwidth": 2380,
  "ProcedureStepDescription": "BNU_P2018_64CH^Zhen.ZongLei",
  "ProtocolName": "bold_100x100_s3_2x2x2_static_156",
  "PulseSequenceDetails": "%SiemensSeq%\\ep2d_bold",
  "ReceiveCoilActiveElements": "HC1-7;NC1",
  "ReceiveCoilName": "HeadNeck_64",
  "ReconMatrixPE": 100,
  "RefLinesPE": 32,
  "RepetitionTime": 2,
  "SAR": 0.0706612,
  "ScanOptions": "FS",
  "ScanningSequence": "EP",
  "SequenceName": "*epfid2d1_100",
  "SequenceVariant": "SK",
  "SeriesDescription": "bold_100x100_s3_2x2x2_static_156",
  "SeriesNumber": 16,
  "ShimSetting": [-5486, -11512, -1275, 305, -95, -247, -12, 79],
  "SliceThickness": 2,
  "SliceTiming": [1.485, 0, 0.99, 0.0825, 1.0725, 0.165, 1.155, 0.2475, 1.2375, 0.33, 1.32, 0.4125, 1.4025, 0.5775, 1.5675, 0.66, 1.65, 0.7425, 1.7325, 0.825, 1.815, 0.9075, 1.8975, 0.495, 1.485, 0, 0.99, 0.0825, 1.0725, 0.165, 1.155, 0.2475, 1.2375, 0.33, 1.32, 0.4125, 1.4025, 0.5775, 1.5675, 0.66, 1.65, 0.7425, 1.7325, 0.825, 1.815, 0.9075, 1.8975, 0.495, 1.485, 0, 0.99, 0.0825, 1.0725, 0.165, 1.155, 0.2475, 1.2375, 0.33, 1.32, 0.4125, 1.4025, 0.5775, 1.5675, 0.66, 1.65, 0.7425, 1.7325, 0.825, 1.815, 0.9075, 1.8975, 0.495],
  "SoftwareVersions": "syngo MR E11",
  "SpacingBetweenSlices": 2,
  "StationName": "AWP166078",
  "TaskName": "action",
  "TotalReadoutTime": 0.0534586,
  "TxRefAmp": 220.789,
  "dcmmeta_affine": [
    [-1.9951893091201782, -7.278278246758418e-08, -0.13863451778888702, 104.43451690673828],
    [0.015972508117556572, 1.9866814613342285, -0.2298729121685028, -73.78707122802734],
    [-0.1377113312482834, 0.23042716085910797, 1.981902837753296, -71.05197143554688],
    [0.0, 0.0, 0.0, 1.0]
],
  "dcmmeta_reorient_transform": [
    [0.0, -1.0, 0.0, 99.0],
    [1.0, 0.0, 0.0, 0.0],
    [0.0, 0.0, 1.0, 0.0],
    [0.0, 0.0, 0.0, 1.0]
],
  "dcmmeta_shape": [100, 100, 72, 156],
  "dcmmeta_slice_dim": 2,
  "dcmmeta_version": 0.6,
  "global": {
    "const": {
      "AcquisitionMatrix": [100, 0, 0, 100],
      "AngioFlag": "N",
      "BitsAllocated": 16,
      "BitsStored": 12,
      "BodyPartExamined": "BRAIN",
      "Columns": 900,
      "EchoNumbers": 1,
      "EchoTime": 34.0,
      "EchoTrainLength": 100,
      "FlipAngle": 90.0,
      "HighBit": 11,
      "ImageOrientationPatient": [0.99759466577659, -0.0079862536882, -0.0688556647351, -3.6391392e-08, 0.99334074291012, -0.1152135776494],
      "ImagePositionPatient": [-902.51021146011, -911.17798805364, 99.015711700742],
      "ImageType": [
        "ORIGINAL",
        "PRIMARY",
        "M",
        "ND",
        "MOSAIC"
],
      "ImagedNucleus": "1H",
      "ImagingFrequency": 123.257711,
      "InPlanePhaseEncodingDirection": "COL",
      "MRAcquisitionType": "2D",
      "MagneticFieldStrength": 3.0,
      "Manufacturer": "SIEMENS",
      "ManufacturerModelName": "Prisma",
      "Modality": "MR",
      "NumberOfAverages": 1.0,
      "NumberOfPhaseEncodingSteps": 100,
      "PercentPhaseFieldOfView": 100.0,
      "PercentSampling": 100.0,
      "PerformedProcedureStepStartTime": "085431.095000",
      "PhotometricInterpretation": "MONOCHROME2",
      "PixelBandwidth": 2380.0,
      "PixelRepresentation": 0,
      "PixelSpacing": [2.0, 2.0],
      "ProtocolName": "bold_100x100_s3_2x2x2_static_156",
      "RepetitionTime": 2000.0,
      "Rows": 900,
      "SAR": 0.0706611717982,
      "SamplesPerPixel": 1,
      "ScanOptions": "FS",
      "ScanningSequence": "EP",
      "SequenceName": "*epfid2d1_100",
      "SequenceVariant": "SK",
      "SeriesDescription": "bold_100x100_s3_2x2x2_static_156",
      "SeriesNumber": 16,
      "SeriesTime": "095754.617000",
      "SliceLocation": -69.167342077696,
      "SliceThickness": 2.0,
      "SmallestImagePixelValue": 0,
      "SoftwareVersions": "syngo MR E11",
      "SpacingBetweenSlices": 2.0000000090193,
      "SpecificCharacterSet": "ISO_IR 100",
      "StudyID": "1",
      "StudyTime": "085430.986000",
      "TransmitCoilName": "Body",
      "VariableFlipAngleFlag": "N",
      "WindowCenterWidthExplanation": "Algo1",
      "dBdt": 0.0},
    "slices": {}
  },
  "time": {
    "samples": {
      "AcquisitionNumber": [1, 2, 3, 4, 5, 6, 7, 8, 9, 10, 11, 12, 13, 14, 15, 16, 17, 18, 19, 20, 21, 22, 23, 24, 25, 26, 27, 28, 29, 30, 31, 32, 33, 34, 35, 36, 37, 38, 39, 40, 41, 42, 43, 44, 45, 46, 47, 48, 49, 50, 51, 52, 53, 54, 55, 56, 57, 58, 59, 60, 61, 62, 63, 64, 65, 66, 67, 68, 69, 70, 71, 72, 73, 74, 75, 76, 77, 78, 79, 80, 81, 82, 83, 84, 85, 86, 87, 88, 89, 90, 91, 92, 93, 94, 95, 96, 97, 98, 99, 100, 101, 102, 103, 104, 105, 106, 107, 108, 109, 110, 111, 112, 113, 114, 115, 116, 117, 118, 119, 120, 121, 122, 123, 124, 125, 126, 127, 128, 129, 130, 131, 132, 133, 134, 135, 136, 137, 138, 139, 140, 141, 142, 143, 144, 145, 146, 147, 148, 149, 150, 151, 152, 153, 154, 155, 156],
      "AcquisitionTime": ["095751.602500", "095753.602500", "095755.602500", "095757.602500", "095759.602500", "095801.602500", "095803.602500", "095805.602500", "095807.602500", "095809.602500", "095811.602500", "095813.602500", "095815.602500", "095817.602500", "095819.602500", "095821.602500", "095823.602500", "095825.602500", "095827.602500", "095829.602500", "095831.602500", "095833.602500", "095835.602500", "095837.602500", "095839.602500", "095841.602500", "095843.602500", "095845.602500", "095847.602500", "095849.602500", "095851.602500", "095853.602500", "095855.602500", "095857.602500", "095859.602500", "095901.602500", "095903.602500", "095905.602500", "095907.602500", "095909.602500", "095911.602500", "095913.602500", "095915.602500", "095917.602500", "095919.602500", "095921.602500", "095923.602500", "095925.602500", "095927.602500", "095929.602500", "095931.602500", "095933.602500", "095935.602500", "095937.602500", "095939.602500", "095941.602500", "095943.602500", "095945.602500", "095947.602500", "095949.602500", "095951.602500", "095953.602500", "095955.602500", "095957.602500", "095959.602500", "100001.602500", "100003.602500", "100005.602500", "100007.602500", "100009.602500", "100011.602500", "100013.602500", "100015.602500", "100017.602500", "100019.602500", "100021.602500", "100023.602500", "100025.602500", "100027.602500", "100029.602500", "100031.602500", "100033.602500", "100035.602500", "100037.602500", "100039.602500", "100041.602500", "100043.602500", "100045.602500", "100047.602500", "100049.602500", "100051.602500", "100053.602500", "100055.602500", "100057.602500", "100059.602500", "100101.602500", "100103.602500", "100105.602500", "100107.602500", "100109.602500", "100111.602500", "100113.602500", "100115.602500", "100117.602500", "100119.602500", "100121.602500", "100123.602500", "100125.602500", "100127.602500", "100129.602500", "100131.602500", "100133.602500", "100135.602500", "100137.602500", "100139.602500", "100141.602500", "100143.602500", "100145.602500", "100147.602500", "100149.602500", "100151.602500", "100153.602500", "100155.602500", "100157.602500", "100159.602500", "100201.602500", "100203.602500", "100205.602500", "100207.602500", "100209.602500", "100211.602500", "100213.602500", "100215.602500", "100217.602500", "100219.602500", "100221.602500", "100223.602500", "100225.602500", "100227.602500", "100229.602500", "100231.602500", "100233.602500", "100235.602500", "100237.602500", "100239.602500", "100241.602500", "100243.602500", "100245.602500", "100247.602500", "100249.602500", "100251.602500", "100253.602500", "100255.602500", "100257.602500", "100259.602500", "100301.602500"],
      "ContentTime": ["095754.621000", "095756.117000", "095758.116000", "095800.117000", "095802.116000", "095804.117000", "095806.116000", "095808.116000", "095810.116000", "095812.116000", "095814.116000", "095816.117000", "095818.116000", "095820.117000", "095822.117000", "095824.117000", "095826.117000", "095828.117000", "095830.117000", "095832.116000", "095834.116000", "095836.117000", "095838.117000", "095840.116000", "095842.116000", "095844.116000", "095846.116000", "095848.116000", "095850.116000", "095852.117000", "095854.116000", "095856.118000", "095858.117000", "095900.116000", "095902.117000", "095904.116000", "095906.116000", "095908.116000", "095910.117000", "095912.117000", "095914.118000", "095916.117000", "095918.117000", "095920.116000", "095922.116000", "095924.117000", "095926.117000", "095928.116000", "095930.116000", "095932.118000", "095934.117000", "095936.116000", "095938.117000", "095940.116000", "095942.117000", "095944.117000", "095946.116000", "095948.117000", "095950.117000", "095952.117000", "095954.116000", "095956.116000", "095958.116000", "100000.117000", "100002.116000", "100004.117000", "100006.118000", "100008.117000", "100010.116000", "100012.117000", "100014.117000", "100016.116000", "100018.117000", "100020.116000", "100022.116000", "100024.118000", "100026.117000", "100028.117000", "100030.116000", "100032.116000", "100034.117000", "100036.117000", "100038.116000", "100040.116000", "100042.118000", "100044.117000", "100046.117000", "100048.116000", "100050.117000", "100052.116000", "100054.116000", "100056.116000", "100058.117000", "100100.116000", "100102.116000", "100104.117000", "100106.116000", "100108.116000", "100110.117000", "100112.117000", "100114.117000", "100116.117000", "100118.116000", "100120.117000", "100122.117000", "100124.117000", "100126.116000", "100128.116000", "100130.117000", "100132.116000", "100134.118000", "100136.116000", "100138.116000", "100140.116000", "100142.117000", "100144.117000", "100146.116000", "100148.117000", "100150.117000", "100152.118000", "100154.117000", "100156.117000", "100158.117000", "100200.117000", "100202.117000", "100204.117000", "100206.117000", "100208.117000", "100210.117000", "100212.117000", "100214.117000", "100216.116000", "100218.117000", "100220.117000", "100222.117000", "100224.117000", "100226.118000", "100228.116000", "100230.117000", "100232.117000", "100234.117000", "100236.116000", "100238.117000", "100240.117000", "100242.116000", "100244.117000", "100246.116000", "100248.116000", "100250.116000", "100252.116000", "100254.117000", "100256.116000", "100258.117000", "100300.117000", "100302.118000", "100303.790000"],
      "InstanceCreationTime": ["095754.621000", "095756.117000", "095758.116000", "095800.117000", "095802.116000", "095804.117000", "095806.116000", "095808.116000", "095810.116000", "095812.116000", "095814.116000", "095816.117000", "095818.116000", "095820.117000", "095822.117000", "095824.117000", "095826.117000", "095828.117000", "095830.117000", "095832.116000", "095834.116000", "095836.117000", "095838.117000", "095840.116000", "095842.116000", "095844.116000", "095846.116000", "095848.116000", "095850.116000", "095852.117000", "095854.116000", "095856.118000", "095858.117000", "095900.116000", "095902.117000", "095904.116000", "095906.116000", "095908.116000", "095910.117000", "095912.117000", "095914.118000", "095916.117000", "095918.117000", "095920.116000", "095922.116000", "095924.117000", "095926.117000", "095928.116000", "095930.116000", "095932.118000", "095934.117000", "095936.116000", "095938.117000", "095940.116000", "095942.117000", "095944.117000", "095946.116000", "095948.117000", "095950.117000", "095952.117000", "095954.116000", "095956.116000", "095958.116000", "100000.117000", "100002.116000", "100004.117000", "100006.118000", "100008.117000", "100010.116000", "100012.117000", "100014.117000", "100016.116000", "100018.117000", "100020.116000", "100022.116000", "100024.118000", "100026.117000", "100028.117000", "100030.116000", "100032.116000", "100034.117000", "100036.117000", "100038.116000", "100040.116000", "100042.118000", "100044.117000", "100046.117000", "100048.116000", "100050.117000", "100052.116000", "100054.116000", "100056.116000", "100058.117000", "100100.116000", "100102.116000", "100104.117000", "100106.116000", "100108.116000", "100110.117000", "100112.117000", "100114.117000", "100116.117000", "100118.116000", "100120.117000", "100122.117000", "100124.117000", "100126.116000", "100128.116000", "100130.117000", "100132.116000", "100134.118000", "100136.116000", "100138.116000", "100140.116000", "100142.117000", "100144.117000", "100146.116000", "100148.117000", "100150.117000", "100152.118000", "100154.117000", "100156.117000", "100158.117000", "100200.117000", "100202.117000", "100204.117000", "100206.117000", "100208.117000", "100210.117000", "100212.117000", "100214.117000", "100216.116000", "100218.117000", "100220.117000", "100222.117000", "100224.117000", "100226.118000", "100228.116000", "100230.117000", "100232.117000", "100234.117000", "100236.116000", "100238.117000", "100240.117000", "100242.116000", "100244.117000", "100246.116000", "100248.116000", "100250.116000", "100252.116000", "100254.117000", "100256.116000", "100258.117000", "100300.117000", "100302.118000", "100303.790000"],
      "InstanceNumber": [1, 2, 3, 4, 5, 6, 7, 8, 9, 10, 11, 12, 13, 14, 15, 16, 17, 18, 19, 20, 21, 22, 23, 24, 25, 26, 27, 28, 29, 30, 31, 32, 33, 34, 35, 36, 37, 38, 39, 40, 41, 42, 43, 44, 45, 46, 47, 48, 49, 50, 51, 52, 53, 54, 55, 56, 57, 58, 59, 60, 61, 62, 63, 64, 65, 66, 67, 68, 69, 70, 71, 72, 73, 74, 75, 76, 77, 78, 79, 80, 81, 82, 83, 84, 85, 86, 87, 88, 89, 90, 91, 92, 93, 94, 95, 96, 97, 98, 99, 100, 101, 102, 103, 104, 105, 106, 107, 108, 109, 110, 111, 112, 113, 114, 115, 116, 117, 118, 119, 120, 121, 122, 123, 124, 125, 126, 127, 128, 129, 130, 131, 132, 133, 134, 135, 136, 137, 138, 139, 140, 141, 142, 143, 144, 145, 146, 147, 148, 149, 150, 151, 152, 153, 154, 155, 156],
      "LargestImagePixelValue": [2761, 2735, 2719, 2831, 2837, 2903, 2854, 2828, 2730, 2787, 2700, 2836, 2795, 2732, 2799, 2663, 2873, 2783, 2753, 2634, 2750, 2935, 2807, 2824, 2669, 2861, 2742, 2788, 2818, 2755, 2822, 2647, 2700, 2843, 2811, 2767, 2772, 2749, 2766, 2768, 2751, 2773, 2818, 2745, 2832, 2855, 2773, 2740, 2887, 2743, 2751, 2884, 2920, 2771, 2794, 2887, 2797, 3036, 2797, 2768, 2803, 2757, 2797, 2792, 2812, 2852, 2769, 3031, 2927, 2854, 2716, 2768, 2985, 2859, 2867, 2843, 2928, 2872, 2748, 2706, 2737, 2887, 2923, 3186, 2853, 2710, 2681, 2941, 2889, 2891, 2825, 2856, 2738, 2854, 2799, 2731, 2789, 2978, 2931, 2767, 2780, 2908, 2710, 2762, 2741, 2938, 2836, 2814, 2808, 2800, 2877, 2819, 2805, 2820, 2877, 2826, 2752, 2773, 2975, 2837, 2865, 2956, 2754, 2788, 2792, 2788, 2783, 2758, 2907, 2811, 2829, 2858, 2906, 2907, 2876, 2905, 2962, 2840, 2925, 2757, 2621, 2839, 2791, 2889, 2834, 2758, 2941, 3052, 2815, 2805, 3009, 2863, 2902, 2714, 2811, 2932],
      "WindowCenter": [749.0, 749.0, 749.0, 750.0, 749.0, 751.0, 750.0, 749.0, 748.0, 750.0, 749.0, 749.0, 749.0, 749.0, 750.0, 747.0, 750.0, 749.0, 748.0, 748.0, 750.0, 751.0, 749.0, 749.0, 748.0, 750.0, 749.0, 750.0, 750.0, 747.0, 746.0, 745.0, 748.0, 749.0, 747.0, 747.0, 747.0, 747.0, 746.0, 746.0, 747.0, 748.0, 748.0, 747.0, 748.0, 749.0, 747.0, 747.0, 749.0, 747.0, 748.0, 749.0, 749.0, 747.0, 747.0, 748.0, 748.0, 750.0, 748.0, 747.0, 748.0, 747.0, 748.0, 748.0, 749.0, 748.0, 747.0, 751.0, 750.0, 749.0, 747.0, 748.0, 750.0, 748.0, 748.0, 748.0, 748.0, 746.0, 743.0, 744.0, 746.0, 747.0, 748.0, 750.0, 747.0, 746.0, 747.0, 750.0, 749.0, 747.0, 745.0, 746.0, 745.0, 747.0, 747.0, 747.0, 748.0, 750.0, 748.0, 746.0, 747.0, 750.0, 747.0, 749.0, 749.0, 751.0, 748.0, 747.0, 747.0, 746.0, 746.0, 745.0, 746.0, 747.0, 746.0, 746.0, 748.0, 748.0, 749.0, 746.0, 746.0, 747.0, 744.0, 745.0, 746.0, 745.0, 746.0, 746.0, 749.0, 747.0, 746.0, 746.0, 747.0, 747.0, 747.0, 747.0, 748.0, 748.0, 748.0, 745.0, 743.0, 746.0, 746.0, 747.0, 746.0, 747.0, 749.0, 748.0, 746.0, 748.0, 749.0, 745.0, 745.0, 744.0, 746.0, 747.0],
      "WindowWidth": [1584.0, 1583.0, 1583.0, 1586.0, 1584.0, 1587.0, 1585.0, 1583.0, 1581.0, 1585.0, 1583.0, 1583.0, 1583.0, 1584.0, 1585.0, 1579.0, 1585.0, 1584.0, 1582.0, 1581.0, 1586.0, 1589.0, 1584.0, 1584.0, 1583.0, 1586.0, 1583.0, 1586.0, 1585.0, 1579.0, 1577.0, 1575.0, 1581.0, 1582.0, 1579.0, 1577.0, 1579.0, 1578.0, 1577.0, 1577.0, 1579.0, 1580.0, 1580.0, 1578.0, 1581.0, 1583.0, 1580.0, 1580.0, 1583.0, 1579.0, 1580.0, 1582.0, 1582.0, 1578.0, 1579.0, 1581.0, 1581.0, 1586.0, 1581.0, 1579.0, 1581.0, 1578.0, 1580.0, 1581.0, 1583.0, 1582.0, 1579.0, 1588.0, 1586.0, 1583.0, 1578.0, 1580.0, 1586.0, 1582.0, 1582.0, 1580.0, 1581.0, 1576.0, 1569.0, 1570.0, 1576.0, 1579.0, 1579.0, 1586.0, 1577.0, 1575.0, 1579.0, 1586.0, 1582.0, 1578.0, 1574.0, 1575.0, 1574.0, 1580.0, 1577.0, 1578.0, 1581.0, 1585.0, 1582.0, 1576.0, 1579.0, 1585.0, 1579.0, 1582.0, 1585.0, 1587.0, 1581.0, 1578.0, 1577.0, 1575.0, 1576.0, 1574.0, 1576.0, 1578.0, 1576.0, 1575.0, 1580.0, 1580.0, 1582.0, 1576.0, 1576.0, 1578.0, 1572.0, 1573.0, 1575.0, 1573.0, 1575.0, 1577.0, 1583.0, 1579.0, 1577.0, 1576.0, 1579.0, 1578.0, 1577.0, 1579.0, 1581.0, 1581.0, 1580.0, 1573.0, 1570.0, 1576.0, 1575.0, 1577.0, 1577.0, 1579.0, 1583.0, 1580.0, 1576.0, 1582.0, 1582.0, 1574.0, 1572.0, 1571.0, 1575.0, 1579.0]
    },
    "slices": {}
  }
}