{"AcquisitionMatrixPE": 100, "AcquisitionNumber": 1, "AcquisitionTime": "14:57:59.475000", "BaseResolution": 100, "BodyPartExamined": "BRAIN", "CoilCombinationMethod": "Sum of Squares", "ConsistencyInfo": "N4_VE11C_LATEST_20160120", "ConversionSoftware": "dcm2niix", "ConversionSoftwareVersion": "v1.0.20211006", "DeviceSerialNumber": "166078", "DwellTime": 8.8e-06, "EchoNumber": 2, "EchoTime": 0.00738, "EchoTime1": 0.00492, "EchoTime2": 0.00738, "FlipAngle": 60, "ImageOrientationPatientDICOM": [1, 4.693e-12, -1.399e-12, -4.897e-12, 0.958323, -0.285688], "ImageOrientationText": "Tra>Cor(-16.6)", "ImageType": ["ORIGINAL", "PRIMARY", "P", "ND", "PHASE"], "ImagingFrequency": 123.258, "InPlanePhaseEncodingDirectionDICOM": "ROW", "InstitutionAddress": "Street StreetNo,Bei Jing,District,CN,ZIP", "InstitutionName": "BeiJing Normal University", "InstitutionalDepartmentName": "Department", "MRAcquisitionType": "2D", "MagneticFieldStrength": 3, "Manufacturer": "Siemens", "ManufacturersModelName": "Prisma", "MatrixCoilMode": "SENSE", "Modality": "MR", "MultibandAccelerationFactor": 2, "PartialFourier": 1, "PatientPosition": "HFS", "PercentPhaseFOV": 100, "PercentSampling": 100, "PhaseEncodingDirection": "i", "PhaseEncodingSteps": 100, "PhaseResolution": 1, "PixelBandwidth": 570, "ProcedureStepDescription": "BNU_P2018_64CH^Zhen.ZongLei", "ProtocolName": "field_mapping_2x2x2", "PulseSequenceDetails": "%SiemensSeq%\\gre_field_mapping", "ReceiveCoilActiveElements": "HC1-7;NC1", "ReceiveCoilName": "HeadNeck_64", "ReconMatrixPE": 100, "RepetitionTime": 0.72, "SAR": 0.115459, "ScanningSequence": "GR", "SequenceName": "*fm2d2r", "SequenceVariant": "SP", "SeriesDescription": "field_mapping_2x2x2", "SeriesNumber": 10, "ShimSetting": [-5468, -11462, -1276, 307, -14, -88, -198, 92], "SliceThickness": 2, "SliceTiming": [0.35938, 0, 0.375, 0.01562, 0.39062, 0.03125, 0.39062, 0.03125, 0.40625, 0.04688, 0.42188, 0.0625, 0.42188, 0.0625, 0.4375, 0.07812, 0.45312, 0.07812, 0.45312, 0.09375, 0.46875, 0.10938, 0.46875, 0.10938, 0.48438, 0.125, 0.5, 0.14062, 0.5, 0.14062, 0.51562, 0.15625, 0.53125, 0.17188, 0.53125, 0.17188, 0.54688, 0.1875, 0.5625, 0.20312, 0.5625, 0.20312, 0.57812, 0.21875, 0.57812, 0.21875, 0.59375, 0.23438, 0.60938, 0.25, 0.60938, 0.25, 0.625, 0.26562, 0.64062, 0.28125, 0.64062, 0.28125, 0.65625, 0.29688, 0.67188, 0.3125, 0.67188, 0.3125, 0.6875, 0.32812, 0.70312, 0.32812, 0.70312, 0.34375, 0.71875, 0.35938], "SoftwareVersions": "syngo MR E11", "SpacingBetweenSlices": 2, "StationName": "AWP166078", "TxRefAmp": 227.833, "dcmmeta_affine": [[-2.0, -9.79399981254625e-12, 0.0, 100.0], [-9.385999789890409e-12, 1.9166451692581177, -0.5713768005371094, -72.54214477539062], [-2.797999896012038e-12, 0.5713767409324646, 1.9166412353515625, -92.93881225585938], [0.0, 0.0, 0.0, 1.0]], "dcmmeta_reorient_transform": [[0.0, -1.0, 0.0, 99.0], [1.0, 0.0, 0.0, 0.0], [0.0, 0.0, -1.0, 71.0], [0.0, 0.0, 0.0, 1.0]], "dcmmeta_shape": [100, 100, 72], "dcmmeta_slice_dim": 2, "dcmmeta_version": 0.6, "global": {"const": {"AcquisitionMatrix": [0, 100, 100, 0], "AcquisitionNumber": 1, "AngioFlag": "N", "BitsAllocated": 16, "BitsStored": 12, "BodyPartExamined": "BRAIN", "Columns": 100, "EchoNumbers": 2, "EchoTime": 7.38, "EchoTrainLength": 0, "FlipAngle": 60.0, "HighBit": 11, "ImageOrientationPatient": [1.0, 4.693e-12, -1.399e-12, -4.897e-12, 0.9583225720929, -0.2856883753625], "ImageType": ["ORIGINAL", "PRIMARY", "P", "ND"], "ImagedNucleus": "1H", "ImagingFrequency": 123.257704, "InPlanePhaseEncodingDirection": "ROW", "MRAcquisitionType": "2D", "MagneticFieldStrength": 3.0, "Manufacturer": "SIEMENS", "ManufacturerModelName": "Prisma", "Modality": "MR", "NumberOfAverages": 1.0, "NumberOfPhaseEncodingSteps": 100, "PercentPhaseFieldOfView": 100.0, "PercentSampling": 100.0, "PerformedProcedureStepStartTime": "141948.320000", "PhotometricInterpretation": "MONOCHROME2", "PixelBandwidth": 570.0, "PixelRepresentation": 0, "PixelSpacing": [2.0, 2.0], "ProtocolName": "field_mapping_2x2x2", "RepetitionTime": 720.0, "RescaleIntercept": -4096.0, "RescaleSlope": 2.0, "RescaleType": "US", "Rows": 100, "SAR": 0.11545902039581, "SamplesPerPixel": 1, "ScanningSequence": "GR", "SequenceName": "*fm2d2r", "SequenceVariant": "SP", "SeriesDescription": "field_mapping_2x2x2", "SeriesNumber": 10, "SeriesTime": "150024.382000", "SliceThickness": 2.0, "SoftwareVersions": "syngo MR E11", "SpacingBetweenSlices": 2.0, "SpecificCharacterSet": "ISO_IR 100", "StudyID": "1", "StudyTime": "141948.217000", "TransmitCoilName": "Body", "VariableFlipAngleFlag": "N", "WindowCenterWidthExplanation": "Algo1", "dBdt": 0.0}, "slices": {"AcquisitionTime": ["145759.475000", "145759.115000", "145759.485000", "145759.125000", "145759.495000", "145759.135000", "145759.505000", "145759.145000", "145759.515000", "145759.155000", "145759.525000", "145759.165000", "145759.535000", "145759.175000", "145759.545000", "145759.185000", "145759.555000", "145759.195000", "145759.565000", "145759.205000", "145759.575000", "145759.215000", "145759.585000", "145759.225000", "145759.595000", "145759.235000", "145759.605000", "145759.245000", "145759.615000", "145759.255000", "145759.625000", "145759.265000", "145759.635000", "145759.275000", "145759.645000", "145759.285000", "145759.655000", "145759.295000", "145759.665000", "145759.305000", "145759.675000", "145759.315000", "145759.685000", "145759.325000", "145759.695000", "145759.335000", "145759.705000", "145759.345000", "145759.715000", "145759.355000", "145759.725000", "145759.365000", "145759.735000", "145759.375000", "145759.745000", "145759.385000", "145759.755000", "145759.395000", "145759.765000", "145759.405000", "145759.775000", "145759.415000", "145759.785000", "145759.425000", "145759.795000", "145759.435000", "145759.805000", "145759.445000", "145759.815000", "145759.455000", "145759.825000", "145759.465000"], "ContentTime": ["150024.465000", "150024.383000", "150024.467000", "150024.385000", "150024.469000", "150024.388000", "150024.471000", "150024.390000", "150024.474000", "150024.392000", "150024.476000", "150024.394000", "150024.478000", "150024.396000", "150024.480000", "150024.397000", "150024.483000", "150024.399000", "150024.485000", "150024.402000", "150024.487000", "150024.404000", "150024.489000", "150024.406000", "150024.492000", "150024.408000", "150024.493000", "150024.409000", "150024.496000", "150024.411000", "150024.499000", "150024.413000", "150024.501000", "150024.415000", "150024.503000", "150024.417000", "150024.505000", "150024.419000", "150024.509000", "150024.421000", "150024.512000", "150024.423000", "150024.514000", "150024.426000", "150024.517000", "150024.428000", "150024.519000", "150024.431000", "150024.521000", "150024.438000", "150024.524000", "150024.440000", "150024.526000", "150024.442000", "150024.528000", "150024.444000", "150024.531000", "150024.446000", "150024.533000", "150024.449000", "150024.535000", "150024.451000", "150024.537000", "150024.453000", "150024.539000", "150024.455000", "150024.541000", "150024.458000", "150024.543000", "150024.460000", "150024.545000", "150024.462000"], "CsaImage.GSWDDataType": ["measured", "predicted", "measured", "predicted", "measured", "predicted", "measured", "predicted", "measured", "predicted", "measured", "predicted", "measured", "predicted", "measured", "predicted", "measured", "predicted", "measured", "predicted", "measured", "predicted", "measured", "predicted", "measured", "predicted", "measured", "predicted", "measured", "predicted", "measured", "predicted", "measured", "predicted", "measured", "predicted", "measured", "predicted", "measured", "predicted", "measured", "predicted", "measured", "predicted", "measured", "predicted", "measured", "predicted", "measured", "predicted", "measured", "predicted", "measured", "predicted", "measured", "predicted", "measured", "predicted", "measured", "predicted", "measured", "measured", "measured", "measured", "measured", "measured", "measured", "measured", "measured", "measured", "measured", "measured"], "CsaImage.ICE_Dims": ["X_2_1_1_1_1_1_37_1_1_1_1_189", "X_2_1_1_1_1_1_1_1_1_2_1_189", "X_2_1_1_1_1_1_38_1_1_3_1_189", "X_2_1_1_1_1_1_2_1_1_4_1_189", "X_2_1_1_1_1_1_39_1_1_5_1_189", "X_2_1_1_1_1_1_3_1_1_6_1_189", "X_2_1_1_1_1_1_40_1_1_7_1_189", "X_2_1_1_1_1_1_4_1_1_8_1_189", "X_2_1_1_1_1_1_41_1_1_9_1_189", "X_2_1_1_1_1_1_5_1_1_10_1_189", "X_2_1_1_1_1_1_42_1_1_11_1_189", "X_2_1_1_1_1_1_6_1_1_12_1_189", "X_2_1_1_1_1_1_43_1_1_13_1_189", "X_2_1_1_1_1_1_7_1_1_14_1_189", "X_2_1_1_1_1_1_44_1_1_15_1_189", "X_2_1_1_1_1_1_8_1_1_16_1_189", "X_2_1_1_1_1_1_45_1_1_17_1_189", "X_2_1_1_1_1_1_9_1_1_18_1_189", "X_2_1_1_1_1_1_46_1_1_19_1_189", "X_2_1_1_1_1_1_10_1_1_20_1_189", "X_2_1_1_1_1_1_47_1_1_21_1_189", "X_2_1_1_1_1_1_11_1_1_22_1_189", "X_2_1_1_1_1_1_48_1_1_23_1_189", "X_2_1_1_1_1_1_12_1_1_24_1_189", "X_2_1_1_1_1_1_49_1_1_25_1_189", "X_2_1_1_1_1_1_13_1_1_26_1_189", "X_2_1_1_1_1_1_50_1_1_27_1_189", "X_2_1_1_1_1_1_14_1_1_28_1_189", "X_2_1_1_1_1_1_51_1_1_29_1_189", "X_2_1_1_1_1_1_15_1_1_30_1_189", "X_2_1_1_1_1_1_52_1_1_31_1_189", "X_2_1_1_1_1_1_16_1_1_32_1_189", "X_2_1_1_1_1_1_53_1_1_33_1_189", "X_2_1_1_1_1_1_17_1_1_34_1_189", "X_2_1_1_1_1_1_54_1_1_35_1_189", "X_2_1_1_1_1_1_18_1_1_36_1_189", "X_2_1_1_1_1_1_55_1_1_37_1_189", "X_2_1_1_1_1_1_19_1_1_38_1_189", "X_2_1_1_1_1_1_56_1_1_39_1_189", "X_2_1_1_1_1_1_20_1_1_40_1_189", "X_2_1_1_1_1_1_57_1_1_41_1_189", "X_2_1_1_1_1_1_21_1_1_42_1_189", "X_2_1_1_1_1_1_58_1_1_43_1_189", "X_2_1_1_1_1_1_22_1_1_44_1_189", "X_2_1_1_1_1_1_59_1_1_45_1_189", "X_2_1_1_1_1_1_23_1_1_46_1_189", "X_2_1_1_1_1_1_60_1_1_47_1_189", "X_2_1_1_1_1_1_24_1_1_48_1_189", "X_2_1_1_1_1_1_61_1_1_49_1_189", "X_2_1_1_1_1_1_25_1_1_50_1_189", "X_2_1_1_1_1_1_62_1_1_51_1_189", "X_2_1_1_1_1_1_26_1_1_52_1_189", "X_2_1_1_1_1_1_63_1_1_53_1_189", "X_2_1_1_1_1_1_27_1_1_54_1_189", "X_2_1_1_1_1_1_64_1_1_55_1_189", "X_2_1_1_1_1_1_28_1_1_56_1_189", "X_2_1_1_1_1_1_65_1_1_57_1_189", "X_2_1_1_1_1_1_29_1_1_58_1_189", "X_2_1_1_1_1_1_66_1_1_59_1_189", "X_2_1_1_1_1_1_30_1_1_60_1_189", "X_2_1_1_1_1_1_67_1_1_61_1_189", "X_2_1_1_1_1_1_31_1_1_62_1_189", "X_2_1_1_1_1_1_68_1_1_63_1_189", "X_2_1_1_1_1_1_32_1_1_64_1_189", "X_2_1_1_1_1_1_69_1_1_65_1_189", "X_2_1_1_1_1_1_33_1_1_66_1_189", "X_2_1_1_1_1_1_70_1_1_67_1_189", "X_2_1_1_1_1_1_34_1_1_68_1_189", "X_2_1_1_1_1_1_71_1_1_69_1_189", "X_2_1_1_1_1_1_35_1_1_70_1_189", "X_2_1_1_1_1_1_72_1_1_71_1_189", "X_2_1_1_1_1_1_36_1_1_72_1_189"], "CsaImage.ProtocolSliceNumber": [0, 1, 2, 3, 4, 5, 6, 7, 8, 9, 10, 11, 12, 13, 14, 15, 16, 17, 18, 19, 20, 21, 22, 23, 24, 25, 26, 27, 28, 29, 30, 31, 32, 33, 34, 35, 36, 37, 38, 39, 40, 41, 42, 43, 44, 45, 46, 47, 48, 49, 50, 51, 52, 53, 54, 55, 56, 57, 58, 59, 60, 61, 62, 63, 64, 65, 66, 67, 68, 69, 70, 71], "CsaImage.RFSWDDataType": ["measured", "predicted", "measured", "predicted", "measured", "predicted", "measured", "predicted", "measured", "predicted", "measured", "predicted", "measured", "predicted", "measured", "predicted", "measured", "predicted", "measured", "predicted", "measured", "predicted", "measured", "predicted", "measured", "predicted", "measured", "predicted", "measured", "predicted", "measured", "predicted", "measured", "predicted", "measured", "predicted", "measured", "predicted", "measured", "predicted", "measured", "predicted", "measured", "predicted", "measured", "predicted", "measured", "predicted", "measured", "predicted", "measured", "predicted", "measured", "predicted", "measured", "predicted", "measured", "measured", "measured", "measured", "measured", "measured", "measured", "measured", "measured", "measured", "measured", "measured", "measured", "measured", "measured", "measured"], "CsaImage.SlicePosition_PCS": [[-100.0, -117.20571989, -36.37278997], [-100.0, -116.63434309, -34.45614492], [-100.0, -116.06296629, -32.53949987], [-100.0, -115.49158949, -30.62285482], [-100.0, -114.92021268, -28.70620977], [-100.0, -114.34883588, -26.78956472], [-100.0, -113.77745908, -24.87291967], [-100.0, -113.20608228, -22.95627462], [-100.0, -112.63470548, -21.03962957], [-100.0, -112.06332868, -19.12298452], [-100.0, -111.49195188, -17.20633947], [-100.0, -110.92057603, -15.28969442], [-100.0, -110.34919923, -13.37304937], [-100.0, -109.77782243, -11.45640432], [-100.0, -109.20644563, -9.53975927], [-100.0, -108.63506883, -7.62311422], [-100.0, -108.06369203, -5.70646917], [-100.0, -107.49231523, -3.78982412], [-100.0, -106.92093843, -1.87317907], [-100.0, -106.34956163, 0.04346598], [-100.0, -105.77818483, 1.96011103], [-100.0, -105.20680803, 3.87675608], [-100.0, -104.63543123, 5.79340114], [-100.0, -104.06405443, 7.71004619], [-100.0, -103.4926781, 9.62669124], [-100.0, -102.9213013, 11.54333629], [-100.0, -102.3499245, 13.45998229], [-100.0, -101.7785477, 15.37662734], [-100.0, -101.2071709, 17.29327239], [-100.0, -100.63579458, 19.20991744], [-100.0, -100.06441778, 21.12656297], [-100.0, -99.49304098, 23.04320802], [-100.0, -98.92166418, 24.95985307], [-100.0, -98.35028738, 26.87649824], [-100.0, -97.7789107, 28.79314342], [-100.0, -97.20753401, 30.70978845], [-100.0, -96.63615721, 32.62643374], [-100.0, -96.06478049, 34.54307879], [-100.0, -95.49340376, 36.45972384], [-100.0, -94.92202699, 38.37636889], [-100.0, -94.35065025, 40.29301394], [-100.0, -93.77927345, 42.20965899], [-100.0, -93.20789689, 44.126305], [-100.0, -92.63652009, 46.04294909], [-100.0, -92.06514329, 47.95959414], [-100.0, -91.49376672, 49.87623919], [-100.0, -90.92238992, 51.79288615], [-100.0, -90.35101312, 53.7095312], [-100.0, -89.77963632, 55.62617625], [-100.0, -89.20825952, 57.5428213], [-100.0, -88.63688272, 59.45946635], [-100.0, -88.0655064, 61.3761114], [-100.0, -87.49412912, 63.29275645], [-100.0, -86.92275232, 65.2094015], [-100.0, -86.35137552, 67.12604655], [-100.0, -85.77999967, 69.0426916], [-100.0, -85.20862287, 70.95933665], [-100.0, -84.63724607, 72.8759817], [-100.0, -84.06586927, 74.79262675], [-100.0, -83.49449247, 76.7092718], [-100.0, -82.92311567, 78.62591685], [-100.0, -82.35173887, 80.5425619], [-100.0, -81.78036207, 82.45920695], [-100.0, -81.20898527, 84.375852], [-100.0, -80.63760847, 86.29249705], [-100.0, -80.06623167, 88.2091421], [-100.0, -79.49485487, 90.12578715], [-100.0, -78.92347807, 92.0424322], [-100.0, -78.35210126, 93.95908107], [-100.0, -77.78072446, 95.8757223], [-100.0, -77.20934766, 97.79237117], [-100.0, -76.63797086, 99.7090124]], "CsaImage.TimeAfterStart": [1.0825, 0.7225, 1.0925, 0.7325, 1.1025, 0.7425, 1.1125, 0.7525, 1.1225, 0.7625, 1.1325, 0.7725, 1.1425, 0.7825, 1.1525, 0.7925, 1.1625, 0.8025, 1.1725, 0.8125, 1.1825, 0.8225, 1.1925, 0.8325, 1.2025, 0.8425, 1.2125, 0.8525, 1.2225, 0.8625, 1.2325, 0.8725, 1.2425, 0.8825, 1.2525, 0.8925, 1.2625, 0.9025, 1.2725, 0.9125, 1.2825, 0.9225, 1.2925, 0.9325, 1.3025, 0.9425, 1.3125, 0.9525, 1.3225, 0.9625, 1.3325, 0.9725, 1.3425, 0.9825, 1.3525, 0.9925, 1.3625, 1.0025, 1.3725, 1.0125, 1.3825, 1.0225, 1.3925, 1.0325, 1.4025, 1.0425, 1.4125, 1.0525, 1.4225, 1.0625, 1.4325, 1.0725], "ImagePositionPatient": [[-99.99999999951, -117.20571988676, -36.372789966054], [-99.99999999951, -116.63434308622, -34.456144916006], [-99.99999999951, -116.06296628569, -32.539499865957], [-99.99999999951, -115.49158948515, -30.622854815908], [-99.99999999951, -114.92021268461, -28.706209765859], [-99.99999999951, -114.34883588408, -26.78956471581], [-99.99999999951, -113.77745908354, -24.872919665762], [-99.99999999951, -113.206082283, -22.956274615713], [-99.99999999951, -112.63470548246, -21.039629565664], [-99.99999999951, -112.06332868193, -19.122984515615], [-99.99999999951, -111.49195188139, -17.206339465566], [-99.99999999951, -110.92057603453, -15.289694415517], [-99.99999999951, -110.34919923399, -13.373049365469], [-99.99999999951, -109.77782243345, -11.45640431542], [-99.99999999951, -109.20644563292, -9.5397592653709], [-99.99999999951, -108.63506883238, -7.6231142153221], [-99.99999999951, -108.06369203184, -5.7064691652733], [-99.99999999951, -107.4923152313, -3.7898241152244], [-99.99999999951, -106.92093843077, -1.8731790651756], [-99.99999999951, -106.34956163023, 0.04346598487323], [-99.99999999951, -105.77818482969, 1.9601110349221], [-99.99999999951, -105.20680802916, 3.8767560849709], [-99.99999999951, -104.63543122862, 5.7934011350197], [-99.99999999951, -104.06405442808, 7.7100461850685], [-99.99999999951, -103.49267810438, 9.6266912351174], [-99.99999999951, -102.92130130384, 11.543336285166], [-99.99999999951, -102.34992450331, 13.459982288889], [-99.99999999951, -101.77854770277, 15.376627338938], [-99.99999999951, -101.20717090223, 17.293272388987], [-99.99999999951, -100.63579457853, 19.209917439036], [-99.99999999951, -100.064417778, 21.126562965922], [-99.99999999951, -99.493040977459, 23.043208015971], [-99.99999999951, -98.921664176922, 24.959853066019], [-99.99999999951, -98.350287376385, 26.876498235278], [-99.99999999951, -97.778910695057, 28.793143419437], [-99.99999999951, -97.20753401373, 30.709788454585], [-99.99999999951, -96.636157213193, 32.626433743052], [-99.99999999951, -96.064780487161, 34.543078793101], [-99.99999999951, -95.49340376113, 36.45972384315], [-99.99999999951, -94.922026990395, 38.376368893198], [-99.99999999951, -94.350650249463, 40.293013943247], [-99.99999999951, -93.779273448926, 42.209658993296], [-99.99999999951, -93.207896886807, 44.126304997019], [-99.99999999951, -92.63652008627, 46.042949093394], [-99.99999999951, -92.065143285733, 47.959594143443], [-99.99999999951, -91.493766723614, 49.876239193491], [-99.99999999951, -90.922389923077, 51.792886150889], [-99.99999999951, -90.35101312254, 53.709531200938], [-99.99999999951, -89.779636322003, 55.626176250987], [-99.99999999951, -89.208259521466, 57.542821301035], [-99.99999999951, -88.636882720929, 59.459466351084], [-99.99999999951, -88.065506397229, 61.376111401133], [-99.99999999951, -87.494129119855, 63.292756451182], [-99.99999999951, -86.922752319317, 65.209401501231], [-99.99999999951, -86.35137551878, 67.126046551279], [-99.99999999951, -85.779999671917, 69.042691601328], [-99.99999999951, -85.20862287138, 70.959336651377], [-99.99999999951, -84.637246070843, 72.875981701426], [-99.99999999951, -84.065869270306, 74.792626751475], [-99.99999999951, -83.494492469769, 76.709271801524], [-99.99999999951, -82.923115669232, 78.625916851572], [-99.99999999951, -82.351738868695, 80.542561901621], [-99.99999999951, -81.780362068158, 82.45920695167], [-99.99999999951, -81.208985267621, 84.375852001719], [-99.99999999951, -80.637608467084, 86.292497051768], [-99.99999999951, -80.066231666546, 88.209142101817], [-99.99999999951, -79.494854866009, 90.125787151865], [-99.99999999951, -78.923478065472, 92.042432201914], [-99.99999999951, -78.352101264935, 93.95908106666], [-99.99999999951, -77.780724464398, 95.875722302012], [-99.99999999951, -77.209347663861, 97.792371166758], [-99.99999999951, -76.637970863324, 99.70901240211]], "InstanceCreationTime": ["150024.465000", "150024.383000", "150024.467000", "150024.385000", "150024.469000", "150024.388000", "150024.471000", "150024.390000", "150024.474000", "150024.392000", "150024.476000", "150024.394000", "150024.478000", "150024.396000", "150024.480000", "150024.397000", "150024.483000", "150024.399000", "150024.485000", "150024.402000", "150024.487000", "150024.404000", "150024.489000", "150024.406000", "150024.492000", "150024.408000", "150024.493000", "150024.409000", "150024.496000", "150024.411000", "150024.499000", "150024.413000", "150024.501000", "150024.415000", "150024.503000", "150024.417000", "150024.505000", "150024.419000", "150024.509000", "150024.421000", "150024.512000", "150024.423000", "150024.514000", "150024.426000", "150024.517000", "150024.428000", "150024.519000", "150024.431000", "150024.521000", "150024.438000", "150024.524000", "150024.440000", "150024.526000", "150024.442000", "150024.528000", "150024.444000", "150024.531000", "150024.446000", "150024.533000", "150024.449000", "150024.535000", "150024.451000", "150024.537000", "150024.453000", "150024.539000", "150024.455000", "150024.541000", "150024.458000", "150024.543000", "150024.460000", "150024.545000", "150024.462000"], "InstanceNumber": [1, 2, 3, 4, 5, 6, 7, 8, 9, 10, 11, 12, 13, 14, 15, 16, 17, 18, 19, 20, 21, 22, 23, 24, 25, 26, 27, 28, 29, 30, 31, 32, 33, 34, 35, 36, 37, 38, 39, 40, 41, 42, 43, 44, 45, 46, 47, 48, 49, 50, 51, 52, 53, 54, 55, 56, 57, 58, 59, 60, 61, 62, 63, 64, 65, 66, 67, 68, 69, 70, 71, 72], "LargestImagePixelValue": [4095, 4094, 4095, 4094, 4095, 4093, 4092, 4093, 4090, 4094, 4094, 4095, 4095, 4094, 4094, 4094, 4093, 4092, 4093, 4085, 4089, 4087, 4089, 4094, 4093, 4094, 4093, 4092, 4086, 4091, 4094, 4090, 4087, 4091, 4092, 4092, 4090, 4092, 4094, 4091, 4091, 4084, 4094, 4094, 4088, 4091, 4086, 4087, 4093, 4093, 4089, 4094, 4094, 4092, 4095, 4092, 4094, 4095, 4094, 4089, 4095, 4093, 4094, 4092, 4093, 4095, 4094, 4095, 4095, 4095, 4095, 4094], "SliceLocation": [-68.341177332102, -66.341177408085, -64.341177484067, -62.34117756005, -60.341177636033, -58.341177712016, -56.341177787999, -54.341177863982, -52.341177939964, -50.341178015947, -48.34117809193, -46.341178440367, -44.341178516349, -42.341178592332, -40.341178668315, -38.341178744298, -36.341178820281, -34.341178896264, -32.341178972246, -30.341179048229, -28.341179124212, -26.341179200195, -24.341179276178, -22.34117935216, -20.34117956437, -18.341179640353, -16.341178802408, -14.341178878391, -12.341178954374, -10.341179166584, -8.3411787856025, -6.3411788615853, -4.3411789375682, -2.34117889931, -0.3411788808285, 1.6588209948518, 3.6588211473509, 5.6588210500826, 7.6588209528144, 9.6588208683174, 11.658820775306, 13.658820699323, 15.658821469155, 17.658820479244, 19.658820403261, 21.658820259165, 23.658822011038, 25.658821935055, 27.658821859072, 29.658821783089, 31.658821707106, 33.658821494897, 35.658821555141, 37.658821479158, 39.658821403175, 41.658821054739, 43.658820978756, 45.658820902773, 47.65882082679, 49.658820750807, 51.658820674824, 53.658820598842, 55.658820522859, 57.658820446876, 59.658820370893, 61.65882029491, 63.658820218927, 65.658820142945, 67.658823722672, 69.658819990979, 71.658823570707, 73.658819839013], "SmallestImagePixelValue": [0, 0, 0, 0, 0, 1, 1, 0, 0, 0, 0, 0, 0, 0, 0, 0, 0, 1, 0, 0, 7, 5, 0, 1, 4, 1, 0, 6, 8, 3, 0, 0, 3, 2, 0, 2, 3, 4, 6, 1, 3, 2, 2, 0, 2, 3, 1, 1, 0, 7, 2, 4, 0, 2, 5, 0, 0, 1, 0, 0, 0, 1, 0, 0, 0, 0, 0, 0, 0, 0, 0, 0], "WindowCenter": [-314.0, -368.0, -388.0, -422.0, -434.0, -364.0, -350.0, -288.0, -252.0, -190.0, -214.0, -210.0, -198.0, -146.0, -170.0, -226.0, -272.0, -278.0, -268.0, -274.0, -248.0, -254.0, -230.0, -184.0, -156.0, -140.0, -120.0, -90.0, -64.0, -58.0, -62.0, -100.0, -108.0, -122.0, -128.0, -120.0, -150.0, -164.0, -250.0, -246.0, -232.0, -94.0, -90.0, -72.0, -184.0, -166.0, -86.0, -162.0, -24.0, -50.0, -58.0, -94.0, -88.0, -94.0, -124.0, -128.0, -142.0, -104.0, -70.0, -80.0, -78.0, -82.0, -98.0, -94.0, -104.0, -170.0, -148.0, -180.0, -180.0, -198.0, -208.0, -328.0], "WindowWidth": [6100.0, 6074.0, 6054.0, 6048.0, 6062.0, 6058.0, 6124.0, 6112.0, 6108.0, 6164.0, 6158.0, 6204.0, 6224.0, 6306.0, 6310.0, 6228.0, 6148.0, 6114.0, 6094.0, 6034.0, 5952.0, 5894.0, 5854.0, 5846.0, 5800.0, 5756.0, 5710.0, 5704.0, 5618.0, 5630.0, 5594.0, 5502.0, 5532.0, 5524.0, 5400.0, 5360.0, 5166.0, 5052.0, 4604.0, 4600.0, 4592.0, 5222.0, 5166.0, 5122.0, 4568.0, 4558.0, 4760.0, 4564.0, 5122.0, 5092.0, 5160.0, 5112.0, 5290.0, 5344.0, 5264.0, 5296.0, 5226.0, 5432.0, 5550.0, 5568.0, 5624.0, 5634.0, 5718.0, 5764.0, 5850.0, 5864.0, 5862.0, 5934.0, 6116.0, 6192.0, 6168.0, 6034.0]}}, "IntendedFor": ["ses-action01/func/sub-20_ses-action01_task-action_run-10_bold.nii.gz", "ses-action01/func/sub-20_ses-action01_task-action_run-02_bold.nii.gz", "ses-action01/func/sub-20_ses-action01_task-action_run-12_bold.nii.gz", "ses-action01/func/sub-20_ses-action01_task-action_run-04_bold.nii.gz", "ses-action01/func/sub-20_ses-action01_task-action_run-06_bold.nii.gz", "ses-action01/func/sub-20_ses-action01_task-action_run-09_bold.nii.gz", "ses-action01/func/sub-20_ses-action01_task-action_run-05_bold.nii.gz", "ses-action01/func/sub-20_ses-action01_task-action_run-08_bold.nii.gz", "ses-action01/func/sub-20_ses-action01_task-action_run-07_bold.nii.gz", "ses-action01/func/sub-20_ses-action01_task-action_run-01_bold.nii.gz", "ses-action01/func/sub-20_ses-action01_task-action_run-11_bold.nii.gz", "ses-action01/func/sub-20_ses-action01_task-action_run-03_bold.nii.gz"]}