{
  "AcquisitionMatrixPE": 100,
  "AcquisitionNumber": 1,
  "AcquisitionTime": "15:25:48.437500",
  "BandwidthPerPixelPhaseEncode": 18.519,
  "BaseResolution": 100,
  "BodyPartExamined": "BRAIN",
  "CoilCombinationMethod": "Sum of Squares",
  "ConsistencyInfo": "N4_VE11C_LATEST_20160120",
  "ConversionSoftware": "dcm2niix",
  "ConversionSoftwareVersion": "v1.0.20211006",
  "DerivedVendorReportedEchoSpacing": 0.000539986,
  "DeviceSerialNumber": "166078",
  "DwellTime": 2.1e-06,
  "EchoTime": 0.034,
  "EchoTrainLength": 100,
  "EffectiveEchoSpacing": 0.000539986,
  "FlipAngle": 90,
  "ImageOrientationPatientDICOM": [1, 4.13517e-05, 0.000327312, -3.90952e-08, 0.992129, -0.125223],
  "ImageOrientationText": "Tra>Cor(-7.2)>Sag(0.0)",
  "ImageType": [
    "ORIGINAL",
    "PRIMARY",
    "M",
    "ND",
    "MOSAIC"
],
  "ImagingFrequency": 123.258,
  "InPlanePhaseEncodingDirectionDICOM": "COL",
  "InstitutionAddress": "Street StreetNo,Bei Jing,District,CN,ZIP",
  "InstitutionName": "BeiJing Normal University",
  "InstitutionalDepartmentName": "Department",
  "MRAcquisitionType": "2D",
  "MagneticFieldStrength": 3,
  "Manufacturer": "Siemens",
  "ManufacturersModelName": "Prisma",
  "Modality": "MR",
  "MultibandAccelerationFactor": 3,
  "PartialFourier": 1,
  "PatientPosition": "HFS",
  "PercentPhaseFOV": 100,
  "PercentSampling": 100,
  "PhaseEncodingDirection": "j-",
  "PhaseEncodingSteps": 100,
  "PhaseResolution": 1,
  "PixelBandwidth": 2380,
  "ProcedureStepDescription": "BNU_P2018_64CH^Zhen.ZongLei",
  "ProtocolName": "bold_100x100_s3_2x2x2_static_156",
  "PulseSequenceDetails": "%SiemensSeq%\\ep2d_bold",
  "ReceiveCoilActiveElements": "HC1-7;NC1",
  "ReceiveCoilName": "HeadNeck_64",
  "ReconMatrixPE": 100,
  "RefLinesPE": 32,
  "RepetitionTime": 2,
  "SAR": 0.080879,
  "ScanOptions": "FS",
  "ScanningSequence": "EP",
  "SequenceName": "*epfid2d1_100",
  "SequenceVariant": "SK",
  "SeriesDescription": "bold_100x100_s3_2x2x2_static_156",
  "SeriesNumber": 15,
  "ShimSetting": [-5474, -11505, -1255, 265, -37, -215, -59, 21],
  "SliceThickness": 2,
  "SliceTiming": [1.485, 0, 0.99, 0.0825, 1.0725, 0.165, 1.155, 0.2475, 1.2375, 0.33, 1.32, 0.4125, 1.4025, 0.5775, 1.5675, 0.66, 1.65, 0.7425, 1.7325, 0.825, 1.815, 0.9075, 1.8975, 0.495, 1.485, 0, 0.99, 0.0825, 1.0725, 0.165, 1.155, 0.2475, 1.2375, 0.33, 1.32, 0.4125, 1.4025, 0.5775, 1.5675, 0.66, 1.65, 0.7425, 1.7325, 0.825, 1.815, 0.9075, 1.8975, 0.495, 1.485, 0, 0.99, 0.0825, 1.0725, 0.165, 1.155, 0.2475, 1.2375, 0.33, 1.32, 0.4125, 1.4025, 0.5775, 1.5675, 0.66, 1.65, 0.7425, 1.7325, 0.825, 1.815, 0.9075, 1.8975, 0.495],
  "SoftwareVersions": "syngo MR E11",
  "SpacingBetweenSlices": 2,
  "StationName": "AWP166078",
  "TaskName": "action",
  "TotalReadoutTime": 0.0534586,
  "TxRefAmp": 252.632,
  "dcmmeta_affine": [
    [-1.9999998807907104, -7.81903892743685e-08, 0.0006598280742764473, 100.4209213256836],
    [-8.270342368632555e-05, 1.9842572212219238, -0.2504465878009796, -84.93669891357422],
    [0.000654624484013766, 0.2504465878009796, 1.9842571020126343, -77.17183685302734],
    [0.0, 0.0, 0.0, 1.0]
],
  "dcmmeta_reorient_transform": [
    [0.0, -1.0, 0.0, 99.0],
    [1.0, 0.0, 0.0, 0.0],
    [0.0, 0.0, 1.0, 0.0],
    [0.0, 0.0, 0.0, 1.0]
],
  "dcmmeta_shape": [100, 100, 72, 156],
  "dcmmeta_slice_dim": 2,
  "dcmmeta_version": 0.6,
  "global": {
    "const": {
      "AcquisitionMatrix": [100, 0, 0, 100],
      "AngioFlag": "N",
      "BitsAllocated": 16,
      "BitsStored": 12,
      "BodyPartExamined": "BRAIN",
      "Columns": 900,
      "EchoNumbers": 1,
      "EchoTime": 34.0,
      "EchoTrainLength": 100,
      "FlipAngle": 90.0,
      "HighBit": 11,
      "ImageOrientationPatient": [0.99999994557837, 4.135171023e-05, 0.00032731223654, -3.9095196e-08, 0.99212858292972, -0.1252233002834],
      "ImagePositionPatient": [-900.42084237595, -905.24070953991, 47.539163595227],
      "ImageType": [
        "ORIGINAL",
        "PRIMARY",
        "M",
        "ND",
        "MOSAIC"
],
      "ImagedNucleus": "1H",
      "ImagingFrequency": 123.257739,
      "InPlanePhaseEncodingDirection": "COL",
      "MRAcquisitionType": "2D",
      "MagneticFieldStrength": 3.0,
      "Manufacturer": "SIEMENS",
      "ManufacturerModelName": "Prisma",
      "Modality": "MR",
      "NumberOfAverages": 1.0,
      "NumberOfPhaseEncodingSteps": 100,
      "PercentPhaseFieldOfView": 100.0,
      "PercentSampling": 100.0,
      "PerformedProcedureStepStartTime": "142104.898000",
      "PhotometricInterpretation": "MONOCHROME2",
      "PixelBandwidth": 2380.0,
      "PixelRepresentation": 0,
      "PixelSpacing": [2.0, 2.0],
      "ProtocolName": "bold_100x100_s3_2x2x2_static_156",
      "RepetitionTime": 2000.0,
      "Rows": 900,
      "SAR": 0.0808789478676,
      "SamplesPerPixel": 1,
      "ScanOptions": "FS",
      "ScanningSequence": "EP",
      "SequenceName": "*epfid2d1_100",
      "SequenceVariant": "SK",
      "SeriesDescription": "bold_100x100_s3_2x2x2_static_156",
      "SeriesNumber": 15,
      "SeriesTime": "152550.616000",
      "SliceLocation": -65.895201111612,
      "SliceThickness": 2.0,
      "SmallestImagePixelValue": 0,
      "SoftwareVersions": "syngo MR E11",
      "SpacingBetweenSlices": 2.0000000622757,
      "SpecificCharacterSet": "ISO_IR 100",
      "StudyID": "1",
      "StudyTime": "142104.807000",
      "TransmitCoilName": "Body",
      "VariableFlipAngleFlag": "N",
      "WindowCenterWidthExplanation": "Algo1",
      "dBdt": 0.0},
    "slices": {}
  },
  "time": {
    "samples": {
      "AcquisitionNumber": [1, 2, 3, 4, 5, 6, 7, 8, 9, 10, 11, 12, 13, 14, 15, 16, 17, 18, 19, 20, 21, 22, 23, 24, 25, 26, 27, 28, 29, 30, 31, 32, 33, 34, 35, 36, 37, 38, 39, 40, 41, 42, 43, 44, 45, 46, 47, 48, 49, 50, 51, 52, 53, 54, 55, 56, 57, 58, 59, 60, 61, 62, 63, 64, 65, 66, 67, 68, 69, 70, 71, 72, 73, 74, 75, 76, 77, 78, 79, 80, 81, 82, 83, 84, 85, 86, 87, 88, 89, 90, 91, 92, 93, 94, 95, 96, 97, 98, 99, 100, 101, 102, 103, 104, 105, 106, 107, 108, 109, 110, 111, 112, 113, 114, 115, 116, 117, 118, 119, 120, 121, 122, 123, 124, 125, 126, 127, 128, 129, 130, 131, 132, 133, 134, 135, 136, 137, 138, 139, 140, 141, 142, 143, 144, 145, 146, 147, 148, 149, 150, 151, 152, 153, 154, 155, 156],
      "AcquisitionTime": ["152548.437500", "152550.437500", "152552.437500", "152554.437500", "152556.437500", "152558.437500", "152600.437500", "152602.437500", "152604.437500", "152606.437500", "152608.437500", "152610.437500", "152612.437500", "152614.437500", "152616.437500", "152618.437500", "152620.437500", "152622.437500", "152624.437500", "152626.437500", "152628.437500", "152630.437500", "152632.437500", "152634.437500", "152636.437500", "152638.437500", "152640.437500", "152642.437500", "152644.437500", "152646.437500", "152648.437500", "152650.437500", "152652.437500", "152654.437500", "152656.437500", "152658.437500", "152700.437500", "152702.437500", "152704.437500", "152706.437500", "152708.437500", "152710.437500", "152712.437500", "152714.437500", "152716.437500", "152718.437500", "152720.437500", "152722.437500", "152724.437500", "152726.437500", "152728.437500", "152730.437500", "152732.437500", "152734.437500", "152736.437500", "152738.437500", "152740.437500", "152742.437500", "152744.437500", "152746.437500", "152748.437500", "152750.437500", "152752.437500", "152754.437500", "152756.437500", "152758.437500", "152800.437500", "152802.437500", "152804.437500", "152806.437500", "152808.437500", "152810.437500", "152812.437500", "152814.437500", "152816.437500", "152818.437500", "152820.437500", "152822.437500", "152824.437500", "152826.437500", "152828.437500", "152830.437500", "152832.437500", "152834.437500", "152836.437500", "152838.437500", "152840.437500", "152842.437500", "152844.437500", "152846.437500", "152848.437500", "152850.437500", "152852.437500", "152854.437500", "152856.437500", "152858.437500", "152900.437500", "152902.437500", "152904.437500", "152906.437500", "152908.437500", "152910.437500", "152912.437500", "152914.437500", "152916.437500", "152918.437500", "152920.437500", "152922.437500", "152924.437500", "152926.437500", "152928.437500", "152930.437500", "152932.437500", "152934.437500", "152936.437500", "152938.437500", "152940.437500", "152942.437500", "152944.437500", "152946.437500", "152948.437500", "152950.437500", "152952.437500", "152954.437500", "152956.437500", "152958.437500", "153000.437500", "153002.437500", "153004.437500", "153006.437500", "153008.437500", "153010.437500", "153012.437500", "153014.437500", "153016.437500", "153018.437500", "153020.437500", "153022.437500", "153024.437500", "153026.437500", "153028.437500", "153030.437500", "153032.437500", "153034.437500", "153036.437500", "153038.437500", "153040.437500", "153042.437500", "153044.437500", "153046.437500", "153048.437500", "153050.437500", "153052.437500", "153054.437500", "153056.437500", "153058.437500"],
      "ContentTime": ["152550.620000", "152552.115000", "152554.115000", "152556.114000", "152558.114000", "152600.115000", "152602.116000", "152604.115000", "152606.116000", "152608.116000", "152610.114000", "152612.115000", "152614.115000", "152616.114000", "152618.115000", "152620.116000", "152622.115000", "152624.115000", "152626.114000", "152628.114000", "152630.114000", "152632.114000", "152634.114000", "152636.116000", "152638.115000", "152640.115000", "152642.116000", "152644.115000", "152646.115000", "152648.114000", "152650.115000", "152652.115000", "152654.115000", "152656.116000", "152658.116000", "152700.116000", "152702.115000", "152704.115000", "152706.114000", "152708.114000", "152710.116000", "152712.115000", "152714.115000", "152716.116000", "152718.115000", "152720.114000", "152722.114000", "152724.115000", "152726.115000", "152728.616000", "152730.116000", "152732.116000", "152734.116000", "152736.115000", "152738.114000", "152740.115000", "152742.114000", "152744.114000", "152746.116000", "152748.116000", "152750.116000", "152752.115000", "152754.115000", "152756.114000", "152758.114000", "152800.115000", "152802.115000", "152804.116000", "152806.116000", "152808.115000", "152810.116000", "152812.114000", "152814.115000", "152816.114000", "152818.114000", "152820.116000", "152822.115000", "152824.116000", "152826.115000", "152828.116000", "152830.114000", "152832.114000", "152834.114000", "152836.114000", "152838.115000", "152840.115000", "152842.116000", "152844.115000", "152846.114000", "152848.114000", "152850.114000", "152852.114000", "152854.114000", "152856.116000", "152858.116000", "152900.116000", "152902.116000", "152904.114000", "152906.114000", "152908.115000", "152910.115000", "152912.114000", "152914.116000", "152916.116000", "152918.115000", "152920.115000", "152922.115000", "152924.114000", "152926.114000", "152928.614000", "152930.116000", "152932.116000", "152934.116000", "152936.115000", "152938.115000", "152940.114000", "152942.114000", "152944.114000", "152946.115000", "152948.115000", "152950.115000", "152952.116000", "152954.115000", "152956.114000", "152958.614000", "153000.114000", "153002.114000", "153004.114000", "153006.115000", "153008.115000", "153010.115000", "153012.115000", "153014.114000", "153016.115000", "153018.115000", "153020.114000", "153022.115000", "153024.115000", "153026.115000", "153028.116000", "153030.115000", "153032.115000", "153034.114000", "153036.127000", "153038.114000", "153040.116000", "153042.115000", "153044.116000", "153046.116000", "153048.116000", "153050.114000", "153052.114000", "153054.114000", "153056.115000", "153058.116000", "153100.062000"],
      "InstanceCreationTime": ["152550.620000", "152552.115000", "152554.115000", "152556.114000", "152558.114000", "152600.115000", "152602.116000", "152604.115000", "152606.116000", "152608.116000", "152610.114000", "152612.115000", "152614.115000", "152616.114000", "152618.115000", "152620.116000", "152622.115000", "152624.115000", "152626.114000", "152628.114000", "152630.114000", "152632.114000", "152634.114000", "152636.116000", "152638.115000", "152640.115000", "152642.116000", "152644.115000", "152646.115000", "152648.114000", "152650.115000", "152652.115000", "152654.115000", "152656.116000", "152658.116000", "152700.116000", "152702.115000", "152704.115000", "152706.114000", "152708.114000", "152710.116000", "152712.115000", "152714.115000", "152716.116000", "152718.115000", "152720.114000", "152722.114000", "152724.115000", "152726.115000", "152728.616000", "152730.116000", "152732.116000", "152734.116000", "152736.115000", "152738.114000", "152740.115000", "152742.114000", "152744.114000", "152746.116000", "152748.116000", "152750.116000", "152752.115000", "152754.115000", "152756.114000", "152758.114000", "152800.115000", "152802.115000", "152804.116000", "152806.116000", "152808.115000", "152810.116000", "152812.114000", "152814.115000", "152816.114000", "152818.114000", "152820.116000", "152822.115000", "152824.116000", "152826.115000", "152828.116000", "152830.114000", "152832.114000", "152834.114000", "152836.114000", "152838.115000", "152840.115000", "152842.116000", "152844.115000", "152846.114000", "152848.114000", "152850.114000", "152852.114000", "152854.114000", "152856.116000", "152858.116000", "152900.116000", "152902.116000", "152904.114000", "152906.114000", "152908.115000", "152910.115000", "152912.114000", "152914.116000", "152916.116000", "152918.115000", "152920.115000", "152922.115000", "152924.114000", "152926.114000", "152928.614000", "152930.116000", "152932.116000", "152934.116000", "152936.115000", "152938.115000", "152940.114000", "152942.114000", "152944.114000", "152946.115000", "152948.115000", "152950.115000", "152952.116000", "152954.115000", "152956.114000", "152958.614000", "153000.114000", "153002.114000", "153004.114000", "153006.115000", "153008.115000", "153010.115000", "153012.115000", "153014.114000", "153016.115000", "153018.115000", "153020.114000", "153022.115000", "153024.115000", "153026.115000", "153028.116000", "153030.115000", "153032.115000", "153034.114000", "153036.127000", "153038.114000", "153040.116000", "153042.115000", "153044.116000", "153046.116000", "153048.116000", "153050.114000", "153052.114000", "153054.114000", "153056.115000", "153058.116000", "153100.062000"],
      "InstanceNumber": [1, 2, 3, 4, 5, 6, 7, 8, 9, 10, 11, 12, 13, 14, 15, 16, 17, 18, 19, 20, 21, 22, 23, 24, 25, 26, 27, 28, 29, 30, 31, 32, 33, 34, 35, 36, 37, 38, 39, 40, 41, 42, 43, 44, 45, 46, 47, 48, 49, 50, 51, 52, 53, 54, 55, 56, 57, 58, 59, 60, 61, 62, 63, 64, 65, 66, 67, 68, 69, 70, 71, 72, 73, 74, 75, 76, 77, 78, 79, 80, 81, 82, 83, 84, 85, 86, 87, 88, 89, 90, 91, 92, 93, 94, 95, 96, 97, 98, 99, 100, 101, 102, 103, 104, 105, 106, 107, 108, 109, 110, 111, 112, 113, 114, 115, 116, 117, 118, 119, 120, 121, 122, 123, 124, 125, 126, 127, 128, 129, 130, 131, 132, 133, 134, 135, 136, 137, 138, 139, 140, 141, 142, 143, 144, 145, 146, 147, 148, 149, 150, 151, 152, 153, 154, 155, 156],
      "LargestImagePixelValue": [3186, 3096, 3078, 3068, 3038, 3079, 3131, 3083, 3076, 3068, 3109, 3099, 3147, 3092, 3105, 3082, 3084, 3084, 3073, 3095, 3104, 3121, 3099, 3168, 3118, 3123, 3148, 3146, 3141, 3142, 3134, 3146, 3094, 3171, 3121, 3144, 3140, 3187, 3118, 3199, 3149, 3146, 3170, 3197, 3158, 3176, 3181, 3179, 3157, 3156, 3175, 3159, 3193, 3208, 3180, 3206, 3201, 3185, 3147, 3192, 3180, 3197, 3182, 3194, 3189, 3176, 3206, 3186, 3124, 3152, 3166, 3162, 3181, 3136, 3171, 3206, 3181, 3210, 3198, 3180, 3165, 3180, 3163, 3178, 3192, 3184, 3211, 3220, 3222, 3209, 3211, 3173, 3220, 3202, 3176, 3217, 3185, 3217, 3187, 3185, 3224, 3207, 3211, 3213, 3234, 3204, 3203, 3219, 3171, 3212, 3244, 3237, 3178, 3153, 3206, 3199, 3208, 3232, 3225, 3227, 3194, 3239, 3208, 3176, 3241, 3179, 3166, 3166, 3168, 3197, 3176, 3170, 3220, 3212, 3208, 3172, 3213, 3213, 3197, 3210, 3221, 3203, 3088, 3233, 3222, 3207, 3175, 3202, 3214, 3218, 3244, 3227, 3197, 3191, 3231, 3246],
      "WindowCenter": [751.0, 748.0, 750.0, 750.0, 750.0, 752.0, 753.0, 753.0, 754.0, 755.0, 756.0, 755.0, 755.0, 756.0, 756.0, 756.0, 757.0, 756.0, 755.0, 756.0, 756.0, 756.0, 756.0, 756.0, 755.0, 755.0, 755.0, 755.0, 756.0, 755.0, 755.0, 755.0, 755.0, 756.0, 755.0, 755.0, 755.0, 757.0, 756.0, 756.0, 756.0, 757.0, 756.0, 755.0, 755.0, 756.0, 755.0, 754.0, 755.0, 754.0, 755.0, 755.0, 756.0, 757.0, 756.0, 755.0, 755.0, 755.0, 755.0, 757.0, 757.0, 756.0, 756.0, 756.0, 755.0, 756.0, 756.0, 756.0, 757.0, 756.0, 755.0, 754.0, 753.0, 752.0, 754.0, 755.0, 755.0, 755.0, 754.0, 755.0, 755.0, 755.0, 755.0, 756.0, 756.0, 756.0, 756.0, 756.0, 756.0, 755.0, 753.0, 753.0, 755.0, 757.0, 758.0, 758.0, 758.0, 758.0, 755.0, 753.0, 753.0, 753.0, 754.0, 755.0, 755.0, 755.0, 756.0, 755.0, 757.0, 758.0, 756.0, 756.0, 754.0, 751.0, 750.0, 751.0, 755.0, 759.0, 758.0, 758.0, 757.0, 757.0, 756.0, 756.0, 757.0, 755.0, 753.0, 753.0, 753.0, 755.0, 756.0, 757.0, 758.0, 758.0, 757.0, 755.0, 756.0, 756.0, 755.0, 755.0, 758.0, 759.0, 757.0, 760.0, 755.0, 754.0, 754.0, 753.0, 754.0, 754.0, 754.0, 754.0, 754.0, 755.0, 757.0, 759.0],
      "WindowWidth": [1596.0, 1589.0, 1593.0, 1594.0, 1594.0, 1599.0, 1601.0, 1603.0, 1605.0, 1606.0, 1609.0, 1607.0, 1608.0, 1609.0, 1610.0, 1611.0, 1612.0, 1611.0, 1608.0, 1609.0, 1609.0, 1610.0, 1609.0, 1609.0, 1608.0, 1606.0, 1607.0, 1607.0, 1609.0, 1607.0, 1606.0, 1606.0, 1607.0, 1609.0, 1608.0, 1607.0, 1606.0, 1611.0, 1609.0, 1609.0, 1608.0, 1611.0, 1609.0, 1606.0, 1607.0, 1609.0, 1607.0, 1604.0, 1606.0, 1605.0, 1606.0, 1606.0, 1610.0, 1611.0, 1608.0, 1607.0, 1606.0, 1607.0, 1608.0, 1612.0, 1610.0, 1610.0, 1609.0, 1608.0, 1607.0, 1608.0, 1609.0, 1609.0, 1611.0, 1609.0, 1608.0, 1605.0, 1603.0, 1601.0, 1604.0, 1607.0, 1607.0, 1607.0, 1605.0, 1606.0, 1608.0, 1608.0, 1607.0, 1609.0, 1610.0, 1608.0, 1609.0, 1610.0, 1610.0, 1606.0, 1601.0, 1601.0, 1607.0, 1610.0, 1615.0, 1614.0, 1614.0, 1613.0, 1606.0, 1601.0, 1601.0, 1601.0, 1603.0, 1605.0, 1607.0, 1607.0, 1608.0, 1608.0, 1612.0, 1613.0, 1610.0, 1609.0, 1604.0, 1598.0, 1595.0, 1598.0, 1608.0, 1616.0, 1615.0, 1613.0, 1612.0, 1612.0, 1610.0, 1610.0, 1611.0, 1607.0, 1602.0, 1601.0, 1602.0, 1606.0, 1610.0, 1611.0, 1613.0, 1613.0, 1611.0, 1606.0, 1608.0, 1609.0, 1606.0, 1608.0, 1613.0, 1617.0, 1613.0, 1618.0, 1608.0, 1604.0, 1604.0, 1602.0, 1604.0, 1605.0, 1604.0, 1603.0, 1604.0, 1607.0, 1612.0, 1616.0]
    },
    "slices": {}
  }
}