{
  "AcquisitionMatrixPE": 100,
  "AcquisitionNumber": 1,
  "AcquisitionTime": "15:19:45.485000",
  "BandwidthPerPixelPhaseEncode": 18.519,
  "BaseResolution": 100,
  "BodyPartExamined": "BRAIN",
  "CoilCombinationMethod": "Sum of Squares",
  "ConsistencyInfo": "N4_VE11C_LATEST_20160120",
  "ConversionSoftware": "dcm2niix",
  "ConversionSoftwareVersion": "v1.0.20211006",
  "DerivedVendorReportedEchoSpacing": 0.000539986,
  "DeviceSerialNumber": "166078",
  "DwellTime": 2.1e-06,
  "EchoTime": 0.034,
  "EchoTrainLength": 100,
  "EffectiveEchoSpacing": 0.000539986,
  "FlipAngle": 90,
  "ImageOrientationPatientDICOM": [1, 4.13517e-05, 0.000327312, -3.90952e-08, 0.992129, -0.125223],
  "ImageOrientationText": "Tra>Cor(-7.2)>Sag(0.0)",
  "ImageType": [
    "ORIGINAL",
    "PRIMARY",
    "M",
    "ND",
    "MOSAIC"
],
  "ImagingFrequency": 123.258,
  "InPlanePhaseEncodingDirectionDICOM": "COL",
  "InstitutionAddress": "Street StreetNo,Bei Jing,District,CN,ZIP",
  "InstitutionName": "BeiJing Normal University",
  "InstitutionalDepartmentName": "Department",
  "MRAcquisitionType": "2D",
  "MagneticFieldStrength": 3,
  "Manufacturer": "Siemens",
  "ManufacturersModelName": "Prisma",
  "Modality": "MR",
  "MultibandAccelerationFactor": 3,
  "PartialFourier": 1,
  "PatientPosition": "HFS",
  "PercentPhaseFOV": 100,
  "PercentSampling": 100,
  "PhaseEncodingDirection": "j-",
  "PhaseEncodingSteps": 100,
  "PhaseResolution": 1,
  "PixelBandwidth": 2380,
  "ProcedureStepDescription": "BNU_P2018_64CH^Zhen.ZongLei",
  "ProtocolName": "bold_100x100_s3_2x2x2_static_156",
  "PulseSequenceDetails": "%SiemensSeq%\\ep2d_bold",
  "ReceiveCoilActiveElements": "HC1-7;NC1",
  "ReceiveCoilName": "HeadNeck_64",
  "ReconMatrixPE": 100,
  "RefLinesPE": 32,
  "RepetitionTime": 2,
  "SAR": 0.080879,
  "ScanOptions": "FS",
  "ScanningSequence": "EP",
  "SequenceName": "*epfid2d1_100",
  "SequenceVariant": "SK",
  "SeriesDescription": "bold_100x100_s3_2x2x2_static_156",
  "SeriesNumber": 14,
  "ShimSetting": [-5474, -11505, -1255, 265, -37, -215, -59, 21],
  "SliceThickness": 2,
  "SliceTiming": [1.485, 0, 0.99, 0.0825, 1.0725, 0.165, 1.155, 0.2475, 1.2375, 0.33, 1.32, 0.4125, 1.4025, 0.5775, 1.5675, 0.66, 1.65, 0.7425, 1.7325, 0.825, 1.815, 0.9075, 1.8975, 0.495, 1.485, 0, 0.99, 0.0825, 1.0725, 0.165, 1.155, 0.2475, 1.2375, 0.33, 1.32, 0.4125, 1.4025, 0.5775, 1.5675, 0.66, 1.65, 0.7425, 1.7325, 0.825, 1.815, 0.9075, 1.8975, 0.495, 1.485, 0, 0.99, 0.0825, 1.0725, 0.165, 1.155, 0.2475, 1.2375, 0.33, 1.32, 0.4125, 1.4025, 0.5775, 1.5675, 0.66, 1.65, 0.7425, 1.7325, 0.825, 1.815, 0.9075, 1.8975, 0.495],
  "SoftwareVersions": "syngo MR E11",
  "SpacingBetweenSlices": 2,
  "StationName": "AWP166078",
  "TaskName": "action",
  "TotalReadoutTime": 0.0534586,
  "TxRefAmp": 252.632,
  "dcmmeta_affine": [
    [-1.9999998807907104, -7.81903892743685e-08, 0.0006598280742764473, 100.4209213256836],
    [-8.270342368632555e-05, 1.9842572212219238, -0.2504465878009796, -84.93669891357422],
    [0.000654624484013766, 0.2504465878009796, 1.9842571020126343, -77.17183685302734],
    [0.0, 0.0, 0.0, 1.0]
],
  "dcmmeta_reorient_transform": [
    [0.0, -1.0, 0.0, 99.0],
    [1.0, 0.0, 0.0, 0.0],
    [0.0, 0.0, 1.0, 0.0],
    [0.0, 0.0, 0.0, 1.0]
],
  "dcmmeta_shape": [100, 100, 72, 156],
  "dcmmeta_slice_dim": 2,
  "dcmmeta_version": 0.6,
  "global": {
    "const": {
      "AcquisitionMatrix": [100, 0, 0, 100],
      "AngioFlag": "N",
      "BitsAllocated": 16,
      "BitsStored": 12,
      "BodyPartExamined": "BRAIN",
      "Columns": 900,
      "EchoNumbers": 1,
      "EchoTime": 34.0,
      "EchoTrainLength": 100,
      "FlipAngle": 90.0,
      "HighBit": 11,
      "ImageOrientationPatient": [0.99999994557837, 4.135171023e-05, 0.00032731223654, -3.9095196e-08, 0.99212858292972, -0.1252233002834],
      "ImagePositionPatient": [-900.42084237595, -905.24070953991, 47.539163595227],
      "ImageType": [
        "ORIGINAL",
        "PRIMARY",
        "M",
        "ND",
        "MOSAIC"
],
      "ImagedNucleus": "1H",
      "ImagingFrequency": 123.257737,
      "InPlanePhaseEncodingDirection": "COL",
      "MRAcquisitionType": "2D",
      "MagneticFieldStrength": 3.0,
      "Manufacturer": "SIEMENS",
      "ManufacturerModelName": "Prisma",
      "Modality": "MR",
      "NumberOfAverages": 1.0,
      "NumberOfPhaseEncodingSteps": 100,
      "PercentPhaseFieldOfView": 100.0,
      "PercentSampling": 100.0,
      "PerformedProcedureStepStartTime": "142104.898000",
      "PhotometricInterpretation": "MONOCHROME2",
      "PixelBandwidth": 2380.0,
      "PixelRepresentation": 0,
      "PixelSpacing": [2.0, 2.0],
      "ProtocolName": "bold_100x100_s3_2x2x2_static_156",
      "RepetitionTime": 2000.0,
      "Rows": 900,
      "SAR": 0.0808789478676,
      "SamplesPerPixel": 1,
      "ScanOptions": "FS",
      "ScanningSequence": "EP",
      "SequenceName": "*epfid2d1_100",
      "SequenceVariant": "SK",
      "SeriesDescription": "bold_100x100_s3_2x2x2_static_156",
      "SeriesNumber": 14,
      "SeriesTime": "151947.541000",
      "SliceLocation": -65.895201111612,
      "SliceThickness": 2.0,
      "SmallestImagePixelValue": 0,
      "SoftwareVersions": "syngo MR E11",
      "SpacingBetweenSlices": 2.0000000622757,
      "SpecificCharacterSet": "ISO_IR 100",
      "StudyID": "1",
      "StudyTime": "142104.807000",
      "TransmitCoilName": "Body",
      "VariableFlipAngleFlag": "N",
      "WindowCenterWidthExplanation": "Algo1",
      "dBdt": 0.0},
    "slices": {}
  },
  "time": {
    "samples": {
      "AcquisitionNumber": [1, 2, 3, 4, 5, 6, 7, 8, 9, 10, 11, 12, 13, 14, 15, 16, 17, 18, 19, 20, 21, 22, 23, 24, 25, 26, 27, 28, 29, 30, 31, 32, 33, 34, 35, 36, 37, 38, 39, 40, 41, 42, 43, 44, 45, 46, 47, 48, 49, 50, 51, 52, 53, 54, 55, 56, 57, 58, 59, 60, 61, 62, 63, 64, 65, 66, 67, 68, 69, 70, 71, 72, 73, 74, 75, 76, 77, 78, 79, 80, 81, 82, 83, 84, 85, 86, 87, 88, 89, 90, 91, 92, 93, 94, 95, 96, 97, 98, 99, 100, 101, 102, 103, 104, 105, 106, 107, 108, 109, 110, 111, 112, 113, 114, 115, 116, 117, 118, 119, 120, 121, 122, 123, 124, 125, 126, 127, 128, 129, 130, 131, 132, 133, 134, 135, 136, 137, 138, 139, 140, 141, 142, 143, 144, 145, 146, 147, 148, 149, 150, 151, 152, 153, 154, 155, 156],
      "AcquisitionTime": ["151945.485000", "151947.485000", "151949.485000", "151951.485000", "151953.485000", "151955.485000", "151957.485000", "151959.485000", "152001.485000", "152003.485000", "152005.485000", "152007.485000", "152009.485000", "152011.485000", "152013.485000", "152015.485000", "152017.485000", "152019.485000", "152021.485000", "152023.485000", "152025.485000", "152027.485000", "152029.485000", "152031.485000", "152033.485000", "152035.485000", "152037.485000", "152039.485000", "152041.485000", "152043.485000", "152045.485000", "152047.485000", "152049.485000", "152051.485000", "152053.485000", "152055.485000", "152057.485000", "152059.485000", "152101.485000", "152103.485000", "152105.485000", "152107.485000", "152109.485000", "152111.485000", "152113.485000", "152115.485000", "152117.485000", "152119.485000", "152121.485000", "152123.485000", "152125.485000", "152127.485000", "152129.485000", "152131.485000", "152133.485000", "152135.485000", "152137.485000", "152139.485000", "152141.485000", "152143.485000", "152145.485000", "152147.485000", "152149.485000", "152151.485000", "152153.485000", "152155.485000", "152157.485000", "152159.485000", "152201.485000", "152203.485000", "152205.485000", "152207.485000", "152209.485000", "152211.485000", "152213.485000", "152215.485000", "152217.485000", "152219.485000", "152221.485000", "152223.485000", "152225.485000", "152227.485000", "152229.485000", "152231.485000", "152233.485000", "152235.485000", "152237.485000", "152239.485000", "152241.485000", "152243.485000", "152245.485000", "152247.485000", "152249.485000", "152251.485000", "152253.485000", "152255.485000", "152257.485000", "152259.485000", "152301.485000", "152303.485000", "152305.485000", "152307.485000", "152309.485000", "152311.485000", "152313.485000", "152315.485000", "152317.485000", "152319.485000", "152321.485000", "152323.485000", "152325.485000", "152327.485000", "152329.485000", "152331.485000", "152333.485000", "152335.485000", "152337.485000", "152339.485000", "152341.485000", "152343.485000", "152345.485000", "152347.485000", "152349.485000", "152351.485000", "152353.485000", "152355.485000", "152357.485000", "152359.485000", "152401.485000", "152403.485000", "152405.485000", "152407.485000", "152409.485000", "152411.485000", "152413.485000", "152415.485000", "152417.485000", "152419.485000", "152421.485000", "152423.485000", "152425.485000", "152427.485000", "152429.485000", "152431.485000", "152433.485000", "152435.485000", "152437.485000", "152439.485000", "152441.485000", "152443.485000", "152445.485000", "152447.485000", "152449.485000", "152451.485000", "152453.485000", "152455.485000"],
      "ContentTime": ["151947.545000", "151949.040000", "151951.540000", "151953.041000", "151955.041000", "151957.040000", "151959.040000", "152001.040000", "152003.040000", "152005.040000", "152007.040000", "152009.040000", "152011.040000", "152013.041000", "152015.040000", "152017.041000", "152019.041000", "152021.040000", "152023.040000", "152025.039000", "152027.040000", "152029.041000", "152031.041000", "152033.040000", "152035.041000", "152037.041000", "152039.040000", "152041.040000", "152043.039000", "152045.540000", "152047.041000", "152049.041000", "152051.041000", "152053.541000", "152055.041000", "152057.040000", "152059.039000", "152101.039000", "152103.041000", "152105.041000", "152107.040000", "152109.040000", "152111.540000", "152113.040000", "152115.040000", "152117.040000", "152119.040000", "152121.540000", "152123.041000", "152125.040000", "152127.040000", "152129.541000", "152131.040000", "152133.041000", "152135.539000", "152137.040000", "152139.041000", "152141.041000", "152143.041000", "152145.041000", "152147.041000", "152149.040000", "152151.040000", "152153.039000", "152155.039000", "152157.040000", "152159.041000", "152201.041000", "152203.041000", "152205.040000", "152207.040000", "152209.040000", "152211.040000", "152213.040000", "152215.041000", "152217.040000", "152219.040000", "152221.041000", "152223.040000", "152225.040000", "152227.040000", "152229.040000", "152231.060000", "152233.040000", "152235.041000", "152237.041000", "152239.041000", "152241.040000", "152243.040000", "152245.039000", "152247.039000", "152249.041000", "152251.540000", "152253.040000", "152255.041000", "152257.540000", "152259.041000", "152301.039000", "152303.040000", "152305.041000", "152307.041000", "152309.041000", "152311.040000", "152313.041000", "152315.040000", "152317.041000", "152319.540000", "152321.039000", "152323.041000", "152325.541000", "152327.040000", "152329.040000", "152331.041000", "152333.540000", "152335.041000", "152337.539000", "152339.039000", "152341.041000", "152343.040000", "152345.541000", "152347.040000", "152349.041000", "152351.040000", "152353.539000", "152355.540000", "152357.040000", "152359.041000", "152401.040000", "152403.041000", "152405.041000", "152407.040000", "152409.041000", "152411.039000", "152413.040000", "152415.041000", "152417.040000", "152419.541000", "152421.041000", "152423.040000", "152425.541000", "152427.041000", "152429.039000", "152431.039000", "152433.041000", "152435.041000", "152437.040000", "152439.040000", "152441.041000", "152443.541000", "152445.040000", "152447.040000", "152449.039000", "152451.041000", "152453.040000", "152455.041000", "152457.083000"],
      "InstanceCreationTime": ["151947.545000", "151949.040000", "151951.540000", "151953.041000", "151955.041000", "151957.040000", "151959.040000", "152001.040000", "152003.040000", "152005.040000", "152007.040000", "152009.040000", "152011.040000", "152013.041000", "152015.040000", "152017.041000", "152019.041000", "152021.040000", "152023.040000", "152025.039000", "152027.040000", "152029.041000", "152031.041000", "152033.040000", "152035.041000", "152037.041000", "152039.040000", "152041.040000", "152043.039000", "152045.540000", "152047.041000", "152049.041000", "152051.041000", "152053.541000", "152055.041000", "152057.040000", "152059.039000", "152101.039000", "152103.041000", "152105.041000", "152107.040000", "152109.040000", "152111.540000", "152113.040000", "152115.040000", "152117.040000", "152119.040000", "152121.540000", "152123.041000", "152125.040000", "152127.040000", "152129.541000", "152131.040000", "152133.041000", "152135.539000", "152137.040000", "152139.041000", "152141.041000", "152143.041000", "152145.041000", "152147.041000", "152149.040000", "152151.040000", "152153.039000", "152155.039000", "152157.040000", "152159.041000", "152201.041000", "152203.041000", "152205.040000", "152207.040000", "152209.040000", "152211.040000", "152213.040000", "152215.041000", "152217.040000", "152219.040000", "152221.041000", "152223.040000", "152225.040000", "152227.040000", "152229.040000", "152231.060000", "152233.040000", "152235.041000", "152237.041000", "152239.041000", "152241.040000", "152243.040000", "152245.039000", "152247.039000", "152249.041000", "152251.540000", "152253.040000", "152255.041000", "152257.540000", "152259.041000", "152301.039000", "152303.040000", "152305.041000", "152307.041000", "152309.041000", "152311.040000", "152313.041000", "152315.040000", "152317.041000", "152319.540000", "152321.039000", "152323.041000", "152325.541000", "152327.040000", "152329.040000", "152331.041000", "152333.540000", "152335.041000", "152337.539000", "152339.039000", "152341.041000", "152343.040000", "152345.541000", "152347.040000", "152349.041000", "152351.040000", "152353.539000", "152355.540000", "152357.040000", "152359.041000", "152401.040000", "152403.041000", "152405.041000", "152407.040000", "152409.041000", "152411.039000", "152413.040000", "152415.041000", "152417.040000", "152419.541000", "152421.041000", "152423.040000", "152425.541000", "152427.041000", "152429.039000", "152431.039000", "152433.041000", "152435.041000", "152437.040000", "152439.040000", "152441.041000", "152443.541000", "152445.040000", "152447.040000", "152449.039000", "152451.041000", "152453.040000", "152455.041000", "152457.083000"],
      "InstanceNumber": [1, 2, 3, 4, 5, 6, 7, 8, 9, 10, 11, 12, 13, 14, 15, 16, 17, 18, 19, 20, 21, 22, 23, 24, 25, 26, 27, 28, 29, 30, 31, 32, 33, 34, 35, 36, 37, 38, 39, 40, 41, 42, 43, 44, 45, 46, 47, 48, 49, 50, 51, 52, 53, 54, 55, 56, 57, 58, 59, 60, 61, 62, 63, 64, 65, 66, 67, 68, 69, 70, 71, 72, 73, 74, 75, 76, 77, 78, 79, 80, 81, 82, 83, 84, 85, 86, 87, 88, 89, 90, 91, 92, 93, 94, 95, 96, 97, 98, 99, 100, 101, 102, 103, 104, 105, 106, 107, 108, 109, 110, 111, 112, 113, 114, 115, 116, 117, 118, 119, 120, 121, 122, 123, 124, 125, 126, 127, 128, 129, 130, 131, 132, 133, 134, 135, 136, 137, 138, 139, 140, 141, 142, 143, 144, 145, 146, 147, 148, 149, 150, 151, 152, 153, 154, 155, 156],
      "LargestImagePixelValue": [3122, 3123, 3076, 3066, 3072, 3077, 3088, 3100, 3141, 3097, 3105, 3082, 3122, 3121, 3113, 3180, 3155, 3120, 3151, 3126, 3121, 3114, 3160, 3187, 3150, 3093, 3130, 3117, 3143, 3156, 3089, 3130, 3113, 3150, 3118, 3138, 3137, 3152, 3140, 3203, 3125, 3137, 3144, 3167, 3194, 3124, 3084, 3164, 3126, 3134, 3170, 3140, 3124, 3132, 3115, 3158, 3182, 3160, 3137, 3129, 3152, 3167, 3139, 3147, 3162, 3173, 3147, 3144, 3127, 3155, 3143, 3161, 3152, 3144, 3158, 3170, 3149, 3138, 3127, 3171, 3146, 3172, 3146, 3185, 3151, 3176, 3183, 3206, 3173, 3161, 3157, 3198, 3179, 3219, 3211, 3193, 3184, 3193, 3169, 3223, 3159, 3143, 3132, 3171, 3158, 3178, 3184, 3212, 3187, 3190, 3190, 3172, 3207, 3199, 3208, 3203, 3214, 3216, 3184, 3177, 3162, 3200, 3216, 3205, 3185, 3177, 3180, 3179, 3188, 3181, 3188, 3152, 3151, 3171, 3168, 3181, 3153, 3179, 3212, 3184, 3195, 3190, 3189, 3219, 3198, 3191, 3181, 3178, 3142, 3155, 3175, 3204, 3154, 3161, 3159, 3162],
      "WindowCenter": [756.0, 753.0, 750.0, 746.0, 746.0, 748.0, 749.0, 752.0, 755.0, 756.0, 758.0, 757.0, 756.0, 755.0, 755.0, 756.0, 758.0, 758.0, 758.0, 756.0, 756.0, 757.0, 757.0, 757.0, 757.0, 756.0, 758.0, 758.0, 759.0, 758.0, 756.0, 755.0, 755.0, 756.0, 756.0, 757.0, 758.0, 758.0, 758.0, 758.0, 757.0, 756.0, 755.0, 755.0, 758.0, 758.0, 758.0, 757.0, 756.0, 754.0, 752.0, 751.0, 752.0, 754.0, 755.0, 757.0, 757.0, 757.0, 757.0, 757.0, 757.0, 756.0, 755.0, 756.0, 758.0, 757.0, 754.0, 754.0, 755.0, 757.0, 757.0, 757.0, 757.0, 758.0, 759.0, 758.0, 757.0, 756.0, 754.0, 756.0, 757.0, 757.0, 755.0, 755.0, 757.0, 758.0, 757.0, 755.0, 754.0, 753.0, 753.0, 754.0, 755.0, 756.0, 757.0, 757.0, 757.0, 757.0, 757.0, 758.0, 758.0, 759.0, 756.0, 755.0, 753.0, 751.0, 750.0, 750.0, 750.0, 752.0, 754.0, 755.0, 757.0, 755.0, 754.0, 756.0, 758.0, 757.0, 757.0, 758.0, 759.0, 759.0, 759.0, 757.0, 757.0, 756.0, 756.0, 757.0, 759.0, 759.0, 759.0, 758.0, 758.0, 757.0, 757.0, 756.0, 756.0, 756.0, 755.0, 754.0, 756.0, 757.0, 758.0, 758.0, 757.0, 757.0, 756.0, 755.0, 754.0, 754.0, 754.0, 755.0, 757.0, 758.0, 758.0, 757.0],
      "WindowWidth": [1610.0, 1602.0, 1594.0, 1586.0, 1585.0, 1590.0, 1593.0, 1599.0, 1607.0, 1610.0, 1613.0, 1611.0, 1610.0, 1608.0, 1608.0, 1611.0, 1615.0, 1615.0, 1613.0, 1608.0, 1609.0, 1611.0, 1613.0, 1613.0, 1612.0, 1611.0, 1614.0, 1616.0, 1617.0, 1614.0, 1609.0, 1607.0, 1607.0, 1609.0, 1609.0, 1612.0, 1614.0, 1616.0, 1616.0, 1614.0, 1611.0, 1610.0, 1606.0, 1607.0, 1613.0, 1613.0, 1614.0, 1613.0, 1609.0, 1605.0, 1599.0, 1596.0, 1599.0, 1604.0, 1608.0, 1611.0, 1612.0, 1611.0, 1613.0, 1612.0, 1611.0, 1610.0, 1608.0, 1608.0, 1613.0, 1610.0, 1605.0, 1603.0, 1606.0, 1611.0, 1613.0, 1611.0, 1611.0, 1615.0, 1617.0, 1614.0, 1612.0, 1608.0, 1604.0, 1609.0, 1613.0, 1612.0, 1607.0, 1608.0, 1611.0, 1613.0, 1612.0, 1608.0, 1604.0, 1602.0, 1601.0, 1603.0, 1606.0, 1610.0, 1612.0, 1611.0, 1611.0, 1612.0, 1613.0, 1615.0, 1615.0, 1617.0, 1610.0, 1607.0, 1603.0, 1597.0, 1593.0, 1594.0, 1595.0, 1599.0, 1605.0, 1607.0, 1611.0, 1607.0, 1605.0, 1608.0, 1613.0, 1612.0, 1611.0, 1614.0, 1616.0, 1617.0, 1617.0, 1612.0, 1612.0, 1610.0, 1608.0, 1611.0, 1617.0, 1617.0, 1617.0, 1614.0, 1614.0, 1612.0, 1611.0, 1610.0, 1609.0, 1609.0, 1607.0, 1604.0, 1609.0, 1612.0, 1615.0, 1615.0, 1613.0, 1611.0, 1610.0, 1607.0, 1605.0, 1604.0, 1605.0, 1608.0, 1611.0, 1615.0, 1613.0, 1612.0]
    },
    "slices": {}
  }
}