{
  "AcquisitionMatrixPE": 100,
  "AcquisitionNumber": 1,
  "AcquisitionTime": "14:47:30.485000",
  "BandwidthPerPixelPhaseEncode": 18.519,
  "BaseResolution": 100,
  "BodyPartExamined": "BRAIN",
  "CoilCombinationMethod": "Sum of Squares",
  "ConsistencyInfo": "N4_VE11C_LATEST_20160120",
  "ConversionSoftware": "dcm2niix",
  "ConversionSoftwareVersion": "v1.0.20211006",
  "DerivedVendorReportedEchoSpacing": 0.000539986,
  "DeviceSerialNumber": "166078",
  "DwellTime": 2.1e-06,
  "EchoTime": 0.034,
  "EchoTrainLength": 100,
  "EffectiveEchoSpacing": 0.000539986,
  "FlipAngle": 90,
  "ImageOrientationPatientDICOM": [1, 4.13517e-05, 0.000327312, -3.90952e-08, 0.992129, -0.125223],
  "ImageOrientationText": "Tra>Cor(-7.2)>Sag(0.0)",
  "ImageType": [
    "ORIGINAL",
    "PRIMARY",
    "M",
    "ND",
    "MOSAIC"
],
  "ImagingFrequency": 123.258,
  "InPlanePhaseEncodingDirectionDICOM": "COL",
  "InstitutionAddress": "Street StreetNo,Bei Jing,District,CN,ZIP",
  "InstitutionName": "BeiJing Normal University",
  "InstitutionalDepartmentName": "Department",
  "MRAcquisitionType": "2D",
  "MagneticFieldStrength": 3,
  "Manufacturer": "Siemens",
  "ManufacturersModelName": "Prisma",
  "Modality": "MR",
  "MultibandAccelerationFactor": 3,
  "PartialFourier": 1,
  "PatientPosition": "HFS",
  "PercentPhaseFOV": 100,
  "PercentSampling": 100,
  "PhaseEncodingDirection": "j-",
  "PhaseEncodingSteps": 100,
  "PhaseResolution": 1,
  "PixelBandwidth": 2380,
  "ProcedureStepDescription": "BNU_P2018_64CH^Zhen.ZongLei",
  "ProtocolName": "bold_100x100_s3_2x2x2_static_156",
  "PulseSequenceDetails": "%SiemensSeq%\\ep2d_bold",
  "ReceiveCoilActiveElements": "HC1-7;NC1",
  "ReceiveCoilName": "HeadNeck_64",
  "ReconMatrixPE": 100,
  "RefLinesPE": 32,
  "RepetitionTime": 2,
  "SAR": 0.080879,
  "ScanOptions": "FS",
  "ScanningSequence": "EP",
  "SequenceName": "*epfid2d1_100",
  "SequenceVariant": "SK",
  "SeriesDescription": "bold_100x100_s3_2x2x2_static_156",
  "SeriesNumber": 7,
  "ShimSetting": [-5474, -11505, -1255, 265, -37, -215, -59, 21],
  "SliceThickness": 2,
  "SliceTiming": [1.485, 0, 0.99, 0.0825, 1.0725, 0.165, 1.155, 0.2475, 1.2375, 0.33, 1.32, 0.4125, 1.4025, 0.5775, 1.5675, 0.66, 1.65, 0.7425, 1.7325, 0.825, 1.815, 0.9075, 1.8975, 0.495, 1.485, 0, 0.99, 0.0825, 1.0725, 0.165, 1.155, 0.2475, 1.2375, 0.33, 1.32, 0.4125, 1.4025, 0.5775, 1.5675, 0.66, 1.65, 0.7425, 1.7325, 0.825, 1.815, 0.9075, 1.8975, 0.495, 1.485, 0, 0.99, 0.0825, 1.0725, 0.165, 1.155, 0.2475, 1.2375, 0.33, 1.32, 0.4125, 1.4025, 0.5775, 1.5675, 0.66, 1.65, 0.7425, 1.7325, 0.825, 1.815, 0.9075, 1.8975, 0.495],
  "SoftwareVersions": "syngo MR E11",
  "SpacingBetweenSlices": 2,
  "StationName": "AWP166078",
  "TaskName": "action",
  "TotalReadoutTime": 0.0534586,
  "TxRefAmp": 252.632,
  "dcmmeta_affine": [
    [-1.9999998807907104, -7.81903892743685e-08, 0.0006598280742764473, 100.4209213256836],
    [-8.270342368632555e-05, 1.9842572212219238, -0.2504465878009796, -84.93669891357422],
    [0.000654624484013766, 0.2504465878009796, 1.9842571020126343, -77.17183685302734],
    [0.0, 0.0, 0.0, 1.0]
],
  "dcmmeta_reorient_transform": [
    [0.0, -1.0, 0.0, 99.0],
    [1.0, 0.0, 0.0, 0.0],
    [0.0, 0.0, 1.0, 0.0],
    [0.0, 0.0, 0.0, 1.0]
],
  "dcmmeta_shape": [100, 100, 72, 156],
  "dcmmeta_slice_dim": 2,
  "dcmmeta_version": 0.6,
  "global": {
    "const": {
      "AcquisitionMatrix": [100, 0, 0, 100],
      "AngioFlag": "N",
      "BitsAllocated": 16,
      "BitsStored": 12,
      "BodyPartExamined": "BRAIN",
      "Columns": 900,
      "EchoNumbers": 1,
      "EchoTime": 34.0,
      "EchoTrainLength": 100,
      "FlipAngle": 90.0,
      "HighBit": 11,
      "ImageOrientationPatient": [0.99999994557837, 4.135171023e-05, 0.00032731223654, -3.9095196e-08, 0.99212858292972, -0.1252233002834],
      "ImagePositionPatient": [-900.42084237595, -905.24070953991, 47.539163595227],
      "ImageType": [
        "ORIGINAL",
        "PRIMARY",
        "M",
        "ND",
        "MOSAIC"
],
      "ImagedNucleus": "1H",
      "ImagingFrequency": 123.257735,
      "InPlanePhaseEncodingDirection": "COL",
      "MRAcquisitionType": "2D",
      "MagneticFieldStrength": 3.0,
      "Manufacturer": "SIEMENS",
      "ManufacturerModelName": "Prisma",
      "Modality": "MR",
      "NumberOfAverages": 1.0,
      "NumberOfPhaseEncodingSteps": 100,
      "PercentPhaseFieldOfView": 100.0,
      "PercentSampling": 100.0,
      "PerformedProcedureStepStartTime": "142104.898000",
      "PhotometricInterpretation": "MONOCHROME2",
      "PixelBandwidth": 2380.0,
      "PixelRepresentation": 0,
      "PixelSpacing": [2.0, 2.0],
      "ProtocolName": "bold_100x100_s3_2x2x2_static_156",
      "RepetitionTime": 2000.0,
      "Rows": 900,
      "SAR": 0.0808789478676,
      "SamplesPerPixel": 1,
      "ScanOptions": "FS",
      "ScanningSequence": "EP",
      "SequenceName": "*epfid2d1_100",
      "SequenceVariant": "SK",
      "SeriesDescription": "bold_100x100_s3_2x2x2_static_156",
      "SeriesNumber": 7,
      "SeriesTime": "144732.807000",
      "SliceLocation": -65.895201111612,
      "SliceThickness": 2.0,
      "SmallestImagePixelValue": 0,
      "SoftwareVersions": "syngo MR E11",
      "SpacingBetweenSlices": 2.0000000622757,
      "SpecificCharacterSet": "ISO_IR 100",
      "StudyID": "1",
      "StudyTime": "142104.807000",
      "TransmitCoilName": "Body",
      "VariableFlipAngleFlag": "N",
      "WindowCenterWidthExplanation": "Algo1",
      "dBdt": 0.0},
    "slices": {}
  },
  "time": {
    "samples": {
      "AcquisitionNumber": [1, 2, 3, 4, 5, 6, 7, 8, 9, 10, 11, 12, 13, 14, 15, 16, 17, 18, 19, 20, 21, 22, 23, 24, 25, 26, 27, 28, 29, 30, 31, 32, 33, 34, 35, 36, 37, 38, 39, 40, 41, 42, 43, 44, 45, 46, 47, 48, 49, 50, 51, 52, 53, 54, 55, 56, 57, 58, 59, 60, 61, 62, 63, 64, 65, 66, 67, 68, 69, 70, 71, 72, 73, 74, 75, 76, 77, 78, 79, 80, 81, 82, 83, 84, 85, 86, 87, 88, 89, 90, 91, 92, 93, 94, 95, 96, 97, 98, 99, 100, 101, 102, 103, 104, 105, 106, 107, 108, 109, 110, 111, 112, 113, 114, 115, 116, 117, 118, 119, 120, 121, 122, 123, 124, 125, 126, 127, 128, 129, 130, 131, 132, 133, 134, 135, 136, 137, 138, 139, 140, 141, 142, 143, 144, 145, 146, 147, 148, 149, 150, 151, 152, 153, 154, 155, 156],
      "AcquisitionTime": ["144730.485000", "144732.485000", "144734.485000", "144736.485000", "144738.485000", "144740.485000", "144742.485000", "144744.485000", "144746.485000", "144748.485000", "144750.485000", "144752.485000", "144754.485000", "144756.485000", "144758.485000", "144800.485000", "144802.485000", "144804.485000", "144806.485000", "144808.485000", "144810.485000", "144812.485000", "144814.485000", "144816.485000", "144818.485000", "144820.485000", "144822.485000", "144824.485000", "144826.485000", "144828.485000", "144830.485000", "144832.485000", "144834.485000", "144836.485000", "144838.485000", "144840.485000", "144842.485000", "144844.485000", "144846.485000", "144848.485000", "144850.485000", "144852.485000", "144854.485000", "144856.485000", "144858.485000", "144900.485000", "144902.485000", "144904.485000", "144906.485000", "144908.485000", "144910.485000", "144912.485000", "144914.485000", "144916.485000", "144918.485000", "144920.485000", "144922.485000", "144924.485000", "144926.485000", "144928.485000", "144930.485000", "144932.485000", "144934.485000", "144936.485000", "144938.485000", "144940.485000", "144942.485000", "144944.485000", "144946.485000", "144948.485000", "144950.485000", "144952.485000", "144954.485000", "144956.485000", "144958.485000", "145000.485000", "145002.485000", "145004.485000", "145006.485000", "145008.485000", "145010.485000", "145012.485000", "145014.485000", "145016.485000", "145018.485000", "145020.485000", "145022.485000", "145024.485000", "145026.485000", "145028.485000", "145030.485000", "145032.485000", "145034.485000", "145036.485000", "145038.485000", "145040.485000", "145042.485000", "145044.485000", "145046.485000", "145048.485000", "145050.485000", "145052.485000", "145054.485000", "145056.485000", "145058.485000", "145100.485000", "145102.485000", "145104.485000", "145106.485000", "145108.485000", "145110.485000", "145112.485000", "145114.485000", "145116.485000", "145118.485000", "145120.485000", "145122.485000", "145124.485000", "145126.485000", "145128.485000", "145130.485000", "145132.485000", "145134.485000", "145136.485000", "145138.485000", "145140.485000", "145142.485000", "145144.485000", "145146.485000", "145148.485000", "145150.485000", "145152.485000", "145154.485000", "145156.485000", "145158.485000", "145200.485000", "145202.485000", "145204.485000", "145206.485000", "145208.485000", "145210.485000", "145212.485000", "145214.485000", "145216.485000", "145218.485000", "145220.485000", "145222.485000", "145224.485000", "145226.485000", "145228.485000", "145230.485000", "145232.485000", "145234.485000", "145236.485000", "145238.485000", "145240.485000"],
      "ContentTime": ["144732.811000", "144734.306000", "144736.306000", "144738.305000", "144740.306000", "144742.305000", "144744.305000", "144746.305000", "144748.306000", "144750.307000", "144752.807000", "144754.306000", "144756.306000", "144758.305000", "144800.306000", "144802.305000", "144804.305000", "144806.306000", "144808.307000", "144810.306000", "144812.806000", "144814.306000", "144816.306000", "144818.306000", "144820.305000", "144822.305000", "144824.306000", "144826.807000", "144828.806000", "144830.307000", "144832.306000", "144834.806000", "144836.306000", "144838.805000", "144840.306000", "144842.306000", "144844.806000", "144846.306000", "144848.305000", "144850.305000", "144852.806000", "144854.306000", "144856.305000", "144858.806000", "144900.807000", "144902.307000", "144904.306000", "144906.805000", "144908.805000", "144910.306000", "144912.306000", "144914.306000", "144916.805000", "144918.307000", "144920.807000", "144922.307000", "144924.306000", "144926.306000", "144928.305000", "144930.306000", "144932.305000", "144934.306000", "144936.307000", "144938.306000", "144940.306000", "144942.306000", "144944.806000", "144946.305000", "144948.306000", "144950.305000", "144952.307000", "144954.807000", "144956.806000", "144958.806000", "145000.306000", "145002.305000", "145004.305000", "145006.305000", "145008.805000", "145010.306000", "145012.306000", "145014.806000", "145016.305000", "145018.306000", "145020.305000", "145022.305000", "145024.306000", "145026.305000", "145028.306000", "145030.306000", "145032.306000", "145034.305000", "145036.305000", "145038.305000", "145040.305000", "145042.305000", "145044.306000", "145046.307000", "145048.306000", "145050.306000", "145052.305000", "145054.306000", "145056.305000", "145058.306000", "145100.305000", "145102.307000", "145104.306000", "145106.307000", "145108.305000", "145110.305000", "145112.306000", "145114.306000", "145116.305000", "145118.306000", "145120.307000", "145122.807000", "145124.306000", "145126.806000", "145128.305000", "145130.306000", "145132.306000", "145134.305000", "145136.306000", "145138.306000", "145140.306000", "145142.806000", "145144.306000", "145146.306000", "145148.305000", "145150.306000", "145152.306000", "145154.307000", "145156.307000", "145158.307000", "145200.307000", "145202.305000", "145204.305000", "145206.306000", "145208.805000", "145210.305000", "145212.307000", "145214.306000", "145216.306000", "145218.305000", "145220.305000", "145222.306000", "145224.806000", "145226.305000", "145228.305000", "145230.306000", "145232.307000", "145234.307000", "145236.305000", "145238.305000", "145240.305000", "145242.359000"],
      "InstanceCreationTime": ["144732.811000", "144734.306000", "144736.306000", "144738.305000", "144740.306000", "144742.305000", "144744.305000", "144746.305000", "144748.306000", "144750.307000", "144752.807000", "144754.306000", "144756.306000", "144758.305000", "144800.306000", "144802.305000", "144804.305000", "144806.306000", "144808.307000", "144810.306000", "144812.806000", "144814.306000", "144816.306000", "144818.306000", "144820.305000", "144822.305000", "144824.306000", "144826.807000", "144828.806000", "144830.307000", "144832.306000", "144834.806000", "144836.306000", "144838.805000", "144840.306000", "144842.306000", "144844.806000", "144846.306000", "144848.305000", "144850.305000", "144852.806000", "144854.306000", "144856.305000", "144858.806000", "144900.807000", "144902.307000", "144904.306000", "144906.805000", "144908.805000", "144910.306000", "144912.306000", "144914.306000", "144916.805000", "144918.307000", "144920.807000", "144922.307000", "144924.306000", "144926.306000", "144928.305000", "144930.306000", "144932.305000", "144934.306000", "144936.307000", "144938.306000", "144940.306000", "144942.306000", "144944.806000", "144946.305000", "144948.306000", "144950.305000", "144952.307000", "144954.807000", "144956.806000", "144958.806000", "145000.306000", "145002.305000", "145004.305000", "145006.305000", "145008.805000", "145010.306000", "145012.306000", "145014.806000", "145016.305000", "145018.306000", "145020.305000", "145022.305000", "145024.306000", "145026.305000", "145028.306000", "145030.306000", "145032.306000", "145034.305000", "145036.305000", "145038.305000", "145040.305000", "145042.305000", "145044.306000", "145046.307000", "145048.306000", "145050.306000", "145052.305000", "145054.306000", "145056.305000", "145058.306000", "145100.305000", "145102.307000", "145104.306000", "145106.307000", "145108.305000", "145110.305000", "145112.306000", "145114.306000", "145116.305000", "145118.306000", "145120.307000", "145122.807000", "145124.306000", "145126.806000", "145128.305000", "145130.306000", "145132.306000", "145134.305000", "145136.306000", "145138.306000", "145140.306000", "145142.806000", "145144.306000", "145146.306000", "145148.305000", "145150.306000", "145152.306000", "145154.307000", "145156.307000", "145158.307000", "145200.307000", "145202.305000", "145204.305000", "145206.306000", "145208.805000", "145210.305000", "145212.307000", "145214.306000", "145216.306000", "145218.305000", "145220.305000", "145222.306000", "145224.806000", "145226.305000", "145228.305000", "145230.306000", "145232.307000", "145234.307000", "145236.305000", "145238.305000", "145240.305000", "145242.359000"],
      "InstanceNumber": [1, 2, 3, 4, 5, 6, 7, 8, 9, 10, 11, 12, 13, 14, 15, 16, 17, 18, 19, 20, 21, 22, 23, 24, 25, 26, 27, 28, 29, 30, 31, 32, 33, 34, 35, 36, 37, 38, 39, 40, 41, 42, 43, 44, 45, 46, 47, 48, 49, 50, 51, 52, 53, 54, 55, 56, 57, 58, 59, 60, 61, 62, 63, 64, 65, 66, 67, 68, 69, 70, 71, 72, 73, 74, 75, 76, 77, 78, 79, 80, 81, 82, 83, 84, 85, 86, 87, 88, 89, 90, 91, 92, 93, 94, 95, 96, 97, 98, 99, 100, 101, 102, 103, 104, 105, 106, 107, 108, 109, 110, 111, 112, 113, 114, 115, 116, 117, 118, 119, 120, 121, 122, 123, 124, 125, 126, 127, 128, 129, 130, 131, 132, 133, 134, 135, 136, 137, 138, 139, 140, 141, 142, 143, 144, 145, 146, 147, 148, 149, 150, 151, 152, 153, 154, 155, 156],
      "LargestImagePixelValue": [3094, 3039, 3029, 3025, 3017, 3030, 3016, 3006, 3069, 3090, 3050, 3042, 3035, 3018, 3010, 3024, 3131, 3166, 3094, 3143, 3040, 3070, 3093, 3060, 3055, 3090, 3264, 3023, 3096, 3138, 3049, 3038, 3023, 3065, 3056, 3032, 3080, 3064, 3068, 3081, 3065, 3054, 3067, 3044, 3018, 3056, 3081, 3060, 3048, 3030, 3006, 3054, 3056, 3039, 3031, 3005, 3086, 3121, 3079, 3146, 3067, 3186, 3035, 3037, 3008, 3119, 3049, 3042, 3062, 3079, 3036, 3050, 3047, 3034, 3007, 3082, 3045, 3095, 3079, 3138, 3048, 3034, 2998, 3050, 3022, 3061, 3016, 3030, 3000, 3045, 3065, 3008, 3013, 3070, 3018, 2967, 3037, 3067, 3026, 3019, 3022, 3043, 3044, 3051, 3104, 3220, 3049, 3015, 3010, 3043, 3041, 3021, 3023, 3219, 3074, 3153, 3077, 3029, 3035, 3013, 2983, 2965, 2969, 3095, 3216, 2960, 2978, 3019, 3054, 3036, 3103, 3105, 3044, 3082, 3065, 3062, 2998, 2982, 2983, 2998, 2964, 2993, 2956, 2959, 2995, 3158, 3100, 2980, 2968, 3150, 3037, 3063, 3023, 3016, 2991, 3019],
      "WindowCenter": [748.0, 747.0, 748.0, 749.0, 750.0, 751.0, 751.0, 751.0, 753.0, 754.0, 753.0, 753.0, 753.0, 753.0, 754.0, 753.0, 754.0, 754.0, 752.0, 753.0, 752.0, 753.0, 753.0, 753.0, 754.0, 753.0, 754.0, 751.0, 752.0, 753.0, 751.0, 752.0, 752.0, 754.0, 754.0, 754.0, 754.0, 753.0, 754.0, 754.0, 753.0, 753.0, 751.0, 751.0, 752.0, 751.0, 752.0, 752.0, 752.0, 751.0, 749.0, 751.0, 752.0, 752.0, 751.0, 751.0, 752.0, 753.0, 753.0, 753.0, 752.0, 753.0, 752.0, 752.0, 752.0, 752.0, 749.0, 749.0, 752.0, 752.0, 752.0, 752.0, 752.0, 752.0, 752.0, 752.0, 752.0, 753.0, 752.0, 751.0, 750.0, 752.0, 752.0, 751.0, 750.0, 751.0, 750.0, 750.0, 751.0, 751.0, 750.0, 748.0, 750.0, 751.0, 751.0, 749.0, 751.0, 750.0, 749.0, 749.0, 750.0, 751.0, 751.0, 752.0, 754.0, 755.0, 753.0, 753.0, 753.0, 752.0, 751.0, 751.0, 752.0, 754.0, 752.0, 752.0, 752.0, 752.0, 753.0, 753.0, 752.0, 750.0, 752.0, 754.0, 754.0, 750.0, 749.0, 749.0, 750.0, 751.0, 752.0, 752.0, 752.0, 752.0, 752.0, 752.0, 752.0, 753.0, 752.0, 752.0, 752.0, 753.0, 752.0, 751.0, 751.0, 752.0, 752.0, 752.0, 753.0, 754.0, 751.0, 751.0, 751.0, 752.0, 751.0, 751.0],
      "WindowWidth": [1591.0, 1588.0, 1592.0, 1595.0, 1596.0, 1598.0, 1598.0, 1600.0, 1604.0, 1605.0, 1604.0, 1604.0, 1605.0, 1603.0, 1605.0, 1603.0, 1606.0, 1605.0, 1602.0, 1603.0, 1602.0, 1603.0, 1604.0, 1604.0, 1605.0, 1604.0, 1605.0, 1599.0, 1602.0, 1603.0, 1600.0, 1600.0, 1602.0, 1605.0, 1605.0, 1605.0, 1606.0, 1604.0, 1607.0, 1606.0, 1605.0, 1604.0, 1599.0, 1597.0, 1600.0, 1599.0, 1601.0, 1602.0, 1602.0, 1598.0, 1594.0, 1598.0, 1601.0, 1601.0, 1599.0, 1598.0, 1602.0, 1604.0, 1603.0, 1603.0, 1602.0, 1603.0, 1601.0, 1602.0, 1601.0, 1601.0, 1594.0, 1593.0, 1600.0, 1601.0, 1600.0, 1600.0, 1600.0, 1602.0, 1601.0, 1601.0, 1601.0, 1604.0, 1601.0, 1598.0, 1597.0, 1600.0, 1600.0, 1599.0, 1597.0, 1597.0, 1597.0, 1597.0, 1598.0, 1597.0, 1595.0, 1591.0, 1595.0, 1597.0, 1598.0, 1595.0, 1597.0, 1596.0, 1594.0, 1593.0, 1596.0, 1599.0, 1597.0, 1600.0, 1606.0, 1608.0, 1604.0, 1604.0, 1603.0, 1601.0, 1599.0, 1599.0, 1601.0, 1606.0, 1601.0, 1601.0, 1601.0, 1602.0, 1603.0, 1603.0, 1601.0, 1597.0, 1601.0, 1606.0, 1605.0, 1595.0, 1592.0, 1593.0, 1597.0, 1598.0, 1600.0, 1600.0, 1600.0, 1601.0, 1601.0, 1601.0, 1602.0, 1603.0, 1603.0, 1602.0, 1601.0, 1604.0, 1601.0, 1599.0, 1598.0, 1601.0, 1601.0, 1601.0, 1604.0, 1605.0, 1599.0, 1598.0, 1599.0, 1600.0, 1599.0, 1598.0]
    },
    "slices": {}
  }
}