{
  "AcquisitionMatrixPE": 100,
  "AcquisitionNumber": 1,
  "AcquisitionTime": "14:29:42.772500",
  "BandwidthPerPixelPhaseEncode": 18.519,
  "BaseResolution": 100,
  "BodyPartExamined": "BRAIN",
  "CoilCombinationMethod": "Sum of Squares",
  "ConsistencyInfo": "N4_VE11C_LATEST_20160120",
  "ConversionSoftware": "dcm2niix",
  "ConversionSoftwareVersion": "v1.0.20211006",
  "DerivedVendorReportedEchoSpacing": 0.000539986,
  "DeviceSerialNumber": "166078",
  "DwellTime": 2.1e-06,
  "EchoTime": 0.034,
  "EchoTrainLength": 100,
  "EffectiveEchoSpacing": 0.000539986,
  "FlipAngle": 90,
  "ImageOrientationPatientDICOM": [1, 4.13517e-05, 0.000327312, -3.90952e-08, 0.992129, -0.125223],
  "ImageOrientationText": "Tra>Cor(-7.2)>Sag(0.0)",
  "ImageType": [
    "ORIGINAL",
    "PRIMARY",
    "M",
    "ND",
    "MOSAIC"
],
  "ImagingFrequency": 123.258,
  "InPlanePhaseEncodingDirectionDICOM": "COL",
  "InstitutionAddress": "Street StreetNo,Bei Jing,District,CN,ZIP",
  "InstitutionName": "BeiJing Normal University",
  "InstitutionalDepartmentName": "Department",
  "MRAcquisitionType": "2D",
  "MagneticFieldStrength": 3,
  "Manufacturer": "Siemens",
  "ManufacturersModelName": "Prisma",
  "Modality": "MR",
  "MultibandAccelerationFactor": 3,
  "PartialFourier": 1,
  "PatientPosition": "HFS",
  "PercentPhaseFOV": 100,
  "PercentSampling": 100,
  "PhaseEncodingDirection": "j-",
  "PhaseEncodingSteps": 100,
  "PhaseResolution": 1,
  "PixelBandwidth": 2380,
  "ProcedureStepDescription": "BNU_P2018_64CH^Zhen.ZongLei",
  "ProtocolName": "bold_100x100_s3_2x2x2_static_156",
  "PulseSequenceDetails": "%SiemensSeq%\\ep2d_bold",
  "ReceiveCoilActiveElements": "HC1-7;NC1",
  "ReceiveCoilName": "HeadNeck_64",
  "ReconMatrixPE": 100,
  "RefLinesPE": 32,
  "RepetitionTime": 2,
  "SAR": 0.080879,
  "ScanOptions": "FS",
  "ScanningSequence": "EP",
  "SequenceName": "*epfid2d1_100",
  "SequenceVariant": "SK",
  "SeriesDescription": "bold_100x100_s3_2x2x2_static_156",
  "SeriesNumber": 4,
  "ShimSetting": [-5474, -11505, -1255, 265, -37, -215, -59, 21],
  "SliceThickness": 2,
  "SliceTiming": [1.485, 0, 0.99, 0.0825, 1.0725, 0.165, 1.155, 0.2475, 1.2375, 0.33, 1.32, 0.4125, 1.4025, 0.5775, 1.5675, 0.66, 1.65, 0.7425, 1.7325, 0.825, 1.815, 0.9075, 1.8975, 0.495, 1.485, 0, 0.99, 0.0825, 1.0725, 0.165, 1.155, 0.2475, 1.2375, 0.33, 1.32, 0.4125, 1.4025, 0.5775, 1.5675, 0.66, 1.65, 0.7425, 1.7325, 0.825, 1.815, 0.9075, 1.8975, 0.495, 1.485, 0, 0.99, 0.0825, 1.0725, 0.165, 1.155, 0.2475, 1.2375, 0.33, 1.32, 0.4125, 1.4025, 0.5775, 1.5675, 0.66, 1.65, 0.7425, 1.7325, 0.825, 1.815, 0.9075, 1.8975, 0.495],
  "SoftwareVersions": "syngo MR E11",
  "SpacingBetweenSlices": 2,
  "StationName": "AWP166078",
  "TaskName": "action",
  "TotalReadoutTime": 0.0534586,
  "TxRefAmp": 252.632,
  "dcmmeta_affine": [
    [-1.9999998807907104, -7.81903892743685e-08, 0.0006598280742764473, 100.4209213256836],
    [-8.270342368632555e-05, 1.9842572212219238, -0.2504465878009796, -84.93669891357422],
    [0.000654624484013766, 0.2504465878009796, 1.9842571020126343, -77.17183685302734],
    [0.0, 0.0, 0.0, 1.0]
],
  "dcmmeta_reorient_transform": [
    [0.0, -1.0, 0.0, 99.0],
    [1.0, 0.0, 0.0, 0.0],
    [0.0, 0.0, 1.0, 0.0],
    [0.0, 0.0, 0.0, 1.0]
],
  "dcmmeta_shape": [100, 100, 72, 156],
  "dcmmeta_slice_dim": 2,
  "dcmmeta_version": 0.6,
  "global": {
    "const": {
      "AcquisitionMatrix": [100, 0, 0, 100],
      "AngioFlag": "N",
      "BitsAllocated": 16,
      "BitsStored": 12,
      "BodyPartExamined": "BRAIN",
      "Columns": 900,
      "EchoNumbers": 1,
      "EchoTime": 34.0,
      "EchoTrainLength": 100,
      "FlipAngle": 90.0,
      "HighBit": 11,
      "ImageOrientationPatient": [0.99999994557837, 4.135171023e-05, 0.00032731223654, -3.9095196e-08, 0.99212858292972, -0.1252233002834],
      "ImagePositionPatient": [-900.42084237595, -905.24070953991, 47.539163595227],
      "ImageType": [
        "ORIGINAL",
        "PRIMARY",
        "M",
        "ND",
        "MOSAIC"
],
      "ImagedNucleus": "1H",
      "ImagingFrequency": 123.257732,
      "InPlanePhaseEncodingDirection": "COL",
      "MRAcquisitionType": "2D",
      "MagneticFieldStrength": 3.0,
      "Manufacturer": "SIEMENS",
      "ManufacturerModelName": "Prisma",
      "Modality": "MR",
      "NumberOfAverages": 1.0,
      "NumberOfPhaseEncodingSteps": 100,
      "PercentPhaseFieldOfView": 100.0,
      "PercentSampling": 100.0,
      "PerformedProcedureStepStartTime": "142104.898000",
      "PhotometricInterpretation": "MONOCHROME2",
      "PixelBandwidth": 2380.0,
      "PixelRepresentation": 0,
      "PixelSpacing": [2.0, 2.0],
      "ProtocolName": "bold_100x100_s3_2x2x2_static_156",
      "RepetitionTime": 2000.0,
      "Rows": 900,
      "SAR": 0.0808789478676,
      "SamplesPerPixel": 1,
      "ScanOptions": "FS",
      "ScanningSequence": "EP",
      "SequenceName": "*epfid2d1_100",
      "SequenceVariant": "SK",
      "SeriesDescription": "bold_100x100_s3_2x2x2_static_156",
      "SeriesNumber": 4,
      "SeriesTime": "142945.362000",
      "SliceLocation": -65.895201111612,
      "SliceThickness": 2.0,
      "SmallestImagePixelValue": 0,
      "SoftwareVersions": "syngo MR E11",
      "SpacingBetweenSlices": 2.0000000622757,
      "SpecificCharacterSet": "ISO_IR 100",
      "StudyID": "1",
      "StudyTime": "142104.807000",
      "TransmitCoilName": "Body",
      "VariableFlipAngleFlag": "N",
      "WindowCenterWidthExplanation": "Algo1",
      "dBdt": 0.0},
    "slices": {}
  },
  "time": {
    "samples": {
      "AcquisitionNumber": [1, 2, 3, 4, 5, 6, 7, 8, 9, 10, 11, 12, 13, 14, 15, 16, 17, 18, 19, 20, 21, 22, 23, 24, 25, 26, 27, 28, 29, 30, 31, 32, 33, 34, 35, 36, 37, 38, 39, 40, 41, 42, 43, 44, 45, 46, 47, 48, 49, 50, 51, 52, 53, 54, 55, 56, 57, 58, 59, 60, 61, 62, 63, 64, 65, 66, 67, 68, 69, 70, 71, 72, 73, 74, 75, 76, 77, 78, 79, 80, 81, 82, 83, 84, 85, 86, 87, 88, 89, 90, 91, 92, 93, 94, 95, 96, 97, 98, 99, 100, 101, 102, 103, 104, 105, 106, 107, 108, 109, 110, 111, 112, 113, 114, 115, 116, 117, 118, 119, 120, 121, 122, 123, 124, 125, 126, 127, 128, 129, 130, 131, 132, 133, 134, 135, 136, 137, 138, 139, 140, 141, 142, 143, 144, 145, 146, 147, 148, 149, 150, 151, 152, 153, 154, 155, 156],
      "AcquisitionTime": ["142942.772500", "142944.772500", "142946.772500", "142948.772500", "142950.772500", "142952.772500", "142954.772500", "142956.772500", "142958.772500", "143000.772500", "143002.772500", "143004.772500", "143006.772500", "143008.772500", "143010.772500", "143012.772500", "143014.772500", "143016.772500", "143018.772500", "143020.772500", "143022.772500", "143024.772500", "143026.772500", "143028.772500", "143030.772500", "143032.772500", "143034.772500", "143036.772500", "143038.772500", "143040.772500", "143042.772500", "143044.772500", "143046.772500", "143048.772500", "143050.772500", "143052.772500", "143054.772500", "143056.772500", "143058.772500", "143100.772500", "143102.772500", "143104.772500", "143106.772500", "143108.772500", "143110.772500", "143112.772500", "143114.772500", "143116.772500", "143118.772500", "143120.772500", "143122.772500", "143124.772500", "143126.772500", "143128.772500", "143130.772500", "143132.772500", "143134.772500", "143136.772500", "143138.772500", "143140.772500", "143142.772500", "143144.772500", "143146.772500", "143148.772500", "143150.772500", "143152.772500", "143154.772500", "143156.772500", "143158.772500", "143200.772500", "143202.772500", "143204.772500", "143206.772500", "143208.772500", "143210.772500", "143212.772500", "143214.772500", "143216.772500", "143218.772500", "143220.772500", "143222.772500", "143224.772500", "143226.772500", "143228.772500", "143230.772500", "143232.772500", "143234.772500", "143236.772500", "143238.772500", "143240.772500", "143242.772500", "143244.772500", "143246.772500", "143248.772500", "143250.772500", "143252.772500", "143254.772500", "143256.772500", "143258.772500", "143300.772500", "143302.772500", "143304.772500", "143306.772500", "143308.772500", "143310.772500", "143312.772500", "143314.772500", "143316.772500", "143318.772500", "143320.772500", "143322.772500", "143324.772500", "143326.772500", "143328.772500", "143330.772500", "143332.772500", "143334.772500", "143336.772500", "143338.772500", "143340.772500", "143342.772500", "143344.772500", "143346.772500", "143348.772500", "143350.772500", "143352.772500", "143354.772500", "143356.772500", "143358.772500", "143400.772500", "143402.772500", "143404.772500", "143406.772500", "143408.772500", "143410.772500", "143412.772500", "143414.772500", "143416.772500", "143418.772500", "143420.772500", "143422.772500", "143424.772500", "143426.772500", "143428.772500", "143430.772500", "143432.772500", "143434.772500", "143436.772500", "143438.772500", "143440.772500", "143442.772500", "143444.772500", "143446.772500", "143448.772500", "143450.772500", "143452.772500"],
      "ContentTime": ["142945.366000", "142946.862000", "142948.862000", "142950.863000", "142952.862000", "142954.862000", "142956.861000", "142958.862000", "143000.861000", "143002.861000", "143004.863000", "143006.862000", "143008.862000", "143010.863000", "143012.861000", "143014.862000", "143016.862000", "143018.861000", "143020.863000", "143022.863000", "143024.863000", "143026.862000", "143028.862000", "143030.861000", "143032.862000", "143034.862000", "143036.862000", "143038.863000", "143040.863000", "143042.862000", "143044.863000", "143046.862000", "143048.862000", "143050.862000", "143052.862000", "143054.862000", "143056.863000", "143058.863000", "143100.863000", "143102.863000", "143104.862000", "143106.861000", "143108.861000", "143110.862000", "143112.862000", "143114.863000", "143116.863000", "143118.863000", "143120.863000", "143122.862000", "143124.862000", "143126.862000", "143128.862000", "143130.863000", "143132.863000", "143134.862000", "143136.863000", "143138.863000", "143140.862000", "143142.861000", "143144.862000", "143146.861000", "143148.862000", "143150.863000", "143152.862000", "143154.862000", "143156.862000", "143158.862000", "143200.861000", "143202.861000", "143204.861000", "143206.862000", "143208.863000", "143210.863000", "143212.863000", "143214.863000", "143216.861000", "143218.861000", "143220.865000", "143222.863000", "143224.863000", "143226.863000", "143228.863000", "143230.863000", "143232.862000", "143234.862000", "143236.861000", "143238.862000", "143240.863000", "143242.863000", "143244.863000", "143246.863000", "143248.862000", "143250.862000", "143252.864000", "143254.862000", "143256.862000", "143258.863000", "143300.863000", "143302.863000", "143304.863000", "143306.863000", "143308.861000", "143310.861000", "143312.861000", "143314.862000", "143316.862000", "143318.862000", "143320.863000", "143322.862000", "143324.863000", "143326.861000", "143328.861000", "143330.861000", "143332.862000", "143334.863000", "143336.863000", "143338.863000", "143340.863000", "143342.862000", "143344.861000", "143346.862000", "143348.862000", "143350.862000", "143352.862000", "143354.862000", "143356.862000", "143358.863000", "143400.862000", "143402.861000", "143404.861000", "143406.862000", "143408.863000", "143410.863000", "143412.863000", "143414.863000", "143416.863000", "143418.862000", "143420.862000", "143422.862000", "143424.861000", "143426.862000", "143428.863000", "143430.863000", "143432.862000", "143434.862000", "143436.861000", "143438.862000", "143440.862000", "143442.862000", "143444.862000", "143446.863000", "143448.863000", "143450.862000", "143452.862000", "143454.671000"],
      "InstanceCreationTime": ["142945.366000", "142946.862000", "142948.862000", "142950.863000", "142952.862000", "142954.862000", "142956.861000", "142958.862000", "143000.861000", "143002.861000", "143004.863000", "143006.862000", "143008.862000", "143010.863000", "143012.861000", "143014.862000", "143016.862000", "143018.861000", "143020.863000", "143022.863000", "143024.863000", "143026.862000", "143028.862000", "143030.861000", "143032.862000", "143034.862000", "143036.862000", "143038.863000", "143040.863000", "143042.862000", "143044.863000", "143046.862000", "143048.862000", "143050.862000", "143052.862000", "143054.862000", "143056.863000", "143058.863000", "143100.863000", "143102.863000", "143104.862000", "143106.861000", "143108.861000", "143110.862000", "143112.862000", "143114.863000", "143116.863000", "143118.863000", "143120.863000", "143122.862000", "143124.862000", "143126.862000", "143128.862000", "143130.863000", "143132.863000", "143134.862000", "143136.863000", "143138.863000", "143140.862000", "143142.861000", "143144.862000", "143146.861000", "143148.862000", "143150.863000", "143152.862000", "143154.862000", "143156.862000", "143158.862000", "143200.861000", "143202.861000", "143204.861000", "143206.862000", "143208.863000", "143210.863000", "143212.863000", "143214.863000", "143216.861000", "143218.861000", "143220.865000", "143222.863000", "143224.863000", "143226.863000", "143228.863000", "143230.863000", "143232.862000", "143234.862000", "143236.861000", "143238.862000", "143240.863000", "143242.863000", "143244.863000", "143246.863000", "143248.862000", "143250.862000", "143252.864000", "143254.862000", "143256.862000", "143258.863000", "143300.863000", "143302.863000", "143304.863000", "143306.863000", "143308.861000", "143310.861000", "143312.861000", "143314.862000", "143316.862000", "143318.862000", "143320.863000", "143322.862000", "143324.863000", "143326.861000", "143328.861000", "143330.861000", "143332.862000", "143334.863000", "143336.863000", "143338.863000", "143340.863000", "143342.862000", "143344.861000", "143346.862000", "143348.862000", "143350.862000", "143352.862000", "143354.862000", "143356.862000", "143358.863000", "143400.862000", "143402.861000", "143404.861000", "143406.862000", "143408.863000", "143410.863000", "143412.863000", "143414.863000", "143416.863000", "143418.862000", "143420.862000", "143422.862000", "143424.861000", "143426.862000", "143428.863000", "143430.863000", "143432.862000", "143434.862000", "143436.861000", "143438.862000", "143440.862000", "143442.862000", "143444.862000", "143446.863000", "143448.863000", "143450.862000", "143452.862000", "143454.671000"],
      "InstanceNumber": [1, 2, 3, 4, 5, 6, 7, 8, 9, 10, 11, 12, 13, 14, 15, 16, 17, 18, 19, 20, 21, 22, 23, 24, 25, 26, 27, 28, 29, 30, 31, 32, 33, 34, 35, 36, 37, 38, 39, 40, 41, 42, 43, 44, 45, 46, 47, 48, 49, 50, 51, 52, 53, 54, 55, 56, 57, 58, 59, 60, 61, 62, 63, 64, 65, 66, 67, 68, 69, 70, 71, 72, 73, 74, 75, 76, 77, 78, 79, 80, 81, 82, 83, 84, 85, 86, 87, 88, 89, 90, 91, 92, 93, 94, 95, 96, 97, 98, 99, 100, 101, 102, 103, 104, 105, 106, 107, 108, 109, 110, 111, 112, 113, 114, 115, 116, 117, 118, 119, 120, 121, 122, 123, 124, 125, 126, 127, 128, 129, 130, 131, 132, 133, 134, 135, 136, 137, 138, 139, 140, 141, 142, 143, 144, 145, 146, 147, 148, 149, 150, 151, 152, 153, 154, 155, 156],
      "LargestImagePixelValue": [3051, 3033, 3016, 3088, 3067, 3144, 3158, 3117, 2893, 2898, 2936, 2913, 2900, 2908, 2889, 2870, 2929, 3052, 3122, 3035, 3025, 2983, 3082, 2963, 2922, 2934, 2902, 2926, 2913, 2886, 2953, 2927, 2881, 2907, 2912, 2872, 2923, 2963, 2956, 3072, 2989, 2926, 2918, 2945, 2935, 2925, 2944, 2951, 2923, 2942, 2928, 2953, 2980, 3092, 3116, 3181, 2945, 2975, 2952, 2968, 2895, 2990, 3083, 2916, 2964, 3098, 3068, 3130, 2951, 2991, 2957, 3003, 2953, 3000, 3013, 2988, 2988, 2985, 2987, 3028, 2991, 2984, 2991, 2967, 3031, 3005, 2997, 3006, 3058, 3001, 3004, 3046, 2991, 2958, 3006, 3009, 3004, 3020, 2999, 2997, 3008, 2999, 2978, 3003, 3031, 3031, 2995, 3023, 3031, 2990, 3012, 3008, 2989, 3000, 3031, 3103, 3040, 3070, 3022, 3027, 2985, 3035, 3027, 2946, 2973, 2989, 2998, 3002, 2983, 3035, 2997, 3019, 2994, 2997, 2976, 2995, 2981, 3003, 2992, 2990, 2978, 3031, 3008, 3107, 3031, 3001, 2969, 2972, 2995, 2984, 2996, 2995, 2959, 2944, 2979, 3000],
      "WindowCenter": [749.0, 747.0, 747.0, 747.0, 748.0, 749.0, 749.0, 749.0, 748.0, 748.0, 748.0, 747.0, 747.0, 747.0, 747.0, 748.0, 748.0, 748.0, 748.0, 746.0, 748.0, 747.0, 749.0, 747.0, 748.0, 748.0, 747.0, 747.0, 748.0, 748.0, 748.0, 746.0, 747.0, 747.0, 748.0, 748.0, 747.0, 748.0, 748.0, 747.0, 747.0, 748.0, 748.0, 747.0, 747.0, 747.0, 746.0, 746.0, 747.0, 747.0, 747.0, 747.0, 748.0, 749.0, 748.0, 748.0, 747.0, 748.0, 749.0, 749.0, 749.0, 749.0, 750.0, 749.0, 749.0, 750.0, 748.0, 749.0, 748.0, 749.0, 748.0, 749.0, 748.0, 748.0, 748.0, 749.0, 749.0, 749.0, 747.0, 748.0, 749.0, 748.0, 748.0, 748.0, 749.0, 749.0, 750.0, 749.0, 750.0, 749.0, 748.0, 747.0, 747.0, 747.0, 747.0, 747.0, 747.0, 747.0, 748.0, 749.0, 750.0, 749.0, 747.0, 747.0, 749.0, 749.0, 749.0, 750.0, 750.0, 749.0, 749.0, 749.0, 749.0, 749.0, 748.0, 749.0, 749.0, 749.0, 749.0, 750.0, 749.0, 748.0, 749.0, 747.0, 747.0, 749.0, 749.0, 749.0, 749.0, 751.0, 750.0, 751.0, 751.0, 749.0, 748.0, 749.0, 749.0, 750.0, 749.0, 748.0, 748.0, 750.0, 749.0, 749.0, 748.0, 749.0, 750.0, 750.0, 750.0, 749.0, 749.0, 749.0, 747.0, 746.0, 747.0, 747.0],
      "WindowWidth": [1597.0, 1591.0, 1590.0, 1590.0, 1592.0, 1594.0, 1595.0, 1596.0, 1593.0, 1594.0, 1593.0, 1591.0, 1590.0, 1590.0, 1592.0, 1593.0, 1593.0, 1593.0, 1592.0, 1589.0, 1592.0, 1591.0, 1594.0, 1591.0, 1592.0, 1594.0, 1592.0, 1590.0, 1593.0, 1594.0, 1592.0, 1589.0, 1592.0, 1592.0, 1594.0, 1593.0, 1591.0, 1592.0, 1592.0, 1592.0, 1591.0, 1593.0, 1593.0, 1590.0, 1589.0, 1590.0, 1589.0, 1589.0, 1591.0, 1592.0, 1591.0, 1592.0, 1594.0, 1596.0, 1593.0, 1592.0, 1590.0, 1592.0, 1595.0, 1595.0, 1596.0, 1595.0, 1598.0, 1595.0, 1595.0, 1597.0, 1593.0, 1595.0, 1594.0, 1596.0, 1593.0, 1594.0, 1592.0, 1593.0, 1593.0, 1595.0, 1596.0, 1595.0, 1589.0, 1592.0, 1594.0, 1592.0, 1593.0, 1592.0, 1596.0, 1597.0, 1598.0, 1596.0, 1598.0, 1596.0, 1593.0, 1591.0, 1591.0, 1591.0, 1591.0, 1590.0, 1590.0, 1591.0, 1592.0, 1594.0, 1597.0, 1595.0, 1590.0, 1591.0, 1595.0, 1595.0, 1595.0, 1597.0, 1597.0, 1595.0, 1595.0, 1595.0, 1594.0, 1595.0, 1593.0, 1594.0, 1594.0, 1595.0, 1596.0, 1597.0, 1594.0, 1593.0, 1595.0, 1591.0, 1592.0, 1595.0, 1594.0, 1596.0, 1595.0, 1599.0, 1598.0, 1599.0, 1600.0, 1595.0, 1592.0, 1595.0, 1596.0, 1598.0, 1596.0, 1593.0, 1594.0, 1597.0, 1595.0, 1595.0, 1594.0, 1594.0, 1597.0, 1597.0, 1596.0, 1595.0, 1595.0, 1594.0, 1591.0, 1588.0, 1590.0, 1591.0]
    },
    "slices": {}
  }
}