{
  "AcquisitionMatrixPE": 100,
  "AcquisitionNumber": 1,
  "AcquisitionTime": "14:22:37.245000",
  "BandwidthPerPixelPhaseEncode": 18.519,
  "BaseResolution": 100,
  "BodyPartExamined": "BRAIN",
  "CoilCombinationMethod": "Sum of Squares",
  "ConsistencyInfo": "N4_VE11C_LATEST_20160120",
  "ConversionSoftware": "dcm2niix",
  "ConversionSoftwareVersion": "v1.0.20211006",
  "DerivedVendorReportedEchoSpacing": 0.000539986,
  "DeviceSerialNumber": "166078",
  "DwellTime": 2.1e-06,
  "EchoTime": 0.034,
  "EchoTrainLength": 100,
  "EffectiveEchoSpacing": 0.000539986,
  "FlipAngle": 90,
  "ImageOrientationPatientDICOM": [1, 0, 0, 0, 0.958323, -0.285688],
  "ImageOrientationText": "Tra>Cor(-16.6)",
  "ImageType": [
    "ORIGINAL",
    "PRIMARY",
    "M",
    "ND",
    "MOSAIC"
],
  "ImagingFrequency": 123.258,
  "InPlanePhaseEncodingDirectionDICOM": "COL",
  "InstitutionAddress": "Street StreetNo,Bei Jing,District,CN,ZIP",
  "InstitutionName": "BeiJing Normal University",
  "InstitutionalDepartmentName": "Department",
  "MRAcquisitionType": "2D",
  "MagneticFieldStrength": 3,
  "Manufacturer": "Siemens",
  "ManufacturersModelName": "Prisma",
  "Modality": "MR",
  "MultibandAccelerationFactor": 3,
  "PartialFourier": 1,
  "PatientPosition": "HFS",
  "PercentPhaseFOV": 100,
  "PercentSampling": 100,
  "PhaseEncodingDirection": "j-",
  "PhaseEncodingSteps": 100,
  "PhaseResolution": 1,
  "PixelBandwidth": 2380,
  "ProcedureStepDescription": "BNU_P2018_64CH^Zhen.ZongLei",
  "ProtocolName": "bold_100x100_s3_2x2x2_static_156",
  "PulseSequenceDetails": "%SiemensSeq%\\ep2d_bold",
  "ReceiveCoilActiveElements": "HC1-7;NC1",
  "ReceiveCoilName": "HeadNeck_64",
  "ReconMatrixPE": 100,
  "RefLinesPE": 32,
  "RepetitionTime": 2,
  "SAR": 0.06971,
  "ScanOptions": "FS",
  "ScanningSequence": "EP",
  "SequenceName": "*epfid2d1_100",
  "SequenceVariant": "SK",
  "SeriesDescription": "bold_100x100_s3_2x2x2_static_156",
  "SeriesNumber": 3,
  "ShimSetting": [-5468, -11462, -1276, 307, -14, -88, -198, 92],
  "SliceThickness": 2,
  "SliceTiming": [1.485, 0, 0.99, 0.0825, 1.0725, 0.165, 1.155, 0.2475, 1.2375, 0.33, 1.32, 0.4125, 1.4025, 0.5775, 1.5675, 0.66, 1.65, 0.7425, 1.7325, 0.825, 1.815, 0.9075, 1.8975, 0.495, 1.485, 0, 0.99, 0.0825, 1.0725, 0.165, 1.155, 0.2475, 1.2375, 0.33, 1.32, 0.4125, 1.4025, 0.5775, 1.5675, 0.66, 1.65, 0.7425, 1.7325, 0.825, 1.815, 0.9075, 1.8975, 0.495, 1.485, 0, 0.99, 0.0825, 1.0725, 0.165, 1.155, 0.2475, 1.2375, 0.33, 1.32, 0.4125, 1.4025, 0.5775, 1.5675, 0.66, 1.65, 0.7425, 1.7325, 0.825, 1.815, 0.9075, 1.8975, 0.495],
  "SoftwareVersions": "syngo MR E11",
  "SpacingBetweenSlices": 2,
  "StationName": "AWP166078",
  "TaskName": "action",
  "TotalReadoutTime": 0.0534586,
  "TxRefAmp": 227.833,
  "dcmmeta_affine": [
    [-2.0, 0.0, 0.0, 100.0],
    [0.0, 1.9166451692581177, -0.5713766813278198, -72.54215240478516],
    [0.0, 0.5713767409324646, 1.9166451692581177, -92.9390869140625],
    [0.0, 0.0, 0.0, 1.0]
],
  "dcmmeta_reorient_transform": [
    [0.0, -1.0, 0.0, 99.0],
    [1.0, 0.0, 0.0, 0.0],
    [0.0, 0.0, 1.0, 0.0],
    [0.0, 0.0, 0.0, 1.0]
],
  "dcmmeta_shape": [100, 100, 72, 156],
  "dcmmeta_slice_dim": 2,
  "dcmmeta_version": 0.6,
  "global": {
    "const": {
      "AcquisitionMatrix": [100, 0, 0, 100],
      "AngioFlag": "N",
      "BitsAllocated": 16,
      "BitsStored": 12,
      "BodyPartExamined": "BRAIN",
      "Columns": 900,
      "EchoNumbers": 1,
      "EchoTime": 34.0,
      "EchoTrainLength": 100,
      "FlipAngle": 90.0,
      "HighBit": 11,
      "ImageOrientationPatient": [1.0, 0.0, 0.0, 0.0, 0.95832257648472, -0.2856883606304],
      "ImagePositionPatient": [-900.0, -883.86378151325, 192.17789706492],
      "ImageType": [
        "ORIGINAL",
        "PRIMARY",
        "M",
        "ND",
        "MOSAIC"
],
      "ImagedNucleus": "1H",
      "ImagingFrequency": 123.257697,
      "InPlanePhaseEncodingDirection": "COL",
      "MRAcquisitionType": "2D",
      "MagneticFieldStrength": 3.0,
      "Manufacturer": "SIEMENS",
      "ManufacturerModelName": "Prisma",
      "Modality": "MR",
      "NumberOfAverages": 1.0,
      "NumberOfPhaseEncodingSteps": 100,
      "PercentPhaseFieldOfView": 100.0,
      "PercentSampling": 100.0,
      "PerformedProcedureStepStartTime": "141948.320000",
      "PhotometricInterpretation": "MONOCHROME2",
      "PixelBandwidth": 2380.0,
      "PixelRepresentation": 0,
      "PixelSpacing": [2.0, 2.0],
      "ProtocolName": "bold_100x100_s3_2x2x2_static_156",
      "RepetitionTime": 2000.0,
      "Rows": 900,
      "SAR": 0.0697099620386,
      "SamplesPerPixel": 1,
      "ScanOptions": "FS",
      "ScanningSequence": "EP",
      "SequenceName": "*epfid2d1_100",
      "SequenceVariant": "SK",
      "SeriesDescription": "bold_100x100_s3_2x2x2_static_156",
      "SeriesNumber": 3,
      "SeriesTime": "142239.576000",
      "SliceLocation": -68.341177302438,
      "SliceThickness": 2.0,
      "SmallestImagePixelValue": 0,
      "SoftwareVersions": "syngo MR E11",
      "SpacingBetweenSlices": 1.9999999601565,
      "SpecificCharacterSet": "ISO_IR 100",
      "StudyID": "1",
      "StudyTime": "141948.217000",
      "TransmitCoilName": "Body",
      "VariableFlipAngleFlag": "N",
      "WindowCenterWidthExplanation": "Algo1",
      "dBdt": 0.0},
    "slices": {}
  },
  "time": {
    "samples": {
      "AcquisitionNumber": [1, 2, 3, 4, 5, 6, 7, 8, 9, 10, 11, 12, 13, 14, 15, 16, 17, 18, 19, 20, 21, 22, 23, 24, 25, 26, 27, 28, 29, 30, 31, 32, 33, 34, 35, 36, 37, 38, 39, 40, 41, 42, 43, 44, 45, 46, 47, 48, 49, 50, 51, 52, 53, 54, 55, 56, 57, 58, 59, 60, 61, 62, 63, 64, 65, 66, 67, 68, 69, 70, 71, 72, 73, 74, 75, 76, 77, 78, 79, 80, 81, 82, 83, 84, 85, 86, 87, 88, 89, 90, 91, 92, 93, 94, 95, 96, 97, 98, 99, 100, 101, 102, 103, 104, 105, 106, 107, 108, 109, 110, 111, 112, 113, 114, 115, 116, 117, 118, 119, 120, 121, 122, 123, 124, 125, 126, 127, 128, 129, 130, 131, 132, 133, 134, 135, 136, 137, 138, 139, 140, 141, 142, 143, 144, 145, 146, 147, 148, 149, 150, 151, 152, 153, 154, 155, 156],
      "AcquisitionTime": ["142237.245000", "142239.245000", "142241.245000", "142243.245000", "142245.245000", "142247.245000", "142249.245000", "142251.245000", "142253.245000", "142255.245000", "142257.245000", "142259.245000", "142301.245000", "142303.245000", "142305.245000", "142307.245000", "142309.245000", "142311.245000", "142313.245000", "142315.245000", "142317.245000", "142319.245000", "142321.245000", "142323.245000", "142325.245000", "142327.245000", "142329.245000", "142331.245000", "142333.245000", "142335.245000", "142337.245000", "142339.245000", "142341.245000", "142343.245000", "142345.245000", "142347.245000", "142349.245000", "142351.245000", "142353.245000", "142355.245000", "142357.245000", "142359.245000", "142401.245000", "142403.245000", "142405.245000", "142407.245000", "142409.245000", "142411.245000", "142413.245000", "142415.245000", "142417.245000", "142419.245000", "142421.245000", "142423.245000", "142425.245000", "142427.245000", "142429.245000", "142431.245000", "142433.245000", "142435.245000", "142437.245000", "142439.245000", "142441.245000", "142443.245000", "142445.245000", "142447.245000", "142449.245000", "142451.245000", "142453.245000", "142455.245000", "142457.245000", "142459.245000", "142501.245000", "142503.245000", "142505.245000", "142507.245000", "142509.245000", "142511.245000", "142513.245000", "142515.245000", "142517.245000", "142519.245000", "142521.245000", "142523.245000", "142525.245000", "142527.245000", "142529.245000", "142531.245000", "142533.245000", "142535.245000", "142537.245000", "142539.245000", "142541.245000", "142543.245000", "142545.245000", "142547.245000", "142549.245000", "142551.245000", "142553.245000", "142555.245000", "142557.245000", "142559.245000", "142601.245000", "142603.245000", "142605.245000", "142607.245000", "142609.245000", "142611.245000", "142613.245000", "142615.245000", "142617.245000", "142619.245000", "142621.245000", "142623.245000", "142625.245000", "142627.245000", "142629.245000", "142631.245000", "142633.245000", "142635.245000", "142637.245000", "142639.245000", "142641.245000", "142643.245000", "142645.245000", "142647.245000", "142649.245000", "142651.245000", "142653.245000", "142655.245000", "142657.245000", "142659.245000", "142701.245000", "142703.245000", "142705.245000", "142707.245000", "142709.245000", "142711.245000", "142713.245000", "142715.245000", "142717.245000", "142719.245000", "142721.245000", "142723.245000", "142725.245000", "142727.245000", "142729.245000", "142731.245000", "142733.245000", "142735.245000", "142737.245000", "142739.245000", "142741.245000", "142743.245000", "142745.245000", "142747.245000"],
      "ContentTime": ["142239.584000", "142241.075000", "142243.076000", "142245.077000", "142247.076000", "142249.076000", "142251.077000", "142253.076000", "142255.075000", "142257.075000", "142259.075000", "142301.076000", "142303.076000", "142305.076000", "142307.076000", "142309.076000", "142311.076000", "142313.076000", "142315.076000", "142317.076000", "142319.076000", "142321.076000", "142323.076000", "142325.076000", "142327.075000", "142329.076000", "142331.076000", "142333.075000", "142335.076000", "142337.076000", "142339.077000", "142341.076000", "142343.076000", "142345.075000", "142347.075000", "142349.076000", "142351.075000", "142353.076000", "142355.076000", "142357.076000", "142359.078000", "142401.076000", "142403.076000", "142405.076000", "142407.075000", "142409.076000", "142411.076000", "142413.078000", "142415.077000", "142417.077000", "142419.077000", "142421.076000", "142423.075000", "142425.076000", "142427.075000", "142429.077000", "142431.076000", "142433.076000", "142435.076000", "142437.075000", "142439.076000", "142441.076000", "142443.076000", "142445.075000", "142447.077000", "142449.076000", "142451.077000", "142453.077000", "142455.075000", "142457.075000", "142459.076000", "142501.076000", "142503.075000", "142505.077000", "142507.077000", "142509.077000", "142511.076000", "142513.076000", "142515.076000", "142517.075000", "142519.076000", "142521.076000", "142523.077000", "142525.076000", "142527.076000", "142529.077000", "142531.076000", "142533.076000", "142535.095000", "142537.076000", "142539.077000", "142541.077000", "142543.076000", "142545.077000", "142547.075000", "142549.075000", "142551.076000", "142553.075000", "142555.076000", "142557.076000", "142559.077000", "142601.077000", "142603.077000", "142605.075000", "142607.075000", "142609.075000", "142611.076000", "142613.075000", "142615.076000", "142617.076000", "142619.077000", "142621.077000", "142623.076000", "142625.076000", "142627.076000", "142629.076000", "142631.076000", "142633.077000", "142635.077000", "142637.076000", "142639.077000", "142641.075000", "142643.076000", "142645.076000", "142647.076000", "142649.076000", "142651.076000", "142653.077000", "142655.076000", "142657.075000", "142659.076000", "142701.076000", "142703.076000", "142705.076000", "142707.076000", "142709.077000", "142711.076000", "142713.076000", "142715.076000", "142717.076000", "142719.076000", "142721.076000", "142723.076000", "142725.077000", "142727.076000", "142729.077000", "142731.077000", "142733.076000", "142735.075000", "142737.075000", "142739.076000", "142741.077000", "142743.077000", "142745.076000", "142747.088000", "142748.889000"],
      "InstanceCreationTime": ["142239.584000", "142241.075000", "142243.076000", "142245.077000", "142247.076000", "142249.076000", "142251.077000", "142253.076000", "142255.075000", "142257.075000", "142259.075000", "142301.076000", "142303.076000", "142305.076000", "142307.076000", "142309.076000", "142311.076000", "142313.076000", "142315.076000", "142317.076000", "142319.076000", "142321.076000", "142323.076000", "142325.076000", "142327.075000", "142329.076000", "142331.076000", "142333.075000", "142335.076000", "142337.076000", "142339.077000", "142341.076000", "142343.076000", "142345.075000", "142347.075000", "142349.076000", "142351.075000", "142353.076000", "142355.076000", "142357.076000", "142359.078000", "142401.076000", "142403.076000", "142405.076000", "142407.075000", "142409.076000", "142411.076000", "142413.078000", "142415.077000", "142417.077000", "142419.077000", "142421.076000", "142423.075000", "142425.076000", "142427.075000", "142429.077000", "142431.076000", "142433.076000", "142435.076000", "142437.075000", "142439.076000", "142441.076000", "142443.076000", "142445.075000", "142447.077000", "142449.076000", "142451.077000", "142453.077000", "142455.075000", "142457.075000", "142459.076000", "142501.076000", "142503.075000", "142505.077000", "142507.077000", "142509.077000", "142511.076000", "142513.076000", "142515.076000", "142517.075000", "142519.076000", "142521.076000", "142523.077000", "142525.076000", "142527.076000", "142529.077000", "142531.076000", "142533.076000", "142535.095000", "142537.076000", "142539.077000", "142541.077000", "142543.076000", "142545.077000", "142547.075000", "142549.075000", "142551.076000", "142553.075000", "142555.076000", "142557.076000", "142559.077000", "142601.077000", "142603.077000", "142605.075000", "142607.075000", "142609.075000", "142611.076000", "142613.075000", "142615.076000", "142617.076000", "142619.077000", "142621.077000", "142623.076000", "142625.076000", "142627.076000", "142629.076000", "142631.076000", "142633.077000", "142635.077000", "142637.076000", "142639.077000", "142641.075000", "142643.076000", "142645.076000", "142647.076000", "142649.076000", "142651.076000", "142653.077000", "142655.076000", "142657.075000", "142659.076000", "142701.076000", "142703.076000", "142705.076000", "142707.076000", "142709.077000", "142711.076000", "142713.076000", "142715.076000", "142717.076000", "142719.076000", "142721.076000", "142723.076000", "142725.077000", "142727.076000", "142729.077000", "142731.077000", "142733.076000", "142735.075000", "142737.075000", "142739.076000", "142741.077000", "142743.077000", "142745.076000", "142747.088000", "142748.889000"],
      "InstanceNumber": [1, 2, 3, 4, 5, 6, 7, 8, 9, 10, 11, 12, 13, 14, 15, 16, 17, 18, 19, 20, 21, 22, 23, 24, 25, 26, 27, 28, 29, 30, 31, 32, 33, 34, 35, 36, 37, 38, 39, 40, 41, 42, 43, 44, 45, 46, 47, 48, 49, 50, 51, 52, 53, 54, 55, 56, 57, 58, 59, 60, 61, 62, 63, 64, 65, 66, 67, 68, 69, 70, 71, 72, 73, 74, 75, 76, 77, 78, 79, 80, 81, 82, 83, 84, 85, 86, 87, 88, 89, 90, 91, 92, 93, 94, 95, 96, 97, 98, 99, 100, 101, 102, 103, 104, 105, 106, 107, 108, 109, 110, 111, 112, 113, 114, 115, 116, 117, 118, 119, 120, 121, 122, 123, 124, 125, 126, 127, 128, 129, 130, 131, 132, 133, 134, 135, 136, 137, 138, 139, 140, 141, 142, 143, 144, 145, 146, 147, 148, 149, 150, 151, 152, 153, 154, 155, 156],
      "LargestImagePixelValue": [3275, 3210, 3178, 3176, 3186, 3206, 3197, 3174, 3221, 3240, 3233, 3265, 3221, 3155, 3253, 3197, 3129, 3226, 3206, 3133, 3148, 3151, 3128, 3196, 3197, 3206, 3266, 3213, 3138, 3233, 3175, 3193, 3200, 3140, 3231, 3174, 3209, 3254, 3194, 3146, 3231, 3265, 3259, 3316, 3301, 3236, 3286, 3226, 3181, 3197, 3227, 3225, 3235, 3184, 3257, 3260, 3283, 3242, 3253, 3277, 3227, 3199, 3284, 3289, 3322, 3343, 3336, 3309, 3271, 3306, 3325, 3319, 3297, 3309, 3238, 3208, 3300, 3296, 3310, 3356, 3363, 3382, 3415, 3334, 3349, 3371, 3341, 3322, 3338, 3323, 3372, 3357, 3380, 3376, 3354, 3342, 3326, 3392, 3366, 3336, 3327, 3326, 3351, 3324, 3323, 3357, 3320, 3317, 3336, 3293, 3314, 3367, 3360, 3325, 3386, 3354, 3369, 3383, 3345, 3359, 3363, 3353, 3369, 3359, 3381, 3366, 3402, 3444, 3399, 3404, 3391, 3346, 3336, 3366, 3376, 3391, 3370, 3381, 3341, 3366, 3361, 3374, 3412, 3342, 3321, 3331, 3326, 3359, 3376, 3389, 3398, 3341, 3338, 3377, 3325, 3318],
      "WindowCenter": [797.0, 794.0, 794.0, 795.0, 794.0, 793.0, 793.0, 793.0, 795.0, 797.0, 796.0, 796.0, 796.0, 796.0, 797.0, 796.0, 794.0, 794.0, 793.0, 792.0, 792.0, 794.0, 794.0, 794.0, 795.0, 795.0, 795.0, 793.0, 791.0, 792.0, 793.0, 793.0, 793.0, 792.0, 793.0, 793.0, 794.0, 794.0, 794.0, 794.0, 795.0, 794.0, 793.0, 794.0, 795.0, 795.0, 795.0, 794.0, 793.0, 794.0, 794.0, 794.0, 795.0, 794.0, 796.0, 796.0, 796.0, 795.0, 796.0, 796.0, 795.0, 794.0, 795.0, 796.0, 796.0, 795.0, 795.0, 794.0, 794.0, 795.0, 796.0, 797.0, 798.0, 797.0, 796.0, 795.0, 796.0, 797.0, 798.0, 799.0, 799.0, 798.0, 798.0, 798.0, 800.0, 800.0, 799.0, 798.0, 798.0, 798.0, 798.0, 799.0, 800.0, 799.0, 799.0, 799.0, 800.0, 801.0, 800.0, 798.0, 798.0, 797.0, 797.0, 797.0, 798.0, 799.0, 798.0, 798.0, 799.0, 798.0, 798.0, 797.0, 796.0, 797.0, 799.0, 800.0, 800.0, 799.0, 799.0, 800.0, 800.0, 800.0, 801.0, 800.0, 800.0, 802.0, 802.0, 802.0, 800.0, 800.0, 800.0, 799.0, 798.0, 798.0, 799.0, 799.0, 800.0, 800.0, 799.0, 799.0, 801.0, 802.0, 800.0, 797.0, 797.0, 797.0, 798.0, 800.0, 803.0, 803.0, 802.0, 799.0, 799.0, 799.0, 798.0, 799.0],
      "WindowWidth": [1704.0, 1697.0, 1695.0, 1698.0, 1696.0, 1694.0, 1693.0, 1694.0, 1700.0, 1703.0, 1702.0, 1701.0, 1701.0, 1701.0, 1704.0, 1701.0, 1696.0, 1696.0, 1693.0, 1691.0, 1692.0, 1695.0, 1695.0, 1697.0, 1698.0, 1700.0, 1700.0, 1695.0, 1690.0, 1691.0, 1693.0, 1694.0, 1693.0, 1692.0, 1694.0, 1695.0, 1696.0, 1697.0, 1697.0, 1696.0, 1697.0, 1695.0, 1695.0, 1697.0, 1699.0, 1698.0, 1699.0, 1695.0, 1694.0, 1695.0, 1696.0, 1697.0, 1697.0, 1695.0, 1700.0, 1702.0, 1700.0, 1699.0, 1700.0, 1701.0, 1698.0, 1697.0, 1698.0, 1700.0, 1700.0, 1700.0, 1698.0, 1697.0, 1697.0, 1698.0, 1701.0, 1704.0, 1706.0, 1703.0, 1700.0, 1699.0, 1701.0, 1703.0, 1706.0, 1710.0, 1709.0, 1707.0, 1707.0, 1705.0, 1711.0, 1712.0, 1709.0, 1707.0, 1706.0, 1706.0, 1707.0, 1709.0, 1711.0, 1709.0, 1708.0, 1710.0, 1711.0, 1714.0, 1711.0, 1707.0, 1705.0, 1703.0, 1702.0, 1702.0, 1706.0, 1708.0, 1705.0, 1705.0, 1708.0, 1707.0, 1705.0, 1703.0, 1701.0, 1702.0, 1709.0, 1711.0, 1711.0, 1708.0, 1708.0, 1710.0, 1712.0, 1712.0, 1712.0, 1710.0, 1711.0, 1715.0, 1717.0, 1715.0, 1711.0, 1712.0, 1711.0, 1708.0, 1706.0, 1706.0, 1707.0, 1709.0, 1711.0, 1710.0, 1708.0, 1709.0, 1714.0, 1715.0, 1711.0, 1703.0, 1702.0, 1703.0, 1706.0, 1712.0, 1718.0, 1719.0, 1716.0, 1709.0, 1708.0, 1708.0, 1706.0, 1707.0]
    },
    "slices": {}
  }
}