{
  "AcquisitionMatrixPE": 100,
  "AcquisitionNumber": 1,
  "AcquisitionTime": "15:19:3.175000",
  "BandwidthPerPixelPhaseEncode": 18.519,
  "BaseResolution": 100,
  "BodyPartExamined": "BRAIN",
  "CoilCombinationMethod": "Sum of Squares",
  "ConsistencyInfo": "N4_VE11C_LATEST_20160120",
  "ConversionSoftware": "dcm2niix",
  "ConversionSoftwareVersion": "v1.0.20211006",
  "DerivedVendorReportedEchoSpacing": 0.000539986,
  "DeviceSerialNumber": "166078",
  "DwellTime": 2.1e-06,
  "EchoTime": 0.034,
  "EchoTrainLength": 100,
  "EffectiveEchoSpacing": 0.000539986,
  "FlipAngle": 90,
  "ImageOrientationPatientDICOM": [1, 0, 0, 0, 0.958323, -0.285688],
  "ImageOrientationText": "Tra>Cor(-16.6)",
  "ImageType": [
    "ORIGINAL",
    "PRIMARY",
    "M",
    "ND",
    "MOSAIC"
],
  "ImagingFrequency": 123.258,
  "InPlanePhaseEncodingDirectionDICOM": "COL",
  "InstitutionAddress": "Street StreetNo,Bei Jing,District,CN,ZIP",
  "InstitutionName": "BeiJing Normal University",
  "InstitutionalDepartmentName": "Department",
  "MRAcquisitionType": "2D",
  "MagneticFieldStrength": 3,
  "Manufacturer": "Siemens",
  "ManufacturersModelName": "Prisma",
  "Modality": "MR",
  "MultibandAccelerationFactor": 3,
  "PartialFourier": 1,
  "PatientPosition": "HFS",
  "PercentPhaseFOV": 100,
  "PercentSampling": 100,
  "PhaseEncodingDirection": "j-",
  "PhaseEncodingSteps": 100,
  "PhaseResolution": 1,
  "PixelBandwidth": 2380,
  "ProcedureStepDescription": "BNU_P2018_64CH^Zhen.ZongLei",
  "ProtocolName": "bold_100x100_s3_2x2x2_static_156",
  "PulseSequenceDetails": "%SiemensSeq%\\ep2d_bold",
  "ReceiveCoilActiveElements": "HC1-7;NC1",
  "ReceiveCoilName": "HeadNeck_64",
  "ReconMatrixPE": 100,
  "RefLinesPE": 32,
  "RepetitionTime": 2,
  "SAR": 0.06971,
  "ScanOptions": "FS",
  "ScanningSequence": "EP",
  "SequenceName": "*epfid2d1_100",
  "SequenceVariant": "SK",
  "SeriesDescription": "bold_100x100_s3_2x2x2_static_156",
  "SeriesNumber": 14,
  "ShimSetting": [-5468, -11462, -1276, 307, -14, -88, -198, 92],
  "SliceThickness": 2,
  "SliceTiming": [1.485, 0, 0.99, 0.0825, 1.0725, 0.165, 1.155, 0.2475, 1.2375, 0.33, 1.32, 0.4125, 1.4025, 0.5775, 1.5675, 0.66, 1.65, 0.7425, 1.7325, 0.825, 1.815, 0.9075, 1.8975, 0.495, 1.485, 0, 0.99, 0.0825, 1.0725, 0.165, 1.155, 0.2475, 1.2375, 0.33, 1.32, 0.4125, 1.4025, 0.5775, 1.5675, 0.66, 1.65, 0.7425, 1.7325, 0.825, 1.815, 0.9075, 1.8975, 0.495, 1.485, 0, 0.99, 0.0825, 1.0725, 0.165, 1.155, 0.2475, 1.2375, 0.33, 1.32, 0.4125, 1.4025, 0.5775, 1.5675, 0.66, 1.65, 0.7425, 1.7325, 0.825, 1.815, 0.9075, 1.8975, 0.495],
  "SoftwareVersions": "syngo MR E11",
  "SpacingBetweenSlices": 2,
  "StationName": "AWP166078",
  "TaskName": "action",
  "TotalReadoutTime": 0.0534586,
  "TxRefAmp": 227.833,
  "dcmmeta_affine": [
    [-2.0, 0.0, 0.0, 100.0],
    [0.0, 1.9166451692581177, -0.5713766813278198, -72.54215240478516],
    [0.0, 0.5713767409324646, 1.9166451692581177, -92.9390869140625],
    [0.0, 0.0, 0.0, 1.0]
],
  "dcmmeta_reorient_transform": [
    [0.0, -1.0, 0.0, 99.0],
    [1.0, 0.0, 0.0, 0.0],
    [0.0, 0.0, 1.0, 0.0],
    [0.0, 0.0, 0.0, 1.0]
],
  "dcmmeta_shape": [100, 100, 72, 156],
  "dcmmeta_slice_dim": 2,
  "dcmmeta_version": 0.6,
  "global": {
    "const": {
      "AcquisitionMatrix": [100, 0, 0, 100],
      "AngioFlag": "N",
      "BitsAllocated": 16,
      "BitsStored": 12,
      "BodyPartExamined": "BRAIN",
      "Columns": 900,
      "EchoNumbers": 1,
      "EchoTime": 34.0,
      "EchoTrainLength": 100,
      "FlipAngle": 90.0,
      "HighBit": 11,
      "ImageOrientationPatient": [1.0, 0.0, 0.0, 0.0, 0.95832257648472, -0.2856883606304],
      "ImagePositionPatient": [-900.0, -883.86378151325, 192.17789706492],
      "ImageType": [
        "ORIGINAL",
        "PRIMARY",
        "M",
        "ND",
        "MOSAIC"
],
      "ImagedNucleus": "1H",
      "ImagingFrequency": 123.257706,
      "InPlanePhaseEncodingDirection": "COL",
      "MRAcquisitionType": "2D",
      "MagneticFieldStrength": 3.0,
      "Manufacturer": "SIEMENS",
      "ManufacturerModelName": "Prisma",
      "Modality": "MR",
      "NumberOfAverages": 1.0,
      "NumberOfPhaseEncodingSteps": 100,
      "PercentPhaseFieldOfView": 100.0,
      "PercentSampling": 100.0,
      "PerformedProcedureStepStartTime": "141948.320000",
      "PhotometricInterpretation": "MONOCHROME2",
      "PixelBandwidth": 2380.0,
      "PixelRepresentation": 0,
      "PixelSpacing": [2.0, 2.0],
      "ProtocolName": "bold_100x100_s3_2x2x2_static_156",
      "RepetitionTime": 2000.0,
      "Rows": 900,
      "SAR": 0.0697099620386,
      "SamplesPerPixel": 1,
      "ScanOptions": "FS",
      "ScanningSequence": "EP",
      "SequenceName": "*epfid2d1_100",
      "SequenceVariant": "SK",
      "SeriesDescription": "bold_100x100_s3_2x2x2_static_156",
      "SeriesNumber": 14,
      "SeriesTime": "151906.231000",
      "SliceLocation": -68.341177302438,
      "SliceThickness": 2.0,
      "SmallestImagePixelValue": 0,
      "SoftwareVersions": "syngo MR E11",
      "SpacingBetweenSlices": 1.9999999601565,
      "SpecificCharacterSet": "ISO_IR 100",
      "StudyID": "1",
      "StudyTime": "141948.217000",
      "TransmitCoilName": "Body",
      "VariableFlipAngleFlag": "N",
      "WindowCenterWidthExplanation": "Algo1",
      "dBdt": 0.0},
    "slices": {}
  },
  "time": {
    "samples": {
      "AcquisitionNumber": [1, 2, 3, 4, 5, 6, 7, 8, 9, 10, 11, 12, 13, 14, 15, 16, 17, 18, 19, 20, 21, 22, 23, 24, 25, 26, 27, 28, 29, 30, 31, 32, 33, 34, 35, 36, 37, 38, 39, 40, 41, 42, 43, 44, 45, 46, 47, 48, 49, 50, 51, 52, 53, 54, 55, 56, 57, 58, 59, 60, 61, 62, 63, 64, 65, 66, 67, 68, 69, 70, 71, 72, 73, 74, 75, 76, 77, 78, 79, 80, 81, 82, 83, 84, 85, 86, 87, 88, 89, 90, 91, 92, 93, 94, 95, 96, 97, 98, 99, 100, 101, 102, 103, 104, 105, 106, 107, 108, 109, 110, 111, 112, 113, 114, 115, 116, 117, 118, 119, 120, 121, 122, 123, 124, 125, 126, 127, 128, 129, 130, 131, 132, 133, 134, 135, 136, 137, 138, 139, 140, 141, 142, 143, 144, 145, 146, 147, 148, 149, 150, 151, 152, 153, 154, 155, 156],
      "AcquisitionTime": ["151903.175000", "151905.175000", "151907.175000", "151909.175000", "151911.175000", "151913.175000", "151915.175000", "151917.175000", "151919.175000", "151921.175000", "151923.175000", "151925.175000", "151927.175000", "151929.175000", "151931.175000", "151933.175000", "151935.175000", "151937.175000", "151939.175000", "151941.175000", "151943.175000", "151945.175000", "151947.175000", "151949.175000", "151951.175000", "151953.175000", "151955.175000", "151957.175000", "151959.175000", "152001.175000", "152003.175000", "152005.175000", "152007.175000", "152009.175000", "152011.175000", "152013.175000", "152015.175000", "152017.175000", "152019.175000", "152021.175000", "152023.175000", "152025.175000", "152027.175000", "152029.175000", "152031.175000", "152033.175000", "152035.175000", "152037.175000", "152039.175000", "152041.175000", "152043.175000", "152045.175000", "152047.175000", "152049.175000", "152051.175000", "152053.175000", "152055.175000", "152057.175000", "152059.175000", "152101.175000", "152103.175000", "152105.175000", "152107.175000", "152109.175000", "152111.175000", "152113.175000", "152115.175000", "152117.175000", "152119.175000", "152121.175000", "152123.175000", "152125.175000", "152127.175000", "152129.175000", "152131.175000", "152133.175000", "152135.175000", "152137.175000", "152139.175000", "152141.175000", "152143.175000", "152145.175000", "152147.175000", "152149.175000", "152151.175000", "152153.175000", "152155.175000", "152157.175000", "152159.175000", "152201.175000", "152203.175000", "152205.175000", "152207.175000", "152209.175000", "152211.175000", "152213.175000", "152215.175000", "152217.175000", "152219.175000", "152221.175000", "152223.175000", "152225.175000", "152227.175000", "152229.175000", "152231.175000", "152233.175000", "152235.175000", "152237.175000", "152239.175000", "152241.175000", "152243.175000", "152245.175000", "152247.175000", "152249.175000", "152251.175000", "152253.175000", "152255.175000", "152257.175000", "152259.175000", "152301.175000", "152303.175000", "152305.175000", "152307.175000", "152309.175000", "152311.175000", "152313.175000", "152315.175000", "152317.175000", "152319.175000", "152321.175000", "152323.175000", "152325.175000", "152327.175000", "152329.175000", "152331.175000", "152333.175000", "152335.175000", "152337.175000", "152339.175000", "152341.175000", "152343.175000", "152345.175000", "152347.175000", "152349.175000", "152351.175000", "152353.175000", "152355.175000", "152357.175000", "152359.175000", "152401.175000", "152403.175000", "152405.175000", "152407.175000", "152409.175000", "152411.175000", "152413.175000"],
      "ContentTime": ["151906.234000", "151907.730000", "151909.730000", "151911.729000", "151913.730000", "151915.731000", "151917.729000", "151919.730000", "151921.730000", "151923.730000", "151925.730000", "151927.730000", "151929.730000", "151931.730000", "151933.730000", "151935.730000", "151937.729000", "151939.730000", "151941.729000", "151943.730000", "151945.729000", "151947.729000", "151949.730000", "151951.730000", "151953.730000", "151955.730000", "151957.730000", "151959.730000", "152001.730000", "152003.730000", "152005.729000", "152007.731000", "152009.731000", "152011.730000", "152013.730000", "152015.730000", "152017.730000", "152019.730000", "152021.730000", "152023.730000", "152025.730000", "152027.730000", "152029.730000", "152031.729000", "152033.730000", "152035.730000", "152037.730000", "152039.730000", "152041.730000", "152043.731000", "152045.730000", "152047.729000", "152049.730000", "152051.730000", "152053.730000", "152055.729000", "152057.730000", "152059.730000", "152101.731000", "152103.730000", "152105.730000", "152107.730000", "152109.730000", "152111.729000", "152113.730000", "152115.730000", "152117.731000", "152119.731000", "152121.730000", "152123.730000", "152125.729000", "152127.730000", "152129.730000", "152131.730000", "152133.730000", "152135.731000", "152137.729000", "152139.730000", "152141.730000", "152143.730000", "152145.729000", "152147.730000", "152149.730000", "152151.729000", "152153.731000", "152155.730000", "152157.730000", "152159.730000", "152201.729000", "152203.730000", "152205.729000", "152207.730000", "152209.729000", "152211.731000", "152213.730000", "152215.729000", "152217.730000", "152219.729000", "152221.730000", "152223.730000", "152225.730000", "152227.731000", "152229.730000", "152231.730000", "152233.730000", "152235.730000", "152237.730000", "152239.729000", "152241.730000", "152243.730000", "152245.731000", "152247.729000", "152249.730000", "152251.729000", "152253.730000", "152255.729000", "152257.730000", "152259.730000", "152301.730000", "152303.731000", "152305.730000", "152307.730000", "152309.729000", "152311.730000", "152313.730000", "152315.730000", "152317.730000", "152319.730000", "152321.731000", "152323.730000", "152325.729000", "152327.729000", "152329.730000", "152331.729000", "152333.730000", "152335.730000", "152337.731000", "152339.730000", "152341.729000", "152343.730000", "152345.730000", "152347.729000", "152349.730000", "152351.730000", "152353.729000", "152355.731000", "152357.730000", "152359.730000", "152401.730000", "152403.730000", "152405.730000", "152407.730000", "152409.730000", "152411.729000", "152413.745000", "152415.363000"],
      "InstanceCreationTime": ["151906.234000", "151907.730000", "151909.730000", "151911.729000", "151913.730000", "151915.731000", "151917.729000", "151919.730000", "151921.730000", "151923.730000", "151925.730000", "151927.730000", "151929.730000", "151931.730000", "151933.730000", "151935.730000", "151937.729000", "151939.730000", "151941.729000", "151943.730000", "151945.729000", "151947.729000", "151949.730000", "151951.730000", "151953.730000", "151955.730000", "151957.730000", "151959.730000", "152001.730000", "152003.730000", "152005.729000", "152007.731000", "152009.731000", "152011.730000", "152013.730000", "152015.730000", "152017.730000", "152019.730000", "152021.730000", "152023.730000", "152025.730000", "152027.730000", "152029.730000", "152031.729000", "152033.730000", "152035.730000", "152037.730000", "152039.730000", "152041.730000", "152043.731000", "152045.730000", "152047.729000", "152049.730000", "152051.730000", "152053.730000", "152055.729000", "152057.730000", "152059.730000", "152101.731000", "152103.730000", "152105.730000", "152107.730000", "152109.730000", "152111.729000", "152113.730000", "152115.730000", "152117.731000", "152119.731000", "152121.730000", "152123.730000", "152125.729000", "152127.730000", "152129.730000", "152131.730000", "152133.730000", "152135.731000", "152137.729000", "152139.730000", "152141.730000", "152143.730000", "152145.729000", "152147.730000", "152149.730000", "152151.729000", "152153.731000", "152155.730000", "152157.730000", "152159.730000", "152201.729000", "152203.730000", "152205.729000", "152207.730000", "152209.729000", "152211.731000", "152213.730000", "152215.729000", "152217.730000", "152219.729000", "152221.730000", "152223.730000", "152225.730000", "152227.731000", "152229.730000", "152231.730000", "152233.730000", "152235.730000", "152237.730000", "152239.729000", "152241.730000", "152243.730000", "152245.731000", "152247.729000", "152249.730000", "152251.729000", "152253.730000", "152255.729000", "152257.730000", "152259.730000", "152301.730000", "152303.731000", "152305.730000", "152307.730000", "152309.729000", "152311.730000", "152313.730000", "152315.730000", "152317.730000", "152319.730000", "152321.731000", "152323.730000", "152325.729000", "152327.729000", "152329.730000", "152331.729000", "152333.730000", "152335.730000", "152337.731000", "152339.730000", "152341.729000", "152343.730000", "152345.730000", "152347.729000", "152349.730000", "152351.730000", "152353.729000", "152355.731000", "152357.730000", "152359.730000", "152401.730000", "152403.730000", "152405.730000", "152407.730000", "152409.730000", "152411.729000", "152413.745000", "152415.363000"],
      "InstanceNumber": [1, 2, 3, 4, 5, 6, 7, 8, 9, 10, 11, 12, 13, 14, 15, 16, 17, 18, 19, 20, 21, 22, 23, 24, 25, 26, 27, 28, 29, 30, 31, 32, 33, 34, 35, 36, 37, 38, 39, 40, 41, 42, 43, 44, 45, 46, 47, 48, 49, 50, 51, 52, 53, 54, 55, 56, 57, 58, 59, 60, 61, 62, 63, 64, 65, 66, 67, 68, 69, 70, 71, 72, 73, 74, 75, 76, 77, 78, 79, 80, 81, 82, 83, 84, 85, 86, 87, 88, 89, 90, 91, 92, 93, 94, 95, 96, 97, 98, 99, 100, 101, 102, 103, 104, 105, 106, 107, 108, 109, 110, 111, 112, 113, 114, 115, 116, 117, 118, 119, 120, 121, 122, 123, 124, 125, 126, 127, 128, 129, 130, 131, 132, 133, 134, 135, 136, 137, 138, 139, 140, 141, 142, 143, 144, 145, 146, 147, 148, 149, 150, 151, 152, 153, 154, 155, 156],
      "LargestImagePixelValue": [3337, 3306, 3338, 3269, 3327, 3274, 3307, 3289, 3290, 3298, 3313, 3278, 3271, 3290, 3285, 3314, 3294, 3313, 3261, 3315, 3288, 3281, 3289, 3301, 3271, 3314, 3267, 3317, 3280, 3260, 3285, 3263, 3302, 3296, 3292, 3295, 3273, 3310, 3279, 3290, 3276, 3297, 3294, 3356, 3328, 3313, 3256, 3321, 3272, 3295, 3315, 3264, 3296, 3273, 3281, 3287, 3285, 3299, 3297, 3306, 3287, 3297, 3292, 3303, 3342, 3300, 3289, 3291, 3285, 3320, 3305, 3316, 3320, 3326, 3289, 3289, 3261, 3307, 3260, 3297, 3312, 3249, 3290, 3288, 3315, 3315, 3302, 3365, 3294, 3301, 3293, 3311, 3309, 3284, 3335, 3265, 3336, 3320, 3286, 3317, 3291, 3335, 3276, 3312, 3314, 3286, 3351, 3342, 3287, 3345, 3283, 3306, 3308, 3351, 3280, 3297, 3281, 3271, 3297, 3273, 3311, 3288, 3277, 3271, 3356, 3271, 3305, 3255, 3276, 3246, 3310, 3289, 3266, 3338, 3294, 3309, 3243, 3296, 3269, 3265, 3277, 3271, 3314, 3276, 3327, 3263, 3304, 3317, 3324, 3349, 3252, 3280, 3307, 3283, 3316, 3253],
      "WindowCenter": [809.0, 809.0, 811.0, 809.0, 809.0, 809.0, 810.0, 810.0, 809.0, 809.0, 809.0, 808.0, 806.0, 806.0, 807.0, 807.0, 807.0, 806.0, 807.0, 808.0, 809.0, 809.0, 809.0, 811.0, 811.0, 810.0, 808.0, 809.0, 809.0, 809.0, 807.0, 806.0, 807.0, 807.0, 806.0, 805.0, 805.0, 805.0, 806.0, 806.0, 805.0, 804.0, 805.0, 807.0, 808.0, 808.0, 806.0, 807.0, 807.0, 807.0, 807.0, 806.0, 806.0, 806.0, 806.0, 806.0, 807.0, 808.0, 808.0, 808.0, 807.0, 807.0, 809.0, 811.0, 811.0, 809.0, 806.0, 806.0, 806.0, 808.0, 808.0, 808.0, 809.0, 810.0, 812.0, 810.0, 807.0, 806.0, 805.0, 806.0, 806.0, 806.0, 806.0, 806.0, 806.0, 808.0, 809.0, 810.0, 809.0, 808.0, 809.0, 810.0, 810.0, 810.0, 810.0, 808.0, 807.0, 806.0, 806.0, 806.0, 806.0, 807.0, 806.0, 807.0, 808.0, 809.0, 809.0, 808.0, 808.0, 809.0, 808.0, 808.0, 809.0, 813.0, 813.0, 812.0, 810.0, 808.0, 807.0, 807.0, 807.0, 806.0, 806.0, 806.0, 807.0, 806.0, 805.0, 803.0, 802.0, 802.0, 804.0, 804.0, 805.0, 807.0, 808.0, 809.0, 808.0, 808.0, 807.0, 807.0, 808.0, 809.0, 809.0, 809.0, 809.0, 809.0, 810.0, 811.0, 813.0, 813.0, 811.0, 809.0, 809.0, 809.0, 809.0, 808.0],
      "WindowWidth": [1732.0, 1732.0, 1736.0, 1732.0, 1732.0, 1732.0, 1734.0, 1734.0, 1732.0, 1731.0, 1731.0, 1729.0, 1725.0, 1725.0, 1727.0, 1728.0, 1726.0, 1726.0, 1726.0, 1730.0, 1733.0, 1733.0, 1732.0, 1738.0, 1738.0, 1735.0, 1730.0, 1732.0, 1732.0, 1731.0, 1728.0, 1724.0, 1726.0, 1726.0, 1724.0, 1723.0, 1721.0, 1723.0, 1725.0, 1724.0, 1721.0, 1721.0, 1722.0, 1728.0, 1731.0, 1730.0, 1725.0, 1727.0, 1727.0, 1728.0, 1727.0, 1725.0, 1726.0, 1725.0, 1724.0, 1725.0, 1727.0, 1730.0, 1731.0, 1731.0, 1728.0, 1729.0, 1732.0, 1738.0, 1738.0, 1731.0, 1725.0, 1723.0, 1725.0, 1729.0, 1731.0, 1730.0, 1731.0, 1736.0, 1740.0, 1735.0, 1728.0, 1725.0, 1723.0, 1724.0, 1726.0, 1724.0, 1726.0, 1725.0, 1726.0, 1729.0, 1733.0, 1736.0, 1733.0, 1731.0, 1732.0, 1734.0, 1735.0, 1735.0, 1734.0, 1728.0, 1727.0, 1725.0, 1723.0, 1724.0, 1726.0, 1726.0, 1725.0, 1726.0, 1730.0, 1732.0, 1734.0, 1731.0, 1730.0, 1732.0, 1731.0, 1729.0, 1732.0, 1743.0, 1744.0, 1741.0, 1736.0, 1730.0, 1726.0, 1726.0, 1727.0, 1726.0, 1725.0, 1725.0, 1727.0, 1724.0, 1721.0, 1716.0, 1714.0, 1716.0, 1721.0, 1721.0, 1722.0, 1727.0, 1730.0, 1732.0, 1730.0, 1730.0, 1727.0, 1727.0, 1729.0, 1731.0, 1732.0, 1732.0, 1733.0, 1733.0, 1735.0, 1738.0, 1742.0, 1742.0, 1736.0, 1731.0, 1731.0, 1731.0, 1732.0, 1728.0]
    },
    "slices": {}
  }
}