{
  "AcquisitionMatrixPE": 100,
  "AcquisitionNumber": 1,
  "AcquisitionTime": "14:46:26.022500",
  "BandwidthPerPixelPhaseEncode": 18.519,
  "BaseResolution": 100,
  "BodyPartExamined": "BRAIN",
  "CoilCombinationMethod": "Sum of Squares",
  "ConsistencyInfo": "N4_VE11C_LATEST_20160120",
  "ConversionSoftware": "dcm2niix",
  "ConversionSoftwareVersion": "v1.0.20211006",
  "DerivedVendorReportedEchoSpacing": 0.000539986,
  "DeviceSerialNumber": "166078",
  "DwellTime": 2.1e-06,
  "EchoTime": 0.034,
  "EchoTrainLength": 100,
  "EffectiveEchoSpacing": 0.000539986,
  "FlipAngle": 90,
  "ImageOrientationPatientDICOM": [1, 0, 0, 0, 0.958323, -0.285688],
  "ImageOrientationText": "Tra>Cor(-16.6)",
  "ImageType": [
    "ORIGINAL",
    "PRIMARY",
    "M",
    "ND",
    "MOSAIC"
],
  "ImagingFrequency": 123.258,
  "InPlanePhaseEncodingDirectionDICOM": "COL",
  "InstitutionAddress": "Street StreetNo,Bei Jing,District,CN,ZIP",
  "InstitutionName": "BeiJing Normal University",
  "InstitutionalDepartmentName": "Department",
  "MRAcquisitionType": "2D",
  "MagneticFieldStrength": 3,
  "Manufacturer": "Siemens",
  "ManufacturersModelName": "Prisma",
  "Modality": "MR",
  "MultibandAccelerationFactor": 3,
  "PartialFourier": 1,
  "PatientPosition": "HFS",
  "PercentPhaseFOV": 100,
  "PercentSampling": 100,
  "PhaseEncodingDirection": "j-",
  "PhaseEncodingSteps": 100,
  "PhaseResolution": 1,
  "PixelBandwidth": 2380,
  "ProcedureStepDescription": "BNU_P2018_64CH^Zhen.ZongLei",
  "ProtocolName": "bold_100x100_s3_2x2x2_static_156",
  "PulseSequenceDetails": "%SiemensSeq%\\ep2d_bold",
  "ReceiveCoilActiveElements": "HC1-7;NC1",
  "ReceiveCoilName": "HeadNeck_64",
  "ReconMatrixPE": 100,
  "RefLinesPE": 32,
  "RepetitionTime": 2,
  "SAR": 0.06971,
  "ScanOptions": "FS",
  "ScanningSequence": "EP",
  "SequenceName": "*epfid2d1_100",
  "SequenceVariant": "SK",
  "SeriesDescription": "bold_100x100_s3_2x2x2_static_156",
  "SeriesNumber": 7,
  "ShimSetting": [-5468, -11462, -1276, 307, -14, -88, -198, 92],
  "SliceThickness": 2,
  "SliceTiming": [1.485, 0, 0.99, 0.0825, 1.0725, 0.165, 1.155, 0.2475, 1.2375, 0.33, 1.32, 0.4125, 1.4025, 0.5775, 1.5675, 0.66, 1.65, 0.7425, 1.7325, 0.825, 1.815, 0.9075, 1.8975, 0.495, 1.485, 0, 0.99, 0.0825, 1.0725, 0.165, 1.155, 0.2475, 1.2375, 0.33, 1.32, 0.4125, 1.4025, 0.5775, 1.5675, 0.66, 1.65, 0.7425, 1.7325, 0.825, 1.815, 0.9075, 1.8975, 0.495, 1.485, 0, 0.99, 0.0825, 1.0725, 0.165, 1.155, 0.2475, 1.2375, 0.33, 1.32, 0.4125, 1.4025, 0.5775, 1.5675, 0.66, 1.65, 0.7425, 1.7325, 0.825, 1.815, 0.9075, 1.8975, 0.495],
  "SoftwareVersions": "syngo MR E11",
  "SpacingBetweenSlices": 2,
  "StationName": "AWP166078",
  "TaskName": "action",
  "TotalReadoutTime": 0.0534586,
  "TxRefAmp": 227.833,
  "dcmmeta_affine": [
    [-2.0, 0.0, 0.0, 100.0],
    [0.0, 1.9166451692581177, -0.5713766813278198, -72.54215240478516],
    [0.0, 0.5713767409324646, 1.9166451692581177, -92.9390869140625],
    [0.0, 0.0, 0.0, 1.0]
],
  "dcmmeta_reorient_transform": [
    [0.0, -1.0, 0.0, 99.0],
    [1.0, 0.0, 0.0, 0.0],
    [0.0, 0.0, 1.0, 0.0],
    [0.0, 0.0, 0.0, 1.0]
],
  "dcmmeta_shape": [100, 100, 72, 156],
  "dcmmeta_slice_dim": 2,
  "dcmmeta_version": 0.6,
  "global": {
    "const": {
      "AcquisitionMatrix": [100, 0, 0, 100],
      "AngioFlag": "N",
      "BitsAllocated": 16,
      "BitsStored": 12,
      "BodyPartExamined": "BRAIN",
      "Columns": 900,
      "EchoNumbers": 1,
      "EchoTime": 34.0,
      "EchoTrainLength": 100,
      "FlipAngle": 90.0,
      "HighBit": 11,
      "ImageOrientationPatient": [1.0, 0.0, 0.0, 0.0, 0.95832257648472, -0.2856883606304],
      "ImagePositionPatient": [-900.0, -883.86378151325, 192.17789706492],
      "ImageType": [
        "ORIGINAL",
        "PRIMARY",
        "M",
        "ND",
        "MOSAIC"
],
      "ImagedNucleus": "1H",
      "ImagingFrequency": 123.257705,
      "InPlanePhaseEncodingDirection": "COL",
      "MRAcquisitionType": "2D",
      "MagneticFieldStrength": 3.0,
      "Manufacturer": "SIEMENS",
      "ManufacturerModelName": "Prisma",
      "Modality": "MR",
      "NumberOfAverages": 1.0,
      "NumberOfPhaseEncodingSteps": 100,
      "PercentPhaseFieldOfView": 100.0,
      "PercentSampling": 100.0,
      "PerformedProcedureStepStartTime": "141948.320000",
      "PhotometricInterpretation": "MONOCHROME2",
      "PixelBandwidth": 2380.0,
      "PixelRepresentation": 0,
      "PixelSpacing": [2.0, 2.0],
      "ProtocolName": "bold_100x100_s3_2x2x2_static_156",
      "RepetitionTime": 2000.0,
      "Rows": 900,
      "SAR": 0.0697099620386,
      "SamplesPerPixel": 1,
      "ScanOptions": "FS",
      "ScanningSequence": "EP",
      "SequenceName": "*epfid2d1_100",
      "SequenceVariant": "SK",
      "SeriesDescription": "bold_100x100_s3_2x2x2_static_156",
      "SeriesNumber": 7,
      "SeriesTime": "144629.013000",
      "SliceLocation": -68.341177302438,
      "SliceThickness": 2.0,
      "SmallestImagePixelValue": 0,
      "SoftwareVersions": "syngo MR E11",
      "SpacingBetweenSlices": 1.9999999601565,
      "SpecificCharacterSet": "ISO_IR 100",
      "StudyID": "1",
      "StudyTime": "141948.217000",
      "TransmitCoilName": "Body",
      "VariableFlipAngleFlag": "N",
      "WindowCenterWidthExplanation": "Algo1",
      "dBdt": 0.0},
    "slices": {}
  },
  "time": {
    "samples": {
      "AcquisitionNumber": [1, 2, 3, 4, 5, 6, 7, 8, 9, 10, 11, 12, 13, 14, 15, 16, 17, 18, 19, 20, 21, 22, 23, 24, 25, 26, 27, 28, 29, 30, 31, 32, 33, 34, 35, 36, 37, 38, 39, 40, 41, 42, 43, 44, 45, 46, 47, 48, 49, 50, 51, 52, 53, 54, 55, 56, 57, 58, 59, 60, 61, 62, 63, 64, 65, 66, 67, 68, 69, 70, 71, 72, 73, 74, 75, 76, 77, 78, 79, 80, 81, 82, 83, 84, 85, 86, 87, 88, 89, 90, 91, 92, 93, 94, 95, 96, 97, 98, 99, 100, 101, 102, 103, 104, 105, 106, 107, 108, 109, 110, 111, 112, 113, 114, 115, 116, 117, 118, 119, 120, 121, 122, 123, 124, 125, 126, 127, 128, 129, 130, 131, 132, 133, 134, 135, 136, 137, 138, 139, 140, 141, 142, 143, 144, 145, 146, 147, 148, 149, 150, 151, 152, 153, 154, 155, 156],
      "AcquisitionTime": ["144626.022500", "144628.022500", "144630.022500", "144632.022500", "144634.022500", "144636.022500", "144638.022500", "144640.022500", "144642.022500", "144644.022500", "144646.022500", "144648.022500", "144650.022500", "144652.022500", "144654.022500", "144656.022500", "144658.022500", "144700.022500", "144702.022500", "144704.022500", "144706.022500", "144708.022500", "144710.022500", "144712.022500", "144714.022500", "144716.022500", "144718.022500", "144720.022500", "144722.022500", "144724.022500", "144726.022500", "144728.022500", "144730.022500", "144732.022500", "144734.022500", "144736.022500", "144738.022500", "144740.022500", "144742.022500", "144744.022500", "144746.022500", "144748.022500", "144750.022500", "144752.022500", "144754.022500", "144756.022500", "144758.022500", "144800.022500", "144802.022500", "144804.022500", "144806.022500", "144808.022500", "144810.022500", "144812.022500", "144814.022500", "144816.022500", "144818.022500", "144820.022500", "144822.022500", "144824.022500", "144826.022500", "144828.022500", "144830.022500", "144832.022500", "144834.022500", "144836.022500", "144838.022500", "144840.022500", "144842.022500", "144844.022500", "144846.022500", "144848.022500", "144850.022500", "144852.022500", "144854.022500", "144856.022500", "144858.022500", "144900.022500", "144902.022500", "144904.022500", "144906.022500", "144908.022500", "144910.022500", "144912.022500", "144914.022500", "144916.022500", "144918.022500", "144920.022500", "144922.022500", "144924.022500", "144926.022500", "144928.022500", "144930.022500", "144932.022500", "144934.022500", "144936.022500", "144938.022500", "144940.022500", "144942.022500", "144944.022500", "144946.022500", "144948.022500", "144950.022500", "144952.022500", "144954.022500", "144956.022500", "144958.022500", "145000.022500", "145002.022500", "145004.022500", "145006.022500", "145008.022500", "145010.022500", "145012.022500", "145014.022500", "145016.022500", "145018.022500", "145020.022500", "145022.022500", "145024.022500", "145026.022500", "145028.022500", "145030.022500", "145032.022500", "145034.022500", "145036.022500", "145038.022500", "145040.022500", "145042.022500", "145044.022500", "145046.022500", "145048.022500", "145050.022500", "145052.022500", "145054.022500", "145056.022500", "145058.022500", "145100.022500", "145102.022500", "145104.022500", "145106.022500", "145108.022500", "145110.022500", "145112.022500", "145114.022500", "145116.022500", "145118.022500", "145120.022500", "145122.022500", "145124.022500", "145126.022500", "145128.022500", "145130.022500", "145132.022500", "145134.022500", "145136.022500"],
      "ContentTime": ["144629.017000", "144630.012000", "144632.513000", "144634.012000", "144636.512000", "144638.013000", "144640.512000", "144642.012000", "144644.012000", "144646.513000", "144648.012000", "144650.512000", "144652.012000", "144654.514000", "144656.013000", "144658.012000", "144700.513000", "144702.013000", "144704.012000", "144706.012000", "144708.012000", "144710.512000", "144712.513000", "144714.513000", "144716.012000", "144718.013000", "144720.013000", "144722.513000", "144724.012000", "144726.013000", "144728.013000", "144730.514000", "144732.513000", "144734.513000", "144736.513000", "144738.012000", "144740.012000", "144742.012000", "144744.512000", "144746.012000", "144748.514000", "144750.513000", "144752.013000", "144754.012000", "144756.513000", "144758.012000", "144800.013000", "144802.013000", "144804.514000", "144806.513000", "144808.012000", "144810.513000", "144812.013000", "144814.512000", "144816.013000", "144818.013000", "144820.513000", "144822.514000", "144824.014000", "144826.513000", "144828.513000", "144830.512000", "144832.012000", "144834.513000", "144836.512000", "144838.012000", "144840.013000", "144842.514000", "144844.512000", "144846.513000", "144848.012000", "144850.512000", "144852.513000", "144854.512000", "144856.512000", "144858.014000", "144900.013000", "144902.513000", "144904.013000", "144906.513000", "144908.012000", "144910.513000", "144912.012000", "144914.514000", "144916.013000", "144918.513000", "144920.513000", "144922.512000", "144924.512000", "144926.513000", "144928.013000", "144930.512000", "144932.514000", "144934.513000", "144936.012000", "144938.512000", "144940.513000", "144942.013000", "144944.512000", "144946.013000", "144948.512000", "144950.014000", "144952.514000", "144954.512000", "144956.513000", "144958.012000", "145000.513000", "145002.012000", "145004.513000", "145006.512000", "145008.014000", "145010.013000", "145012.513000", "145014.512000", "145016.512000", "145018.013000", "145020.512000", "145022.512000", "145024.514000", "145026.513000", "145028.513000", "145030.513000", "145032.012000", "145034.513000", "145036.513000", "145038.512000", "145040.512000", "145042.513000", "145044.514000", "145046.512000", "145048.513000", "145050.512000", "145052.513000", "145054.513000", "145056.512000", "145058.013000", "145100.513000", "145102.513000", "145104.012000", "145106.012000", "145108.012000", "145110.512000", "145112.512000", "145114.512000", "145116.512000", "145118.513000", "145120.513000", "145122.513000", "145124.513000", "145126.513000", "145128.513000", "145130.513000", "145132.513000", "145134.514000", "145136.514000", "145137.971000"],
      "InstanceCreationTime": ["144629.017000", "144630.012000", "144632.513000", "144634.012000", "144636.512000", "144638.013000", "144640.512000", "144642.012000", "144644.012000", "144646.513000", "144648.012000", "144650.512000", "144652.012000", "144654.514000", "144656.013000", "144658.012000", "144700.513000", "144702.013000", "144704.012000", "144706.012000", "144708.012000", "144710.512000", "144712.513000", "144714.513000", "144716.012000", "144718.013000", "144720.013000", "144722.513000", "144724.012000", "144726.013000", "144728.013000", "144730.514000", "144732.513000", "144734.513000", "144736.513000", "144738.012000", "144740.012000", "144742.012000", "144744.512000", "144746.012000", "144748.514000", "144750.513000", "144752.013000", "144754.012000", "144756.513000", "144758.012000", "144800.013000", "144802.013000", "144804.514000", "144806.513000", "144808.012000", "144810.513000", "144812.013000", "144814.512000", "144816.013000", "144818.013000", "144820.513000", "144822.514000", "144824.014000", "144826.513000", "144828.513000", "144830.512000", "144832.012000", "144834.513000", "144836.512000", "144838.012000", "144840.013000", "144842.514000", "144844.512000", "144846.513000", "144848.012000", "144850.512000", "144852.513000", "144854.512000", "144856.512000", "144858.014000", "144900.013000", "144902.513000", "144904.013000", "144906.513000", "144908.012000", "144910.513000", "144912.012000", "144914.514000", "144916.013000", "144918.513000", "144920.513000", "144922.512000", "144924.512000", "144926.513000", "144928.013000", "144930.512000", "144932.514000", "144934.513000", "144936.012000", "144938.512000", "144940.513000", "144942.013000", "144944.512000", "144946.013000", "144948.512000", "144950.014000", "144952.514000", "144954.512000", "144956.513000", "144958.012000", "145000.513000", "145002.012000", "145004.513000", "145006.512000", "145008.014000", "145010.013000", "145012.513000", "145014.512000", "145016.512000", "145018.013000", "145020.512000", "145022.512000", "145024.514000", "145026.513000", "145028.513000", "145030.513000", "145032.012000", "145034.513000", "145036.513000", "145038.512000", "145040.512000", "145042.513000", "145044.514000", "145046.512000", "145048.513000", "145050.512000", "145052.513000", "145054.513000", "145056.512000", "145058.013000", "145100.513000", "145102.513000", "145104.012000", "145106.012000", "145108.012000", "145110.512000", "145112.512000", "145114.512000", "145116.512000", "145118.513000", "145120.513000", "145122.513000", "145124.513000", "145126.513000", "145128.513000", "145130.513000", "145132.513000", "145134.514000", "145136.514000", "145137.971000"],
      "InstanceNumber": [1, 2, 3, 4, 5, 6, 7, 8, 9, 10, 11, 12, 13, 14, 15, 16, 17, 18, 19, 20, 21, 22, 23, 24, 25, 26, 27, 28, 29, 30, 31, 32, 33, 34, 35, 36, 37, 38, 39, 40, 41, 42, 43, 44, 45, 46, 47, 48, 49, 50, 51, 52, 53, 54, 55, 56, 57, 58, 59, 60, 61, 62, 63, 64, 65, 66, 67, 68, 69, 70, 71, 72, 73, 74, 75, 76, 77, 78, 79, 80, 81, 82, 83, 84, 85, 86, 87, 88, 89, 90, 91, 92, 93, 94, 95, 96, 97, 98, 99, 100, 101, 102, 103, 104, 105, 106, 107, 108, 109, 110, 111, 112, 113, 114, 115, 116, 117, 118, 119, 120, 121, 122, 123, 124, 125, 126, 127, 128, 129, 130, 131, 132, 133, 134, 135, 136, 137, 138, 139, 140, 141, 142, 143, 144, 145, 146, 147, 148, 149, 150, 151, 152, 153, 154, 155, 156],
      "LargestImagePixelValue": [3322, 3261, 3220, 3256, 3235, 3269, 3222, 3251, 3271, 3277, 3250, 3235, 3292, 3296, 3237, 3285, 3208, 3255, 3262, 3327, 3301, 3306, 3336, 3321, 3279, 3276, 3258, 3291, 3270, 3251, 3322, 3301, 3272, 3270, 3277, 3278, 3323, 3283, 3248, 3210, 3262, 3243, 3246, 3273, 3263, 3243, 3262, 3232, 3277, 3251, 3265, 3274, 3254, 3268, 3296, 3281, 3280, 3300, 3306, 3302, 3296, 3271, 3279, 3260, 3263, 3289, 3289, 3280, 3332, 3293, 3303, 3263, 3288, 3271, 3260, 3281, 3249, 3296, 3321, 3278, 3290, 3279, 3235, 3279, 3256, 3325, 3264, 3292, 3269, 3268, 3289, 3262, 3236, 3321, 3266, 3273, 3314, 3270, 3256, 3300, 3291, 3273, 3268, 3326, 3281, 3260, 3289, 3262, 3241, 3275, 3249, 3306, 3272, 3254, 3276, 3253, 3309, 3280, 3275, 3302, 3276, 3311, 3278, 3326, 3278, 3281, 3311, 3233, 3290, 3252, 3267, 3279, 3220, 3326, 3246, 3231, 3328, 3248, 3243, 3286, 3260, 3321, 3293, 3310, 3296, 3302, 3245, 3251, 3277, 3276, 3256, 3331, 3262, 3264, 3242, 3223],
      "WindowCenter": [807.0, 806.0, 806.0, 808.0, 808.0, 808.0, 808.0, 809.0, 808.0, 807.0, 806.0, 806.0, 808.0, 810.0, 810.0, 809.0, 805.0, 807.0, 808.0, 809.0, 807.0, 806.0, 806.0, 807.0, 807.0, 805.0, 805.0, 805.0, 805.0, 806.0, 807.0, 807.0, 806.0, 806.0, 806.0, 806.0, 804.0, 804.0, 805.0, 806.0, 806.0, 805.0, 805.0, 806.0, 806.0, 805.0, 804.0, 804.0, 805.0, 806.0, 807.0, 807.0, 806.0, 806.0, 805.0, 806.0, 806.0, 808.0, 807.0, 807.0, 806.0, 806.0, 807.0, 807.0, 807.0, 807.0, 807.0, 806.0, 808.0, 809.0, 808.0, 807.0, 805.0, 805.0, 805.0, 805.0, 805.0, 805.0, 806.0, 807.0, 808.0, 808.0, 808.0, 807.0, 807.0, 807.0, 807.0, 807.0, 806.0, 806.0, 807.0, 807.0, 806.0, 806.0, 804.0, 805.0, 805.0, 806.0, 806.0, 806.0, 806.0, 807.0, 809.0, 807.0, 805.0, 804.0, 804.0, 804.0, 804.0, 804.0, 804.0, 805.0, 805.0, 805.0, 805.0, 804.0, 806.0, 807.0, 808.0, 809.0, 808.0, 806.0, 806.0, 808.0, 809.0, 809.0, 807.0, 804.0, 805.0, 805.0, 806.0, 806.0, 809.0, 810.0, 808.0, 806.0, 805.0, 804.0, 804.0, 804.0, 807.0, 807.0, 806.0, 807.0, 805.0, 806.0, 807.0, 810.0, 809.0, 807.0, 804.0, 804.0, 804.0, 804.0, 804.0, 805.0],
      "WindowWidth": [1729.0, 1724.0, 1725.0, 1729.0, 1730.0, 1730.0, 1731.0, 1732.0, 1731.0, 1728.0, 1726.0, 1726.0, 1729.0, 1735.0, 1736.0, 1733.0, 1723.0, 1727.0, 1730.0, 1732.0, 1729.0, 1725.0, 1725.0, 1727.0, 1726.0, 1723.0, 1723.0, 1723.0, 1723.0, 1726.0, 1727.0, 1726.0, 1725.0, 1725.0, 1725.0, 1724.0, 1721.0, 1720.0, 1723.0, 1725.0, 1725.0, 1722.0, 1721.0, 1724.0, 1726.0, 1723.0, 1720.0, 1719.0, 1723.0, 1726.0, 1728.0, 1729.0, 1724.0, 1724.0, 1724.0, 1725.0, 1726.0, 1729.0, 1729.0, 1728.0, 1726.0, 1726.0, 1728.0, 1728.0, 1727.0, 1728.0, 1727.0, 1726.0, 1730.0, 1733.0, 1731.0, 1727.0, 1723.0, 1722.0, 1722.0, 1723.0, 1721.0, 1723.0, 1724.0, 1726.0, 1731.0, 1732.0, 1730.0, 1728.0, 1728.0, 1729.0, 1728.0, 1728.0, 1725.0, 1725.0, 1728.0, 1727.0, 1726.0, 1724.0, 1721.0, 1722.0, 1722.0, 1724.0, 1725.0, 1725.0, 1726.0, 1729.0, 1732.0, 1728.0, 1722.0, 1720.0, 1719.0, 1719.0, 1721.0, 1720.0, 1720.0, 1722.0, 1723.0, 1724.0, 1722.0, 1721.0, 1724.0, 1727.0, 1731.0, 1733.0, 1729.0, 1725.0, 1726.0, 1729.0, 1733.0, 1732.0, 1726.0, 1719.0, 1721.0, 1722.0, 1724.0, 1726.0, 1732.0, 1736.0, 1730.0, 1724.0, 1723.0, 1720.0, 1719.0, 1721.0, 1727.0, 1728.0, 1725.0, 1727.0, 1723.0, 1724.0, 1728.0, 1735.0, 1732.0, 1727.0, 1720.0, 1718.0, 1718.0, 1720.0, 1720.0, 1722.0]
    },
    "slices": {}
  }
}