{
  "AcquisitionMatrixPE": 100,
  "AcquisitionNumber": 1,
  "AcquisitionTime": "15:30:51.470000",
  "BandwidthPerPixelPhaseEncode": 18.519,
  "BaseResolution": 100,
  "BodyPartExamined": "BRAIN",
  "CoilCombinationMethod": "Sum of Squares",
  "ConsistencyInfo": "N4_VE11C_LATEST_20160120",
  "ConversionSoftware": "dcm2niix",
  "ConversionSoftwareVersion": "v1.0.20211006",
  "DerivedVendorReportedEchoSpacing": 0.000539986,
  "DeviceSerialNumber": "166078",
  "DwellTime": 2.1e-06,
  "EchoTime": 0.034,
  "EchoTrainLength": 100,
  "EffectiveEchoSpacing": 0.000539986,
  "FlipAngle": 90,
  "ImageOrientationPatientDICOM": [1, 0, 0, 0, 0.958323, -0.285688],
  "ImageOrientationText": "Tra>Cor(-16.6)",
  "ImageType": [
    "ORIGINAL",
    "PRIMARY",
    "M",
    "ND",
    "MOSAIC"
],
  "ImagingFrequency": 123.258,
  "InPlanePhaseEncodingDirectionDICOM": "COL",
  "InstitutionAddress": "Street StreetNo,Bei Jing,District,CN,ZIP",
  "InstitutionName": "BeiJing Normal University",
  "InstitutionalDepartmentName": "Department",
  "MRAcquisitionType": "2D",
  "MagneticFieldStrength": 3,
  "Manufacturer": "Siemens",
  "ManufacturersModelName": "Prisma",
  "Modality": "MR",
  "MultibandAccelerationFactor": 3,
  "PartialFourier": 1,
  "PatientPosition": "HFS",
  "PercentPhaseFOV": 100,
  "PercentSampling": 100,
  "PhaseEncodingDirection": "j-",
  "PhaseEncodingSteps": 100,
  "PhaseResolution": 1,
  "PixelBandwidth": 2380,
  "ProcedureStepDescription": "BNU_P2018_64CH^Zhen.ZongLei",
  "ProtocolName": "bold_100x100_s3_2x2x2_static_156",
  "PulseSequenceDetails": "%SiemensSeq%\\ep2d_bold",
  "ReceiveCoilActiveElements": "HC1-7;NC1",
  "ReceiveCoilName": "HeadNeck_64",
  "ReconMatrixPE": 100,
  "RefLinesPE": 32,
  "RepetitionTime": 2,
  "SAR": 0.06971,
  "ScanOptions": "FS",
  "ScanningSequence": "EP",
  "SequenceName": "*epfid2d1_100",
  "SequenceVariant": "SK",
  "SeriesDescription": "bold_100x100_s3_2x2x2_static_156",
  "SeriesNumber": 16,
  "ShimSetting": [-5468, -11462, -1276, 307, -14, -88, -198, 92],
  "SliceThickness": 2,
  "SliceTiming": [1.485, 0, 0.99, 0.0825, 1.0725, 0.165, 1.155, 0.2475, 1.2375, 0.33, 1.32, 0.4125, 1.4025, 0.5775, 1.5675, 0.66, 1.65, 0.7425, 1.7325, 0.825, 1.815, 0.9075, 1.8975, 0.495, 1.485, 0, 0.99, 0.0825, 1.0725, 0.165, 1.155, 0.2475, 1.2375, 0.33, 1.32, 0.4125, 1.4025, 0.5775, 1.5675, 0.66, 1.65, 0.7425, 1.7325, 0.825, 1.815, 0.9075, 1.8975, 0.495, 1.485, 0, 0.99, 0.0825, 1.0725, 0.165, 1.155, 0.2475, 1.2375, 0.33, 1.32, 0.4125, 1.4025, 0.5775, 1.5675, 0.66, 1.65, 0.7425, 1.7325, 0.825, 1.815, 0.9075, 1.8975, 0.495],
  "SoftwareVersions": "syngo MR E11",
  "SpacingBetweenSlices": 2,
  "StationName": "AWP166078",
  "TaskName": "action",
  "TotalReadoutTime": 0.0534586,
  "TxRefAmp": 227.833,
  "dcmmeta_affine": [
    [-2.0, 0.0, 0.0, 100.0],
    [0.0, 1.9166451692581177, -0.5713766813278198, -72.54215240478516],
    [0.0, 0.5713767409324646, 1.9166451692581177, -92.9390869140625],
    [0.0, 0.0, 0.0, 1.0]
],
  "dcmmeta_reorient_transform": [
    [0.0, -1.0, 0.0, 99.0],
    [1.0, 0.0, 0.0, 0.0],
    [0.0, 0.0, 1.0, 0.0],
    [0.0, 0.0, 0.0, 1.0]
],
  "dcmmeta_shape": [100, 100, 72, 156],
  "dcmmeta_slice_dim": 2,
  "dcmmeta_version": 0.6,
  "global": {
    "const": {
      "AcquisitionMatrix": [100, 0, 0, 100],
      "AngioFlag": "N",
      "BitsAllocated": 16,
      "BitsStored": 12,
      "BodyPartExamined": "BRAIN",
      "Columns": 900,
      "EchoNumbers": 1,
      "EchoTime": 34.0,
      "EchoTrainLength": 100,
      "FlipAngle": 90.0,
      "HighBit": 11,
      "ImageOrientationPatient": [1.0, 0.0, 0.0, 0.0, 0.95832257648472, -0.2856883606304],
      "ImagePositionPatient": [-900.0, -883.86378151325, 192.17789706492],
      "ImageType": [
        "ORIGINAL",
        "PRIMARY",
        "M",
        "ND",
        "MOSAIC"
],
      "ImagedNucleus": "1H",
      "ImagingFrequency": 123.257706,
      "InPlanePhaseEncodingDirection": "COL",
      "MRAcquisitionType": "2D",
      "MagneticFieldStrength": 3.0,
      "Manufacturer": "SIEMENS",
      "ManufacturerModelName": "Prisma",
      "Modality": "MR",
      "NumberOfAverages": 1.0,
      "NumberOfPhaseEncodingSteps": 100,
      "PercentPhaseFieldOfView": 100.0,
      "PercentSampling": 100.0,
      "PerformedProcedureStepStartTime": "141948.320000",
      "PhotometricInterpretation": "MONOCHROME2",
      "PixelBandwidth": 2380.0,
      "PixelRepresentation": 0,
      "PixelSpacing": [2.0, 2.0],
      "ProtocolName": "bold_100x100_s3_2x2x2_static_156",
      "RepetitionTime": 2000.0,
      "Rows": 900,
      "SAR": 0.0697099620386,
      "SamplesPerPixel": 1,
      "ScanOptions": "FS",
      "ScanningSequence": "EP",
      "SequenceName": "*epfid2d1_100",
      "SequenceVariant": "SK",
      "SeriesDescription": "bold_100x100_s3_2x2x2_static_156",
      "SeriesNumber": 16,
      "SeriesTime": "153054.746000",
      "SliceLocation": -68.341177302438,
      "SliceThickness": 2.0,
      "SmallestImagePixelValue": 0,
      "SoftwareVersions": "syngo MR E11",
      "SpacingBetweenSlices": 1.9999999601565,
      "SpecificCharacterSet": "ISO_IR 100",
      "StudyID": "1",
      "StudyTime": "141948.217000",
      "TransmitCoilName": "Body",
      "VariableFlipAngleFlag": "N",
      "WindowCenterWidthExplanation": "Algo1",
      "dBdt": 0.0},
    "slices": {}
  },
  "time": {
    "samples": {
      "AcquisitionNumber": [1, 2, 3, 4, 5, 6, 7, 8, 9, 10, 11, 12, 13, 14, 15, 16, 17, 18, 19, 20, 21, 22, 23, 24, 25, 26, 27, 28, 29, 30, 31, 32, 33, 34, 35, 36, 37, 38, 39, 40, 41, 42, 43, 44, 45, 46, 47, 48, 49, 50, 51, 52, 53, 54, 55, 56, 57, 58, 59, 60, 61, 62, 63, 64, 65, 66, 67, 68, 69, 70, 71, 72, 73, 74, 75, 76, 77, 78, 79, 80, 81, 82, 83, 84, 85, 86, 87, 88, 89, 90, 91, 92, 93, 94, 95, 96, 97, 98, 99, 100, 101, 102, 103, 104, 105, 106, 107, 108, 109, 110, 111, 112, 113, 114, 115, 116, 117, 118, 119, 120, 121, 122, 123, 124, 125, 126, 127, 128, 129, 130, 131, 132, 133, 134, 135, 136, 137, 138, 139, 140, 141, 142, 143, 144, 145, 146, 147, 148, 149, 150, 151, 152, 153, 154, 155, 156],
      "AcquisitionTime": ["153051.470000", "153053.470000", "153055.470000", "153057.470000", "153059.470000", "153101.470000", "153103.470000", "153105.470000", "153107.470000", "153109.470000", "153111.470000", "153113.470000", "153115.470000", "153117.470000", "153119.470000", "153121.470000", "153123.470000", "153125.470000", "153127.470000", "153129.470000", "153131.470000", "153133.470000", "153135.470000", "153137.470000", "153139.470000", "153141.470000", "153143.470000", "153145.470000", "153147.470000", "153149.470000", "153151.470000", "153153.470000", "153155.470000", "153157.470000", "153159.470000", "153201.470000", "153203.470000", "153205.470000", "153207.470000", "153209.470000", "153211.470000", "153213.470000", "153215.470000", "153217.470000", "153219.470000", "153221.470000", "153223.470000", "153225.470000", "153227.470000", "153229.470000", "153231.470000", "153233.470000", "153235.470000", "153237.470000", "153239.470000", "153241.470000", "153243.470000", "153245.470000", "153247.470000", "153249.470000", "153251.470000", "153253.470000", "153255.470000", "153257.470000", "153259.470000", "153301.470000", "153303.470000", "153305.470000", "153307.470000", "153309.470000", "153311.470000", "153313.470000", "153315.470000", "153317.470000", "153319.470000", "153321.470000", "153323.470000", "153325.470000", "153327.470000", "153329.470000", "153331.470000", "153333.470000", "153335.470000", "153337.470000", "153339.470000", "153341.470000", "153343.470000", "153345.470000", "153347.470000", "153349.470000", "153351.470000", "153353.470000", "153355.470000", "153357.470000", "153359.470000", "153401.470000", "153403.470000", "153405.470000", "153407.470000", "153409.470000", "153411.470000", "153413.470000", "153415.470000", "153417.470000", "153419.470000", "153421.470000", "153423.470000", "153425.470000", "153427.470000", "153429.470000", "153431.470000", "153433.470000", "153435.470000", "153437.470000", "153439.470000", "153441.470000", "153443.470000", "153445.470000", "153447.470000", "153449.470000", "153451.470000", "153453.470000", "153455.470000", "153457.470000", "153459.470000", "153501.470000", "153503.470000", "153505.470000", "153507.470000", "153509.470000", "153511.470000", "153513.470000", "153515.470000", "153517.470000", "153519.470000", "153521.470000", "153523.470000", "153525.470000", "153527.470000", "153529.470000", "153531.470000", "153533.470000", "153535.470000", "153537.470000", "153539.470000", "153541.470000", "153543.470000", "153545.470000", "153547.470000", "153549.470000", "153551.470000", "153553.470000", "153555.470000", "153557.470000", "153559.470000", "153601.470000"],
      "ContentTime": ["153054.750000", "153055.745000", "153057.745000", "153059.746000", "153102.246000", "153103.744000", "153105.744000", "153107.744000", "153109.745000", "153112.245000", "153114.245000", "153115.745000", "153117.745000", "153119.745000", "153121.745000", "153123.745000", "153126.245000", "153127.744000", "153129.746000", "153131.745000", "153133.745000", "153136.245000", "153137.745000", "153139.745000", "153141.745000", "153143.744000", "153145.744000", "153147.745000", "153149.745000", "153151.746000", "153153.746000", "153155.745000", "153157.745000", "153159.744000", "153201.744000", "153203.744000", "153205.745000", "153207.746000", "153209.745000", "153211.746000", "153213.745000", "153215.745000", "153217.744000", "153219.744000", "153221.744000", "153223.746000", "153225.746000", "153227.745000", "153229.745000", "153231.745000", "153233.745000", "153236.244000", "153237.745000", "153239.746000", "153241.746000", "153243.745000", "153246.246000", "153247.746000", "153249.744000", "153251.744000", "153253.744000", "153255.745000", "153257.746000", "153259.745000", "153301.746000", "153303.746000", "153305.745000", "153308.245000", "153309.745000", "153311.744000", "153313.745000", "153315.746000", "153317.746000", "153319.745000", "153321.745000", "153323.745000", "153325.746000", "153327.745000", "153329.745000", "153331.745000", "153334.246000", "153335.746000", "153337.746000", "153339.746000", "153341.744000", "153343.745000", "153345.745000", "153347.745000", "153349.746000", "153351.746000", "153353.746000", "153355.765000", "153357.746000", "153359.745000", "153402.245000", "153403.745000", "153405.745000", "153407.745000", "153409.746000", "153411.745000", "153413.745000", "153415.745000", "153417.744000", "153419.744000", "153422.244000", "153423.744000", "153426.245000", "153427.745000", "153429.745000", "153431.745000", "153433.744000", "153435.744000", "153437.765000", "153439.744000", "153441.745000", "153443.746000", "153445.745000", "153447.745000", "153449.746000", "153451.744000", "153453.744000", "153455.744000", "153457.744000", "153459.745000", "153501.745000", "153503.745000", "153505.745000", "153507.745000", "153509.745000", "153511.744000", "153514.245000", "153515.744000", "153517.745000", "153519.745000", "153521.745000", "153524.245000", "153525.745000", "153527.744000", "153529.744000", "153531.745000", "153533.744000", "153536.245000", "153537.746000", "153539.756000", "153541.745000", "153543.744000", "153545.744000", "153547.744000", "153549.744000", "153551.745000", "153553.745000", "153555.745000", "153557.745000", "153600.246000", "153601.744000", "153603.684000"],
      "InstanceCreationTime": ["153054.750000", "153055.745000", "153057.745000", "153059.746000", "153102.246000", "153103.744000", "153105.744000", "153107.744000", "153109.745000", "153112.245000", "153114.245000", "153115.745000", "153117.745000", "153119.745000", "153121.745000", "153123.745000", "153126.245000", "153127.744000", "153129.746000", "153131.745000", "153133.745000", "153136.245000", "153137.745000", "153139.745000", "153141.745000", "153143.744000", "153145.744000", "153147.745000", "153149.745000", "153151.746000", "153153.746000", "153155.745000", "153157.745000", "153159.744000", "153201.744000", "153203.744000", "153205.745000", "153207.746000", "153209.745000", "153211.746000", "153213.745000", "153215.745000", "153217.744000", "153219.744000", "153221.744000", "153223.746000", "153225.746000", "153227.745000", "153229.745000", "153231.745000", "153233.745000", "153236.244000", "153237.745000", "153239.746000", "153241.746000", "153243.745000", "153246.246000", "153247.746000", "153249.744000", "153251.744000", "153253.744000", "153255.745000", "153257.746000", "153259.745000", "153301.746000", "153303.746000", "153305.745000", "153308.245000", "153309.745000", "153311.744000", "153313.745000", "153315.746000", "153317.746000", "153319.745000", "153321.745000", "153323.745000", "153325.746000", "153327.745000", "153329.745000", "153331.745000", "153334.246000", "153335.746000", "153337.746000", "153339.746000", "153341.744000", "153343.745000", "153345.745000", "153347.745000", "153349.746000", "153351.746000", "153353.746000", "153355.765000", "153357.746000", "153359.745000", "153402.245000", "153403.745000", "153405.745000", "153407.745000", "153409.746000", "153411.745000", "153413.745000", "153415.745000", "153417.744000", "153419.744000", "153422.244000", "153423.744000", "153426.245000", "153427.745000", "153429.745000", "153431.745000", "153433.744000", "153435.744000", "153437.765000", "153439.744000", "153441.745000", "153443.746000", "153445.745000", "153447.745000", "153449.746000", "153451.744000", "153453.744000", "153455.744000", "153457.744000", "153459.745000", "153501.745000", "153503.745000", "153505.745000", "153507.745000", "153509.745000", "153511.744000", "153514.245000", "153515.744000", "153517.745000", "153519.745000", "153521.745000", "153524.245000", "153525.745000", "153527.744000", "153529.744000", "153531.745000", "153533.744000", "153536.245000", "153537.746000", "153539.756000", "153541.745000", "153543.744000", "153545.744000", "153547.744000", "153549.744000", "153551.745000", "153553.745000", "153555.745000", "153557.745000", "153600.246000", "153601.744000", "153603.684000"],
      "InstanceNumber": [1, 2, 3, 4, 5, 6, 7, 8, 9, 10, 11, 12, 13, 14, 15, 16, 17, 18, 19, 20, 21, 22, 23, 24, 25, 26, 27, 28, 29, 30, 31, 32, 33, 34, 35, 36, 37, 38, 39, 40, 41, 42, 43, 44, 45, 46, 47, 48, 49, 50, 51, 52, 53, 54, 55, 56, 57, 58, 59, 60, 61, 62, 63, 64, 65, 66, 67, 68, 69, 70, 71, 72, 73, 74, 75, 76, 77, 78, 79, 80, 81, 82, 83, 84, 85, 86, 87, 88, 89, 90, 91, 92, 93, 94, 95, 96, 97, 98, 99, 100, 101, 102, 103, 104, 105, 106, 107, 108, 109, 110, 111, 112, 113, 114, 115, 116, 117, 118, 119, 120, 121, 122, 123, 124, 125, 126, 127, 128, 129, 130, 131, 132, 133, 134, 135, 136, 137, 138, 139, 140, 141, 142, 143, 144, 145, 146, 147, 148, 149, 150, 151, 152, 153, 154, 155, 156],
      "LargestImagePixelValue": [3356, 3293, 3300, 3276, 3287, 3259, 3239, 3274, 3287, 3288, 3274, 3252, 3294, 3288, 3253, 3289, 3256, 3290, 3275, 3270, 3263, 3262, 3279, 3243, 3264, 3316, 3297, 3315, 3282, 3260, 3281, 3265, 3268, 3250, 3268, 3270, 3275, 3315, 3262, 3265, 3283, 3286, 3257, 3246, 3252, 3278, 3262, 3301, 3280, 3276, 3263, 3244, 3280, 3311, 3298, 3240, 3251, 3264, 3268, 3258, 3238, 3268, 3245, 3239, 3310, 3257, 3292, 3254, 3265, 3295, 3271, 3276, 3248, 3274, 3285, 3249, 3270, 3254, 3239, 3281, 3245, 3271, 3269, 3275, 3277, 3292, 3260, 3300, 3255, 3267, 3255, 3254, 3286, 3258, 3264, 3250, 3293, 3257, 3254, 3290, 3296, 3287, 3246, 3246, 3301, 3248, 3274, 3252, 3227, 3283, 3266, 3315, 3256, 3276, 3272, 3255, 3280, 3262, 3281, 3243, 3234, 3264, 3237, 3277, 3237, 3302, 3249, 3248, 3255, 3244, 3287, 3290, 3242, 3301, 3223, 3252, 3277, 3262, 3225, 3249, 3237, 3309, 3246, 3240, 3286, 3266, 3282, 3263, 3255, 3295, 3275, 3297, 3244, 3306, 3241, 3279],
      "WindowCenter": [810.0, 809.0, 809.0, 809.0, 809.0, 810.0, 809.0, 809.0, 809.0, 811.0, 811.0, 809.0, 808.0, 808.0, 807.0, 807.0, 806.0, 806.0, 806.0, 807.0, 808.0, 808.0, 808.0, 808.0, 808.0, 809.0, 809.0, 809.0, 809.0, 809.0, 809.0, 809.0, 809.0, 809.0, 809.0, 809.0, 809.0, 809.0, 808.0, 809.0, 810.0, 809.0, 809.0, 807.0, 808.0, 809.0, 809.0, 809.0, 810.0, 810.0, 809.0, 807.0, 808.0, 809.0, 809.0, 808.0, 809.0, 811.0, 813.0, 811.0, 810.0, 809.0, 808.0, 808.0, 807.0, 807.0, 808.0, 808.0, 809.0, 809.0, 809.0, 809.0, 808.0, 809.0, 810.0, 809.0, 808.0, 807.0, 807.0, 808.0, 809.0, 809.0, 808.0, 808.0, 808.0, 808.0, 808.0, 808.0, 807.0, 808.0, 810.0, 810.0, 810.0, 808.0, 809.0, 810.0, 811.0, 810.0, 808.0, 809.0, 809.0, 809.0, 808.0, 808.0, 808.0, 808.0, 808.0, 809.0, 808.0, 808.0, 808.0, 809.0, 809.0, 809.0, 808.0, 808.0, 809.0, 809.0, 809.0, 808.0, 807.0, 807.0, 807.0, 808.0, 809.0, 810.0, 808.0, 808.0, 808.0, 809.0, 810.0, 810.0, 808.0, 808.0, 807.0, 809.0, 811.0, 810.0, 808.0, 808.0, 809.0, 810.0, 809.0, 809.0, 810.0, 809.0, 809.0, 809.0, 810.0, 810.0, 809.0, 808.0, 808.0, 810.0, 810.0, 809.0],
      "WindowWidth": [1737.0, 1733.0, 1731.0, 1732.0, 1734.0, 1735.0, 1733.0, 1731.0, 1732.0, 1738.0, 1739.0, 1733.0, 1730.0, 1729.0, 1727.0, 1726.0, 1724.0, 1726.0, 1725.0, 1727.0, 1731.0, 1731.0, 1730.0, 1729.0, 1731.0, 1732.0, 1731.0, 1732.0, 1732.0, 1732.0, 1733.0, 1731.0, 1731.0, 1731.0, 1732.0, 1734.0, 1731.0, 1731.0, 1731.0, 1733.0, 1735.0, 1733.0, 1731.0, 1728.0, 1729.0, 1732.0, 1732.0, 1733.0, 1735.0, 1735.0, 1732.0, 1728.0, 1729.0, 1731.0, 1731.0, 1730.0, 1733.0, 1737.0, 1741.0, 1738.0, 1734.0, 1733.0, 1730.0, 1729.0, 1728.0, 1726.0, 1730.0, 1730.0, 1731.0, 1732.0, 1731.0, 1731.0, 1730.0, 1733.0, 1734.0, 1731.0, 1728.0, 1726.0, 1727.0, 1730.0, 1731.0, 1731.0, 1728.0, 1729.0, 1730.0, 1730.0, 1728.0, 1729.0, 1727.0, 1729.0, 1734.0, 1735.0, 1734.0, 1730.0, 1731.0, 1735.0, 1737.0, 1734.0, 1730.0, 1732.0, 1732.0, 1733.0, 1729.0, 1728.0, 1730.0, 1730.0, 1730.0, 1730.0, 1728.0, 1729.0, 1729.0, 1733.0, 1733.0, 1732.0, 1728.0, 1728.0, 1732.0, 1733.0, 1732.0, 1729.0, 1727.0, 1727.0, 1726.0, 1728.0, 1730.0, 1735.0, 1730.0, 1728.0, 1729.0, 1731.0, 1734.0, 1734.0, 1730.0, 1730.0, 1727.0, 1731.0, 1736.0, 1735.0, 1730.0, 1729.0, 1731.0, 1734.0, 1731.0, 1732.0, 1733.0, 1732.0, 1732.0, 1732.0, 1734.0, 1734.0, 1731.0, 1729.0, 1729.0, 1734.0, 1733.0, 1733.0]
    },
    "slices": {}
  }
}