{
  "AcquisitionMatrixPE": 100,
  "AcquisitionNumber": 1,
  "AcquisitionTime": "09:10:58.027500",
  "BandwidthPerPixelPhaseEncode": 18.519,
  "BaseResolution": 100,
  "BodyPartExamined": "BRAIN",
  "CoilCombinationMethod": "Sum of Squares",
  "ConsistencyInfo": "N4_VE11C_LATEST_20160120",
  "ConversionSoftware": "dcm2niix",
  "ConversionSoftwareVersion": "v1.0.20211006",
  "DerivedVendorReportedEchoSpacing": 0.000539986,
  "DeviceSerialNumber": "166078",
  "DwellTime": 2.1e-06,
  "EchoTime": 0.034,
  "EchoTrainLength": 100,
  "EffectiveEchoSpacing": 0.000539986,
  "FlipAngle": 90,
  "ImageOrientationPatientDICOM": [0.997595, -0.00798625, -0.0688557, -3.63914e-08, 0.993341, -0.115214],
  "ImageOrientationText": "Tra>Cor(-6.6)>Sag(-4.0)",
  "ImageType": [
    "ORIGINAL",
    "PRIMARY",
    "M",
    "ND",
    "MOSAIC"
],
  "ImagingFrequency": 123.258,
  "InPlanePhaseEncodingDirectionDICOM": "COL",
  "InstitutionAddress": "Street StreetNo,Bei Jing,District,CN,ZIP",
  "InstitutionName": "BeiJing Normal University",
  "InstitutionalDepartmentName": "Department",
  "MRAcquisitionType": "2D",
  "MagneticFieldStrength": 3,
  "Manufacturer": "Siemens",
  "ManufacturersModelName": "Prisma",
  "Modality": "MR",
  "MultibandAccelerationFactor": 3,
  "PartialFourier": 1,
  "PatientPosition": "HFS",
  "PercentPhaseFOV": 100,
  "PercentSampling": 100,
  "PhaseEncodingDirection": "j-",
  "PhaseEncodingSteps": 100,
  "PhaseResolution": 1,
  "PixelBandwidth": 2380,
  "ProcedureStepDescription": "BNU_P2018_64CH^Zhen.ZongLei",
  "ProtocolName": "bold_100x100_s3_2x2x2_static_156",
  "PulseSequenceDetails": "%SiemensSeq%\\ep2d_bold",
  "ReceiveCoilActiveElements": "HC1-7;NC1",
  "ReceiveCoilName": "HeadNeck_64",
  "ReconMatrixPE": 100,
  "RefLinesPE": 32,
  "RepetitionTime": 2,
  "SAR": 0.0706612,
  "ScanOptions": "FS",
  "ScanningSequence": "EP",
  "SequenceName": "*epfid2d1_100",
  "SequenceVariant": "SK",
  "SeriesDescription": "bold_100x100_s3_2x2x2_static_156",
  "SeriesNumber": 5,
  "ShimSetting": [-5486, -11512, -1275, 305, -95, -247, -12, 79],
  "SliceThickness": 2,
  "SliceTiming": [1.485, 0, 0.99, 0.0825, 1.0725, 0.165, 1.155, 0.2475, 1.2375, 0.33, 1.32, 0.4125, 1.4025, 0.5775, 1.5675, 0.66, 1.65, 0.7425, 1.7325, 0.825, 1.815, 0.9075, 1.8975, 0.495, 1.485, 0, 0.99, 0.0825, 1.0725, 0.165, 1.155, 0.2475, 1.2375, 0.33, 1.32, 0.4125, 1.4025, 0.5775, 1.5675, 0.66, 1.65, 0.7425, 1.7325, 0.825, 1.815, 0.9075, 1.8975, 0.495, 1.485, 0, 0.99, 0.0825, 1.0725, 0.165, 1.155, 0.2475, 1.2375, 0.33, 1.32, 0.4125, 1.4025, 0.5775, 1.5675, 0.66, 1.65, 0.7425, 1.7325, 0.825, 1.815, 0.9075, 1.8975, 0.495],
  "SoftwareVersions": "syngo MR E11",
  "SpacingBetweenSlices": 2,
  "StationName": "AWP166078",
  "TaskName": "action",
  "TotalReadoutTime": 0.0534586,
  "TxRefAmp": 220.789,
  "dcmmeta_affine": [
    [-1.9951893091201782, -7.278278246758418e-08, -0.13863451778888702, 104.43451690673828],
    [0.015972508117556572, 1.9866814613342285, -0.2298729121685028, -73.78707122802734],
    [-0.1377113312482834, 0.23042716085910797, 1.981902837753296, -71.05197143554688],
    [0.0, 0.0, 0.0, 1.0]
],
  "dcmmeta_reorient_transform": [
    [0.0, -1.0, 0.0, 99.0],
    [1.0, 0.0, 0.0, 0.0],
    [0.0, 0.0, 1.0, 0.0],
    [0.0, 0.0, 0.0, 1.0]
],
  "dcmmeta_shape": [100, 100, 72, 156],
  "dcmmeta_slice_dim": 2,
  "dcmmeta_version": 0.6,
  "global": {
    "const": {
      "AcquisitionMatrix": [100, 0, 0, 100],
      "AngioFlag": "N",
      "BitsAllocated": 16,
      "BitsStored": 12,
      "BodyPartExamined": "BRAIN",
      "Columns": 900,
      "EchoNumbers": 1,
      "EchoTime": 34.0,
      "EchoTrainLength": 100,
      "FlipAngle": 90.0,
      "HighBit": 11,
      "ImageOrientationPatient": [0.99759466577659, -0.0079862536882, -0.0688556647351, -3.6391392e-08, 0.99334074291012, -0.1152135776494],
      "ImagePositionPatient": [-902.51021146011, -911.17798805364, 99.015711700742],
      "ImageType": [
        "ORIGINAL",
        "PRIMARY",
        "M",
        "ND",
        "MOSAIC"
],
      "ImagedNucleus": "1H",
      "ImagingFrequency": 123.257691,
      "InPlanePhaseEncodingDirection": "COL",
      "MRAcquisitionType": "2D",
      "MagneticFieldStrength": 3.0,
      "Manufacturer": "SIEMENS",
      "ManufacturerModelName": "Prisma",
      "Modality": "MR",
      "NumberOfAverages": 1.0,
      "NumberOfPhaseEncodingSteps": 100,
      "PercentPhaseFieldOfView": 100.0,
      "PercentSampling": 100.0,
      "PerformedProcedureStepStartTime": "085431.095000",
      "PhotometricInterpretation": "MONOCHROME2",
      "PixelBandwidth": 2380.0,
      "PixelRepresentation": 0,
      "PixelSpacing": [2.0, 2.0],
      "ProtocolName": "bold_100x100_s3_2x2x2_static_156",
      "RepetitionTime": 2000.0,
      "Rows": 900,
      "SAR": 0.0706611717982,
      "SamplesPerPixel": 1,
      "ScanOptions": "FS",
      "ScanningSequence": "EP",
      "SequenceName": "*epfid2d1_100",
      "SequenceVariant": "SK",
      "SeriesDescription": "bold_100x100_s3_2x2x2_static_156",
      "SeriesNumber": 5,
      "SeriesTime": "091100.456000",
      "SliceLocation": -69.167342077696,
      "SliceThickness": 2.0,
      "SmallestImagePixelValue": 0,
      "SoftwareVersions": "syngo MR E11",
      "SpacingBetweenSlices": 2.0000000090193,
      "SpecificCharacterSet": "ISO_IR 100",
      "StudyID": "1",
      "StudyTime": "085430.986000",
      "TransmitCoilName": "Body",
      "VariableFlipAngleFlag": "N",
      "WindowCenterWidthExplanation": "Algo1",
      "dBdt": 0.0},
    "slices": {}
  },
  "time": {
    "samples": {
      "AcquisitionNumber": [1, 2, 3, 4, 5, 6, 7, 8, 9, 10, 11, 12, 13, 14, 15, 16, 17, 18, 19, 20, 21, 22, 23, 24, 25, 26, 27, 28, 29, 30, 31, 32, 33, 34, 35, 36, 37, 38, 39, 40, 41, 42, 43, 44, 45, 46, 47, 48, 49, 50, 51, 52, 53, 54, 55, 56, 57, 58, 59, 60, 61, 62, 63, 64, 65, 66, 67, 68, 69, 70, 71, 72, 73, 74, 75, 76, 77, 78, 79, 80, 81, 82, 83, 84, 85, 86, 87, 88, 89, 90, 91, 92, 93, 94, 95, 96, 97, 98, 99, 100, 101, 102, 103, 104, 105, 106, 107, 108, 109, 110, 111, 112, 113, 114, 115, 116, 117, 118, 119, 120, 121, 122, 123, 124, 125, 126, 127, 128, 129, 130, 131, 132, 133, 134, 135, 136, 137, 138, 139, 140, 141, 142, 143, 144, 145, 146, 147, 148, 149, 150, 151, 152, 153, 154, 155, 156],
      "AcquisitionTime": ["091058.027500", "091100.027500", "091102.027500", "091104.027500", "091106.027500", "091108.027500", "091110.027500", "091112.027500", "091114.027500", "091116.027500", "091118.027500", "091120.027500", "091122.027500", "091124.027500", "091126.027500", "091128.027500", "091130.027500", "091132.027500", "091134.027500", "091136.027500", "091138.027500", "091140.027500", "091142.027500", "091144.027500", "091146.027500", "091148.027500", "091150.027500", "091152.027500", "091154.027500", "091156.027500", "091158.027500", "091200.027500", "091202.027500", "091204.027500", "091206.027500", "091208.027500", "091210.027500", "091212.027500", "091214.027500", "091216.027500", "091218.027500", "091220.027500", "091222.027500", "091224.027500", "091226.027500", "091228.027500", "091230.027500", "091232.027500", "091234.027500", "091236.027500", "091238.027500", "091240.027500", "091242.027500", "091244.027500", "091246.027500", "091248.027500", "091250.027500", "091252.027500", "091254.027500", "091256.027500", "091258.027500", "091300.027500", "091302.027500", "091304.027500", "091306.027500", "091308.027500", "091310.027500", "091312.027500", "091314.027500", "091316.027500", "091318.027500", "091320.027500", "091322.027500", "091324.027500", "091326.027500", "091328.027500", "091330.027500", "091332.027500", "091334.027500", "091336.027500", "091338.027500", "091340.027500", "091342.027500", "091344.027500", "091346.027500", "091348.027500", "091350.027500", "091352.027500", "091354.027500", "091356.027500", "091358.027500", "091400.027500", "091402.027500", "091404.027500", "091406.027500", "091408.027500", "091410.027500", "091412.027500", "091414.027500", "091416.027500", "091418.027500", "091420.027500", "091422.027500", "091424.027500", "091426.027500", "091428.027500", "091430.027500", "091432.027500", "091434.027500", "091436.027500", "091438.027500", "091440.027500", "091442.027500", "091444.027500", "091446.027500", "091448.027500", "091450.027500", "091452.027500", "091454.027500", "091456.027500", "091458.027500", "091500.027500", "091502.027500", "091504.027500", "091506.027500", "091508.027500", "091510.027500", "091512.027500", "091514.027500", "091516.027500", "091518.027500", "091520.027500", "091522.027500", "091524.027500", "091526.027500", "091528.027500", "091530.027500", "091532.027500", "091534.027500", "091536.027500", "091538.027500", "091540.027500", "091542.027500", "091544.027500", "091546.027500", "091548.027500", "091550.027500", "091552.027500", "091554.027500", "091556.027500", "091558.027500", "091600.027500", "091602.027500", "091604.027500", "091606.027500", "091608.027500"],
      "ContentTime": ["091100.460000", "091101.945000", "091103.945000", "091106.444000", "091108.443000", "091110.445000", "091112.445000", "091114.445000", "091115.945000", "091118.445000", "091119.944000", "091121.944000", "091123.943000", "091126.445000", "091128.444000", "091130.445000", "091132.445000", "091134.444000", "091136.445000", "091138.444000", "091140.443000", "091142.444000", "091143.944000", "091146.444000", "091148.444000", "091149.945000", "091152.445000", "091153.944000", "091156.444000", "091157.943000", "091200.443000", "091202.444000", "091204.444000", "091205.944000", "091207.945000", "091210.444000", "091211.944000", "091214.443000", "091216.443000", "091218.444000", "091220.444000", "091222.444000", "091224.444000", "091226.445000", "091228.444000", "091229.944000", "091231.944000", "091233.943000", "091236.444000", "091238.444000", "091240.444000", "091242.444000", "091243.945000", "091246.444000", "091248.444000", "091250.443000", "091252.444000", "091253.945000", "091256.445000", "091258.444000", "091300.445000", "091302.444000", "091304.444000", "091305.945000", "091308.444000", "091310.443000", "091312.445000", "091314.445000", "091315.945000", "091318.445000", "091320.445000", "091322.444000", "091323.945000", "091325.944000", "091328.444000", "091330.445000", "091332.445000", "091333.944000", "091336.444000", "091338.444000", "091340.445000", "091342.444000", "091344.444000", "091346.444000", "091347.945000", "091350.444000", "091352.444000", "091354.444000", "091355.945000", "091358.444000", "091359.943000", "091401.943000", "091404.445000", "091405.945000", "091408.445000", "091409.944000", "091412.445000", "091414.445000", "091416.445000", "091418.444000", "091420.443000", "091422.445000", "091424.445000", "091426.445000", "091428.445000", "091430.444000", "091431.944000", "091434.444000", "091436.444000", "091438.444000", "091440.445000", "091441.944000", "091444.444000", "091446.445000", "091447.944000", "091450.445000", "091451.944000", "091454.444000", "091456.445000", "091458.444000", "091500.444000", "091502.444000", "091504.445000", "091506.445000", "091508.444000", "091510.443000", "091512.444000", "091514.445000", "091516.445000", "091518.445000", "091520.445000", "091522.444000", "091524.444000", "091526.445000", "091528.444000", "091529.944000", "091532.445000", "091534.445000", "091536.445000", "091538.444000", "091540.444000", "091542.445000", "091544.444000", "091546.444000", "091548.445000", "091550.445000", "091552.444000", "091554.444000", "091555.944000", "091558.444000", "091600.445000", "091602.444000", "091604.444000", "091606.444000", "091608.444000", "091610.002000"],
      "InstanceCreationTime": ["091100.460000", "091101.945000", "091103.945000", "091106.444000", "091108.443000", "091110.445000", "091112.445000", "091114.445000", "091115.945000", "091118.445000", "091119.944000", "091121.944000", "091123.943000", "091126.445000", "091128.444000", "091130.445000", "091132.445000", "091134.444000", "091136.445000", "091138.444000", "091140.443000", "091142.444000", "091143.944000", "091146.444000", "091148.444000", "091149.945000", "091152.445000", "091153.944000", "091156.444000", "091157.943000", "091200.443000", "091202.444000", "091204.444000", "091205.944000", "091207.945000", "091210.444000", "091211.944000", "091214.443000", "091216.443000", "091218.444000", "091220.444000", "091222.444000", "091224.444000", "091226.445000", "091228.444000", "091229.944000", "091231.944000", "091233.943000", "091236.444000", "091238.444000", "091240.444000", "091242.444000", "091243.945000", "091246.444000", "091248.444000", "091250.443000", "091252.444000", "091253.945000", "091256.445000", "091258.444000", "091300.445000", "091302.444000", "091304.444000", "091305.945000", "091308.444000", "091310.443000", "091312.445000", "091314.445000", "091315.945000", "091318.445000", "091320.445000", "091322.444000", "091323.945000", "091325.944000", "091328.444000", "091330.445000", "091332.445000", "091333.944000", "091336.444000", "091338.444000", "091340.445000", "091342.444000", "091344.444000", "091346.444000", "091347.945000", "091350.444000", "091352.444000", "091354.444000", "091355.945000", "091358.444000", "091359.943000", "091401.943000", "091404.445000", "091405.945000", "091408.445000", "091409.944000", "091412.445000", "091414.445000", "091416.445000", "091418.444000", "091420.443000", "091422.445000", "091424.445000", "091426.445000", "091428.445000", "091430.444000", "091431.944000", "091434.444000", "091436.444000", "091438.444000", "091440.445000", "091441.944000", "091444.444000", "091446.445000", "091447.944000", "091450.445000", "091451.944000", "091454.444000", "091456.445000", "091458.444000", "091500.444000", "091502.444000", "091504.445000", "091506.445000", "091508.444000", "091510.443000", "091512.444000", "091514.445000", "091516.445000", "091518.445000", "091520.445000", "091522.444000", "091524.444000", "091526.445000", "091528.444000", "091529.944000", "091532.445000", "091534.445000", "091536.445000", "091538.444000", "091540.444000", "091542.445000", "091544.444000", "091546.444000", "091548.445000", "091550.445000", "091552.444000", "091554.444000", "091555.944000", "091558.444000", "091600.445000", "091602.444000", "091604.444000", "091606.444000", "091608.444000", "091610.002000"],
      "InstanceNumber": [1, 2, 3, 4, 5, 6, 7, 8, 9, 10, 11, 12, 13, 14, 15, 16, 17, 18, 19, 20, 21, 22, 23, 24, 25, 26, 27, 28, 29, 30, 31, 32, 33, 34, 35, 36, 37, 38, 39, 40, 41, 42, 43, 44, 45, 46, 47, 48, 49, 50, 51, 52, 53, 54, 55, 56, 57, 58, 59, 60, 61, 62, 63, 64, 65, 66, 67, 68, 69, 70, 71, 72, 73, 74, 75, 76, 77, 78, 79, 80, 81, 82, 83, 84, 85, 86, 87, 88, 89, 90, 91, 92, 93, 94, 95, 96, 97, 98, 99, 100, 101, 102, 103, 104, 105, 106, 107, 108, 109, 110, 111, 112, 113, 114, 115, 116, 117, 118, 119, 120, 121, 122, 123, 124, 125, 126, 127, 128, 129, 130, 131, 132, 133, 134, 135, 136, 137, 138, 139, 140, 141, 142, 143, 144, 145, 146, 147, 148, 149, 150, 151, 152, 153, 154, 155, 156],
      "LargestImagePixelValue": [2835, 2680, 2675, 2687, 2662, 2817, 2662, 2657, 2673, 2735, 2675, 2671, 2789, 2729, 2687, 2646, 2618, 2784, 2770, 2624, 2685, 2704, 2739, 2688, 2714, 2644, 2732, 2676, 2778, 2660, 2645, 2618, 2637, 2651, 2635, 2706, 2775, 2608, 2654, 2576, 2849, 2772, 2773, 2684, 2715, 2647, 2725, 2655, 2771, 2640, 2584, 2748, 2752, 2681, 2713, 2631, 2615, 2606, 2655, 2654, 2611, 2571, 2621, 2559, 2635, 2879, 2686, 2584, 2631, 2747, 2726, 2619, 2652, 2576, 2672, 2618, 2741, 2768, 2677, 2782, 2721, 2705, 2839, 2594, 2653, 2728, 2760, 2727, 2570, 2585, 2734, 2640, 2803, 2576, 2638, 2641, 2650, 2622, 2652, 2556, 2805, 2746, 2651, 2561, 2571, 2647, 2652, 2686, 2627, 2702, 2699, 2802, 2741, 2746, 2734, 2655, 2582, 2639, 2732, 2638, 2602, 2694, 2688, 2609, 2677, 2724, 2770, 2606, 2575, 2681, 2669, 2659, 2592, 2672, 2656, 2577, 2658, 2575, 2654, 2742, 2621, 2684, 2688, 2705, 2743, 2629, 2603, 2653, 2698, 2623, 2507, 2662, 2741, 2705, 2661, 2802],
      "WindowCenter": [748.0, 746.0, 745.0, 744.0, 745.0, 747.0, 745.0, 745.0, 746.0, 747.0, 746.0, 746.0, 748.0, 746.0, 745.0, 744.0, 745.0, 747.0, 746.0, 744.0, 746.0, 746.0, 746.0, 744.0, 745.0, 744.0, 745.0, 745.0, 746.0, 743.0, 742.0, 743.0, 744.0, 745.0, 745.0, 746.0, 747.0, 744.0, 745.0, 745.0, 748.0, 746.0, 746.0, 745.0, 746.0, 745.0, 747.0, 745.0, 745.0, 743.0, 744.0, 746.0, 745.0, 744.0, 744.0, 743.0, 744.0, 745.0, 745.0, 744.0, 743.0, 743.0, 744.0, 743.0, 744.0, 747.0, 744.0, 743.0, 745.0, 746.0, 745.0, 744.0, 745.0, 744.0, 746.0, 745.0, 747.0, 745.0, 744.0, 746.0, 746.0, 746.0, 747.0, 744.0, 745.0, 746.0, 746.0, 745.0, 744.0, 744.0, 745.0, 745.0, 747.0, 745.0, 745.0, 745.0, 746.0, 745.0, 746.0, 744.0, 747.0, 747.0, 744.0, 743.0, 744.0, 745.0, 746.0, 747.0, 747.0, 747.0, 746.0, 747.0, 747.0, 746.0, 746.0, 746.0, 746.0, 746.0, 746.0, 745.0, 746.0, 747.0, 746.0, 746.0, 747.0, 747.0, 746.0, 743.0, 745.0, 746.0, 746.0, 746.0, 745.0, 746.0, 746.0, 745.0, 747.0, 745.0, 744.0, 746.0, 745.0, 745.0, 745.0, 745.0, 746.0, 745.0, 745.0, 745.0, 745.0, 743.0, 743.0, 746.0, 746.0, 745.0, 744.0, 745.0],
      "WindowWidth": [1583.0, 1578.0, 1576.0, 1574.0, 1575.0, 1579.0, 1574.0, 1574.0, 1578.0, 1579.0, 1577.0, 1578.0, 1581.0, 1577.0, 1575.0, 1573.0, 1575.0, 1581.0, 1578.0, 1573.0, 1577.0, 1578.0, 1578.0, 1574.0, 1575.0, 1573.0, 1575.0, 1575.0, 1577.0, 1571.0, 1568.0, 1570.0, 1573.0, 1576.0, 1575.0, 1577.0, 1579.0, 1573.0, 1574.0, 1576.0, 1582.0, 1579.0, 1577.0, 1575.0, 1577.0, 1574.0, 1580.0, 1576.0, 1575.0, 1571.0, 1572.0, 1577.0, 1575.0, 1572.0, 1571.0, 1570.0, 1573.0, 1575.0, 1575.0, 1573.0, 1570.0, 1569.0, 1572.0, 1570.0, 1573.0, 1580.0, 1572.0, 1571.0, 1574.0, 1577.0, 1576.0, 1572.0, 1575.0, 1573.0, 1577.0, 1576.0, 1579.0, 1575.0, 1572.0, 1577.0, 1577.0, 1577.0, 1579.0, 1573.0, 1576.0, 1578.0, 1578.0, 1575.0, 1572.0, 1573.0, 1576.0, 1574.0, 1579.0, 1574.0, 1576.0, 1576.0, 1577.0, 1576.0, 1576.0, 1573.0, 1581.0, 1579.0, 1572.0, 1570.0, 1571.0, 1575.0, 1578.0, 1580.0, 1579.0, 1579.0, 1578.0, 1581.0, 1579.0, 1578.0, 1576.0, 1576.0, 1577.0, 1576.0, 1577.0, 1576.0, 1578.0, 1580.0, 1578.0, 1577.0, 1580.0, 1579.0, 1577.0, 1571.0, 1575.0, 1578.0, 1578.0, 1578.0, 1576.0, 1577.0, 1577.0, 1576.0, 1579.0, 1574.0, 1573.0, 1576.0, 1574.0, 1576.0, 1575.0, 1575.0, 1577.0, 1574.0, 1574.0, 1575.0, 1574.0, 1570.0, 1570.0, 1576.0, 1578.0, 1574.0, 1571.0, 1574.0]
    },
    "slices": {}
  }
}