{
  "AcquisitionMatrixPE": 100,
  "AcquisitionNumber": 1,
  "AcquisitionTime": "09:24:56.942500",
  "BandwidthPerPixelPhaseEncode": 18.519,
  "BaseResolution": 100,
  "BodyPartExamined": "BRAIN",
  "CoilCombinationMethod": "Sum of Squares",
  "ConsistencyInfo": "N4_VE11C_LATEST_20160120",
  "ConversionSoftware": "dcm2niix",
  "ConversionSoftwareVersion": "v1.0.20211006",
  "DerivedVendorReportedEchoSpacing": 0.000539986,
  "DeviceSerialNumber": "166078",
  "DwellTime": 2.1e-06,
  "EchoTime": 0.034,
  "EchoTrainLength": 100,
  "EffectiveEchoSpacing": 0.000539986,
  "FlipAngle": 90,
  "ImageOrientationPatientDICOM": [0.997595, -0.00798625, -0.0688557, -3.63914e-08, 0.993341, -0.115214],
  "ImageOrientationText": "Tra>Cor(-6.6)>Sag(-4.0)",
  "ImageType": [
    "ORIGINAL",
    "PRIMARY",
    "M",
    "ND",
    "MOSAIC"
],
  "ImagingFrequency": 123.258,
  "InPlanePhaseEncodingDirectionDICOM": "COL",
  "InstitutionAddress": "Street StreetNo,Bei Jing,District,CN,ZIP",
  "InstitutionName": "BeiJing Normal University",
  "InstitutionalDepartmentName": "Department",
  "MRAcquisitionType": "2D",
  "MagneticFieldStrength": 3,
  "Manufacturer": "Siemens",
  "ManufacturersModelName": "Prisma",
  "Modality": "MR",
  "MultibandAccelerationFactor": 3,
  "PartialFourier": 1,
  "PatientPosition": "HFS",
  "PercentPhaseFOV": 100,
  "PercentSampling": 100,
  "PhaseEncodingDirection": "j-",
  "PhaseEncodingSteps": 100,
  "PhaseResolution": 1,
  "PixelBandwidth": 2380,
  "ProcedureStepDescription": "BNU_P2018_64CH^Zhen.ZongLei",
  "ProtocolName": "bold_100x100_s3_2x2x2_static_156",
  "PulseSequenceDetails": "%SiemensSeq%\\ep2d_bold",
  "ReceiveCoilActiveElements": "HC1-7;NC1",
  "ReceiveCoilName": "HeadNeck_64",
  "ReconMatrixPE": 100,
  "RefLinesPE": 32,
  "RepetitionTime": 2,
  "SAR": 0.0706612,
  "ScanOptions": "FS",
  "ScanningSequence": "EP",
  "SequenceName": "*epfid2d1_100",
  "SequenceVariant": "SK",
  "SeriesDescription": "bold_100x100_s3_2x2x2_static_156",
  "SeriesNumber": 9,
  "ShimSetting": [-5486, -11512, -1275, 305, -95, -247, -12, 79],
  "SliceThickness": 2,
  "SliceTiming": [1.485, 0, 0.99, 0.0825, 1.0725, 0.165, 1.155, 0.2475, 1.2375, 0.33, 1.32, 0.4125, 1.4025, 0.5775, 1.5675, 0.66, 1.65, 0.7425, 1.7325, 0.825, 1.815, 0.9075, 1.8975, 0.495, 1.485, 0, 0.99, 0.0825, 1.0725, 0.165, 1.155, 0.2475, 1.2375, 0.33, 1.32, 0.4125, 1.4025, 0.5775, 1.5675, 0.66, 1.65, 0.7425, 1.7325, 0.825, 1.815, 0.9075, 1.8975, 0.495, 1.485, 0, 0.99, 0.0825, 1.0725, 0.165, 1.155, 0.2475, 1.2375, 0.33, 1.32, 0.4125, 1.4025, 0.5775, 1.5675, 0.66, 1.65, 0.7425, 1.7325, 0.825, 1.815, 0.9075, 1.8975, 0.495],
  "SoftwareVersions": "syngo MR E11",
  "SpacingBetweenSlices": 2,
  "StationName": "AWP166078",
  "TaskName": "action",
  "TotalReadoutTime": 0.0534586,
  "TxRefAmp": 220.789,
  "dcmmeta_affine": [
    [-1.9951893091201782, -7.278278246758418e-08, -0.13863451778888702, 104.43451690673828],
    [0.015972508117556572, 1.9866814613342285, -0.2298729121685028, -73.78707122802734],
    [-0.1377113312482834, 0.23042716085910797, 1.981902837753296, -71.05197143554688],
    [0.0, 0.0, 0.0, 1.0]
],
  "dcmmeta_reorient_transform": [
    [0.0, -1.0, 0.0, 99.0],
    [1.0, 0.0, 0.0, 0.0],
    [0.0, 0.0, 1.0, 0.0],
    [0.0, 0.0, 0.0, 1.0]
],
  "dcmmeta_shape": [100, 100, 72, 156],
  "dcmmeta_slice_dim": 2,
  "dcmmeta_version": 0.6,
  "global": {
    "const": {
      "AcquisitionMatrix": [100, 0, 0, 100],
      "AngioFlag": "N",
      "BitsAllocated": 16,
      "BitsStored": 12,
      "BodyPartExamined": "BRAIN",
      "Columns": 900,
      "EchoNumbers": 1,
      "EchoTime": 34.0,
      "EchoTrainLength": 100,
      "FlipAngle": 90.0,
      "HighBit": 11,
      "ImageOrientationPatient": [0.99759466577659, -0.0079862536882, -0.0688556647351, -3.6391392e-08, 0.99334074291012, -0.1152135776494],
      "ImagePositionPatient": [-902.51021146011, -911.17798805364, 99.015711700742],
      "ImageType": [
        "ORIGINAL",
        "PRIMARY",
        "M",
        "ND",
        "MOSAIC"
],
      "ImagedNucleus": "1H",
      "ImagingFrequency": 123.257701,
      "InPlanePhaseEncodingDirection": "COL",
      "MRAcquisitionType": "2D",
      "MagneticFieldStrength": 3.0,
      "Manufacturer": "SIEMENS",
      "ManufacturerModelName": "Prisma",
      "Modality": "MR",
      "NumberOfAverages": 1.0,
      "NumberOfPhaseEncodingSteps": 100,
      "PercentPhaseFieldOfView": 100.0,
      "PercentSampling": 100.0,
      "PerformedProcedureStepStartTime": "085431.095000",
      "PhotometricInterpretation": "MONOCHROME2",
      "PixelBandwidth": 2380.0,
      "PixelRepresentation": 0,
      "PixelSpacing": [2.0, 2.0],
      "ProtocolName": "bold_100x100_s3_2x2x2_static_156",
      "RepetitionTime": 2000.0,
      "Rows": 900,
      "SAR": 0.0706611717982,
      "SamplesPerPixel": 1,
      "ScanOptions": "FS",
      "ScanningSequence": "EP",
      "SequenceName": "*epfid2d1_100",
      "SequenceVariant": "SK",
      "SeriesDescription": "bold_100x100_s3_2x2x2_static_156",
      "SeriesNumber": 9,
      "SeriesTime": "092459.607000",
      "SliceLocation": -69.167342077696,
      "SliceThickness": 2.0,
      "SmallestImagePixelValue": 0,
      "SoftwareVersions": "syngo MR E11",
      "SpacingBetweenSlices": 2.0000000090193,
      "SpecificCharacterSet": "ISO_IR 100",
      "StudyID": "1",
      "StudyTime": "085430.986000",
      "TransmitCoilName": "Body",
      "VariableFlipAngleFlag": "N",
      "WindowCenterWidthExplanation": "Algo1",
      "dBdt": 0.0},
    "slices": {}
  },
  "time": {
    "samples": {
      "AcquisitionNumber": [1, 2, 3, 4, 5, 6, 7, 8, 9, 10, 11, 12, 13, 14, 15, 16, 17, 18, 19, 20, 21, 22, 23, 24, 25, 26, 27, 28, 29, 30, 31, 32, 33, 34, 35, 36, 37, 38, 39, 40, 41, 42, 43, 44, 45, 46, 47, 48, 49, 50, 51, 52, 53, 54, 55, 56, 57, 58, 59, 60, 61, 62, 63, 64, 65, 66, 67, 68, 69, 70, 71, 72, 73, 74, 75, 76, 77, 78, 79, 80, 81, 82, 83, 84, 85, 86, 87, 88, 89, 90, 91, 92, 93, 94, 95, 96, 97, 98, 99, 100, 101, 102, 103, 104, 105, 106, 107, 108, 109, 110, 111, 112, 113, 114, 115, 116, 117, 118, 119, 120, 121, 122, 123, 124, 125, 126, 127, 128, 129, 130, 131, 132, 133, 134, 135, 136, 137, 138, 139, 140, 141, 142, 143, 144, 145, 146, 147, 148, 149, 150, 151, 152, 153, 154, 155, 156],
      "AcquisitionTime": ["092456.942500", "092458.942500", "092500.942500", "092502.942500", "092504.942500", "092506.942500", "092508.942500", "092510.942500", "092512.942500", "092514.942500", "092516.942500", "092518.942500", "092520.942500", "092522.942500", "092524.942500", "092526.942500", "092528.942500", "092530.942500", "092532.942500", "092534.942500", "092536.942500", "092538.942500", "092540.942500", "092542.942500", "092544.942500", "092546.942500", "092548.942500", "092550.942500", "092552.942500", "092554.942500", "092556.942500", "092558.942500", "092600.942500", "092602.942500", "092604.942500", "092606.942500", "092608.942500", "092610.942500", "092612.942500", "092614.942500", "092616.942500", "092618.942500", "092620.942500", "092622.942500", "092624.942500", "092626.942500", "092628.942500", "092630.942500", "092632.942500", "092634.942500", "092636.942500", "092638.942500", "092640.942500", "092642.942500", "092644.942500", "092646.942500", "092648.942500", "092650.942500", "092652.942500", "092654.942500", "092656.942500", "092658.942500", "092700.942500", "092702.942500", "092704.942500", "092706.942500", "092708.942500", "092710.942500", "092712.942500", "092714.942500", "092716.942500", "092718.942500", "092720.942500", "092722.942500", "092724.942500", "092726.942500", "092728.942500", "092730.942500", "092732.942500", "092734.942500", "092736.942500", "092738.942500", "092740.942500", "092742.942500", "092744.942500", "092746.942500", "092748.942500", "092750.942500", "092752.942500", "092754.942500", "092756.942500", "092758.942500", "092800.942500", "092802.942500", "092804.942500", "092806.942500", "092808.942500", "092810.942500", "092812.942500", "092814.942500", "092816.942500", "092818.942500", "092820.942500", "092822.942500", "092824.942500", "092826.942500", "092828.942500", "092830.942500", "092832.942500", "092834.942500", "092836.942500", "092838.942500", "092840.942500", "092842.942500", "092844.942500", "092846.942500", "092848.942500", "092850.942500", "092852.942500", "092854.942500", "092856.942500", "092858.942500", "092900.942500", "092902.942500", "092904.942500", "092906.942500", "092908.942500", "092910.942500", "092912.942500", "092914.942500", "092916.942500", "092918.942500", "092920.942500", "092922.942500", "092924.942500", "092926.942500", "092928.942500", "092930.942500", "092932.942500", "092934.942500", "092936.942500", "092938.942500", "092940.942500", "092942.942500", "092944.942500", "092946.942500", "092948.942500", "092950.942500", "092952.942500", "092954.942500", "092956.942500", "092958.942500", "093000.942500", "093002.942500", "093004.942500", "093006.942500"],
      "ContentTime": ["092459.611000", "092501.105000", "092503.105000", "092505.105000", "092507.105000", "092509.106000", "092511.106000", "092513.106000", "092515.106000", "092517.106000", "092519.105000", "092521.105000", "092523.105000", "092525.607000", "092527.106000", "092529.106000", "092531.107000", "092533.107000", "092535.605000", "092537.106000", "092539.106000", "092541.106000", "092543.106000", "092545.107000", "092547.607000", "092549.106000", "092551.607000", "092553.106000", "092555.105000", "092557.105000", "092559.105000", "092601.106000", "092603.107000", "092605.107000", "092607.107000", "092609.106000", "092611.106000", "092613.105000", "092615.106000", "092617.105000", "092619.106000", "092621.106000", "092623.107000", "092625.606000", "092627.107000", "092629.106000", "092631.106000", "092633.105000", "092635.105000", "092637.107000", "092639.106000", "092641.106000", "092643.107000", "092645.107000", "092647.107000", "092649.107000", "092651.606000", "092653.106000", "092655.106000", "092657.106000", "092659.606000", "092701.106000", "092703.105000", "092705.105000", "092707.105000", "092709.106000", "092711.106000", "092713.106000", "092715.106000", "092717.607000", "092719.107000", "092721.605000", "092723.106000", "092725.105000", "092727.106000", "092729.107000", "092731.106000", "092733.107000", "092735.107000", "092737.107000", "092739.106000", "092741.105000", "092743.105000", "092745.106000", "092747.107000", "092749.107000", "092751.107000", "092753.107000", "092755.606000", "092757.106000", "092759.106000", "092801.106000", "092803.107000", "092805.106000", "092807.106000", "092809.107000", "092811.607000", "092813.106000", "092815.106000", "092817.105000", "092819.106000", "092821.106000", "092823.107000", "092825.106000", "092827.106000", "092829.106000", "092831.105000", "092833.106000", "092835.106000", "092837.106000", "092839.106000", "092841.106000", "092843.107000", "092845.106000", "092847.607000", "092849.106000", "092851.105000", "092853.106000", "092855.607000", "092857.107000", "092859.106000", "092901.107000", "092903.107000", "092905.107000", "092907.106000", "092909.105000", "092911.106000", "092913.106000", "092915.106000", "092917.106000", "092919.106000", "092921.106000", "092923.105000", "092925.106000", "092927.105000", "092929.606000", "092931.106000", "092933.107000", "092935.107000", "092937.107000", "092939.107000", "092941.106000", "092943.605000", "092945.605000", "092947.105000", "092949.107000", "092951.106000", "092953.107000", "092955.106000", "092957.107000", "092959.105000", "093001.106000", "093003.105000", "093005.106000", "093007.107000", "093009.021000"],
      "InstanceCreationTime": ["092459.611000", "092501.105000", "092503.105000", "092505.105000", "092507.105000", "092509.106000", "092511.106000", "092513.106000", "092515.106000", "092517.106000", "092519.105000", "092521.105000", "092523.105000", "092525.607000", "092527.106000", "092529.106000", "092531.107000", "092533.107000", "092535.605000", "092537.106000", "092539.106000", "092541.106000", "092543.106000", "092545.107000", "092547.607000", "092549.106000", "092551.607000", "092553.106000", "092555.105000", "092557.105000", "092559.105000", "092601.106000", "092603.107000", "092605.107000", "092607.107000", "092609.106000", "092611.106000", "092613.105000", "092615.106000", "092617.105000", "092619.106000", "092621.106000", "092623.107000", "092625.606000", "092627.107000", "092629.106000", "092631.106000", "092633.105000", "092635.105000", "092637.107000", "092639.106000", "092641.106000", "092643.107000", "092645.107000", "092647.107000", "092649.107000", "092651.606000", "092653.106000", "092655.106000", "092657.106000", "092659.606000", "092701.106000", "092703.105000", "092705.105000", "092707.105000", "092709.106000", "092711.106000", "092713.106000", "092715.106000", "092717.607000", "092719.107000", "092721.605000", "092723.106000", "092725.105000", "092727.106000", "092729.107000", "092731.106000", "092733.107000", "092735.107000", "092737.107000", "092739.106000", "092741.105000", "092743.105000", "092745.106000", "092747.107000", "092749.107000", "092751.107000", "092753.107000", "092755.606000", "092757.106000", "092759.106000", "092801.106000", "092803.107000", "092805.106000", "092807.106000", "092809.107000", "092811.607000", "092813.106000", "092815.106000", "092817.105000", "092819.106000", "092821.106000", "092823.107000", "092825.106000", "092827.106000", "092829.106000", "092831.105000", "092833.106000", "092835.106000", "092837.106000", "092839.106000", "092841.106000", "092843.107000", "092845.106000", "092847.607000", "092849.106000", "092851.105000", "092853.106000", "092855.607000", "092857.107000", "092859.106000", "092901.107000", "092903.107000", "092905.107000", "092907.106000", "092909.105000", "092911.106000", "092913.106000", "092915.106000", "092917.106000", "092919.106000", "092921.106000", "092923.105000", "092925.106000", "092927.105000", "092929.606000", "092931.106000", "092933.107000", "092935.107000", "092937.107000", "092939.107000", "092941.106000", "092943.605000", "092945.605000", "092947.105000", "092949.107000", "092951.106000", "092953.107000", "092955.106000", "092957.107000", "092959.105000", "093001.106000", "093003.105000", "093005.106000", "093007.107000", "093009.021000"],
      "InstanceNumber": [1, 2, 3, 4, 5, 6, 7, 8, 9, 10, 11, 12, 13, 14, 15, 16, 17, 18, 19, 20, 21, 22, 23, 24, 25, 26, 27, 28, 29, 30, 31, 32, 33, 34, 35, 36, 37, 38, 39, 40, 41, 42, 43, 44, 45, 46, 47, 48, 49, 50, 51, 52, 53, 54, 55, 56, 57, 58, 59, 60, 61, 62, 63, 64, 65, 66, 67, 68, 69, 70, 71, 72, 73, 74, 75, 76, 77, 78, 79, 80, 81, 82, 83, 84, 85, 86, 87, 88, 89, 90, 91, 92, 93, 94, 95, 96, 97, 98, 99, 100, 101, 102, 103, 104, 105, 106, 107, 108, 109, 110, 111, 112, 113, 114, 115, 116, 117, 118, 119, 120, 121, 122, 123, 124, 125, 126, 127, 128, 129, 130, 131, 132, 133, 134, 135, 136, 137, 138, 139, 140, 141, 142, 143, 144, 145, 146, 147, 148, 149, 150, 151, 152, 153, 154, 155, 156],
      "LargestImagePixelValue": [2911, 2787, 2699, 2758, 2857, 2742, 2689, 2605, 2606, 2671, 2879, 2757, 2544, 2514, 2575, 2756, 2652, 2638, 2653, 2626, 2641, 2548, 2559, 2653, 2697, 2674, 2598, 2644, 2712, 2680, 2571, 2606, 2589, 2655, 2720, 2633, 2528, 2685, 2645, 2674, 2727, 2662, 2594, 2587, 2738, 2695, 2674, 2683, 2660, 2689, 2624, 2609, 2581, 2631, 2636, 2627, 2689, 2705, 2661, 2664, 2712, 2650, 2651, 2666, 2741, 2608, 2720, 2550, 2738, 2706, 2762, 2781, 2707, 2731, 2645, 2600, 2690, 2811, 2756, 2706, 2692, 2726, 2739, 2704, 2790, 2793, 2720, 2717, 2678, 2793, 2748, 2685, 2817, 2822, 2694, 2806, 2655, 2762, 2683, 3085, 2776, 2824, 2673, 2655, 2734, 2745, 2821, 2749, 2705, 2725, 2664, 2748, 2715, 2771, 2736, 2680, 2816, 2736, 2829, 2841, 2773, 2800, 2753, 2737, 2759, 2691, 2809, 2643, 2745, 2690, 2686, 2782, 2749, 2804, 2768, 2756, 2683, 2807, 2727, 2719, 2700, 2683, 2746, 2738, 2780, 2820, 2742, 2765, 2726, 2756, 2760, 2746, 2785, 2716, 2799, 2723],
      "WindowCenter": [749.0, 747.0, 746.0, 747.0, 748.0, 746.0, 745.0, 745.0, 747.0, 749.0, 749.0, 747.0, 744.0, 743.0, 744.0, 746.0, 745.0, 745.0, 744.0, 744.0, 744.0, 744.0, 744.0, 746.0, 746.0, 745.0, 744.0, 745.0, 745.0, 744.0, 743.0, 744.0, 744.0, 745.0, 745.0, 744.0, 743.0, 746.0, 745.0, 746.0, 746.0, 744.0, 743.0, 743.0, 746.0, 745.0, 745.0, 745.0, 746.0, 745.0, 744.0, 743.0, 743.0, 743.0, 742.0, 742.0, 744.0, 745.0, 746.0, 745.0, 745.0, 746.0, 745.0, 744.0, 744.0, 743.0, 745.0, 743.0, 745.0, 745.0, 746.0, 747.0, 746.0, 745.0, 744.0, 745.0, 746.0, 747.0, 745.0, 745.0, 745.0, 747.0, 748.0, 747.0, 747.0, 747.0, 746.0, 747.0, 747.0, 747.0, 745.0, 745.0, 748.0, 747.0, 745.0, 746.0, 745.0, 746.0, 745.0, 750.0, 747.0, 746.0, 743.0, 743.0, 745.0, 745.0, 747.0, 745.0, 745.0, 745.0, 745.0, 747.0, 746.0, 746.0, 745.0, 744.0, 747.0, 747.0, 748.0, 748.0, 747.0, 746.0, 745.0, 745.0, 746.0, 745.0, 746.0, 745.0, 747.0, 747.0, 748.0, 748.0, 747.0, 746.0, 746.0, 745.0, 745.0, 747.0, 746.0, 746.0, 746.0, 747.0, 746.0, 745.0, 746.0, 746.0, 745.0, 745.0, 745.0, 745.0, 745.0, 745.0, 745.0, 745.0, 747.0, 746.0],
      "WindowWidth": [1585.0, 1579.0, 1577.0, 1579.0, 1581.0, 1577.0, 1574.0, 1575.0, 1580.0, 1585.0, 1585.0, 1580.0, 1573.0, 1571.0, 1572.0, 1577.0, 1576.0, 1575.0, 1573.0, 1574.0, 1573.0, 1573.0, 1574.0, 1577.0, 1576.0, 1574.0, 1573.0, 1574.0, 1576.0, 1573.0, 1571.0, 1573.0, 1573.0, 1574.0, 1575.0, 1573.0, 1571.0, 1577.0, 1575.0, 1577.0, 1577.0, 1574.0, 1570.0, 1571.0, 1577.0, 1576.0, 1575.0, 1576.0, 1576.0, 1576.0, 1572.0, 1569.0, 1570.0, 1570.0, 1568.0, 1568.0, 1572.0, 1576.0, 1577.0, 1575.0, 1576.0, 1577.0, 1575.0, 1572.0, 1572.0, 1571.0, 1575.0, 1570.0, 1575.0, 1574.0, 1577.0, 1579.0, 1577.0, 1575.0, 1572.0, 1574.0, 1578.0, 1580.0, 1575.0, 1574.0, 1575.0, 1581.0, 1582.0, 1579.0, 1580.0, 1580.0, 1578.0, 1580.0, 1580.0, 1581.0, 1576.0, 1575.0, 1582.0, 1580.0, 1575.0, 1577.0, 1574.0, 1578.0, 1576.0, 1587.0, 1579.0, 1577.0, 1570.0, 1572.0, 1575.0, 1576.0, 1578.0, 1575.0, 1574.0, 1574.0, 1575.0, 1579.0, 1577.0, 1577.0, 1575.0, 1572.0, 1579.0, 1579.0, 1582.0, 1583.0, 1579.0, 1577.0, 1576.0, 1575.0, 1577.0, 1575.0, 1577.0, 1574.0, 1579.0, 1579.0, 1582.0, 1582.0, 1579.0, 1578.0, 1576.0, 1575.0, 1576.0, 1579.0, 1576.0, 1577.0, 1578.0, 1579.0, 1578.0, 1575.0, 1576.0, 1576.0, 1574.0, 1575.0, 1574.0, 1575.0, 1575.0, 1576.0, 1576.0, 1575.0, 1578.0, 1578.0]
    },
    "slices": {}
  }
}