{
  "AcquisitionMatrixPE": 100,
  "AcquisitionNumber": 1,
  "AcquisitionTime": "10:44:5.915000",
  "BandwidthPerPixelPhaseEncode": 18.519,
  "BaseResolution": 100,
  "BodyPartExamined": "BRAIN",
  "CoilCombinationMethod": "Sum of Squares",
  "ConsistencyInfo": "N4_VE11C_LATEST_20160120",
  "ConversionSoftware": "dcm2niix",
  "ConversionSoftwareVersion": "v1.0.20211006",
  "DerivedVendorReportedEchoSpacing": 0.000539986,
  "DeviceSerialNumber": "166078",
  "DwellTime": 2.1e-06,
  "EchoTime": 0.034,
  "EchoTrainLength": 100,
  "EffectiveEchoSpacing": 0.000539986,
  "FlipAngle": 90,
  "ImageOrientationPatientDICOM": [0.997108, 0.0277803, 0.0707351, -2.83264e-08, 0.930789, -0.365556],
  "ImageOrientationText": "Tra>Cor(-21.4)>Sag(4.4)",
  "ImageType": [
    "ORIGINAL",
    "PRIMARY",
    "M",
    "ND",
    "MOSAIC"
],
  "ImagingFrequency": 123.258,
  "InPlanePhaseEncodingDirectionDICOM": "COL",
  "InstitutionAddress": "Street StreetNo,Bei Jing,District,CN,ZIP",
  "InstitutionName": "BeiJing Normal University",
  "InstitutionalDepartmentName": "Department",
  "MRAcquisitionType": "2D",
  "MagneticFieldStrength": 3,
  "Manufacturer": "Siemens",
  "ManufacturersModelName": "Prisma",
  "Modality": "MR",
  "MultibandAccelerationFactor": 3,
  "PartialFourier": 1,
  "PatientPosition": "HFS",
  "PercentPhaseFOV": 100,
  "PercentSampling": 100,
  "PhaseEncodingDirection": "j-",
  "PhaseEncodingSteps": 100,
  "PhaseResolution": 1,
  "PixelBandwidth": 2380,
  "ProcedureStepDescription": "BNU_P2018_64CH^Zhen.ZongLei",
  "ProtocolName": "bold_100x100_s3_2x2x2_static_156",
  "PulseSequenceDetails": "%SiemensSeq%\\ep2d_bold",
  "ReceiveCoilActiveElements": "HC1-7;NC1",
  "ReceiveCoilName": "HeadNeck_64",
  "ReconMatrixPE": 100,
  "RefLinesPE": 32,
  "RepetitionTime": 2,
  "SAR": 0.0684489,
  "ScanOptions": "FS",
  "ScanningSequence": "EP",
  "SequenceName": "*epfid2d1_100",
  "SequenceVariant": "SK",
  "SeriesDescription": "bold_100x100_s3_2x2x2_static_156",
  "SeriesNumber": 3,
  "ShimSetting": [-5432, -11478, -1241, 399, 62, -286, -155, 23],
  "SliceThickness": 2,
  "SliceTiming": [1.485, 0, 0.99, 0.0825, 1.0725, 0.165, 1.155, 0.2475, 1.2375, 0.33, 1.32, 0.4125, 1.4025, 0.5775, 1.5675, 0.66, 1.65, 0.7425, 1.7325, 0.825, 1.815, 0.9075, 1.8975, 0.495, 1.485, 0, 0.99, 0.0825, 1.0725, 0.165, 1.155, 0.2475, 1.2375, 0.33, 1.32, 0.4125, 1.4025, 0.5775, 1.5675, 0.66, 1.65, 0.7425, 1.7325, 0.825, 1.815, 0.9075, 1.8975, 0.495, 1.485, 0, 0.99, 0.0825, 1.0725, 0.165, 1.155, 0.2475, 1.2375, 0.33, 1.32, 0.4125, 1.4025, 0.5775, 1.5675, 0.66, 1.65, 0.7425, 1.7325, 0.825, 1.815, 0.9075, 1.8975, 0.495],
  "SoftwareVersions": "syngo MR E11",
  "SpacingBetweenSlices": 2,
  "StationName": "AWP166078",
  "TaskName": "action",
  "TotalReadoutTime": 0.0534586,
  "TxRefAmp": 218.231,
  "dcmmeta_affine": [
    [-1.9942164421081543, -5.6652883273500265e-08, 0.15198948979377747, 94.4410171508789],
    [-0.05556069687008858, 1.8615788221359253, -0.7289974093437195, -61.86661911010742],
    [0.14147019386291504, 0.7311116456985474, 1.8561955690383911, -106.9473648071289],
    [0.0, 0.0, 0.0, 1.0]
],
  "dcmmeta_reorient_transform": [
    [0.0, -1.0, 0.0, 99.0],
    [1.0, 0.0, 0.0, 0.0],
    [0.0, 0.0, 1.0, 0.0],
    [0.0, 0.0, 0.0, 1.0]
],
  "dcmmeta_shape": [100, 100, 72, 156],
  "dcmmeta_slice_dim": 2,
  "dcmmeta_version": 0.6,
  "global": {
    "const": {
      "AcquisitionMatrix": [100, 0, 0, 100],
      "AngioFlag": "N",
      "BitsAllocated": 16,
      "BitsStored": 12,
      "BodyPartExamined": "BRAIN",
      "Columns": 900,
      "EchoNumbers": 1,
      "EchoTime": 34.0,
      "EchoTrainLength": 100,
      "FlipAngle": 90.0,
      "HighBit": 11,
      "ImageOrientationPatient": [0.99710821797578, 0.02778034800504, 0.07073509673338, -2.8326441e-08, 0.93078942163997, -0.3655558131984],
      "ImagePositionPatient": [-892.12756191518, -889.28550081039, 201.28925974769],
      "ImageType": [
        "ORIGINAL",
        "PRIMARY",
        "M",
        "ND",
        "MOSAIC"
],
      "ImagedNucleus": "1H",
      "ImagingFrequency": 123.257735,
      "InPlanePhaseEncodingDirection": "COL",
      "LargestImagePixelValue": 4095,
      "MRAcquisitionType": "2D",
      "MagneticFieldStrength": 3.0,
      "Manufacturer": "SIEMENS",
      "ManufacturerModelName": "Prisma",
      "Modality": "MR",
      "NumberOfAverages": 1.0,
      "NumberOfPhaseEncodingSteps": 100,
      "PercentPhaseFieldOfView": 100.0,
      "PercentSampling": 100.0,
      "PerformedProcedureStepStartTime": "103805.151000",
      "PhotometricInterpretation": "MONOCHROME2",
      "PixelBandwidth": 2380.0,
      "PixelRepresentation": 0,
      "PixelSpacing": [2.0, 2.0],
      "ProtocolName": "bold_100x100_s3_2x2x2_static_156",
      "RepetitionTime": 2000.0,
      "Rows": 900,
      "SAR": 0.06844891816865,
      "SamplesPerPixel": 1,
      "ScanOptions": "FS",
      "ScanningSequence": "EP",
      "SequenceName": "*epfid2d1_100",
      "SequenceVariant": "SK",
      "SeriesDescription": "bold_100x100_s3_2x2x2_static_156",
      "SeriesNumber": 3,
      "SeriesTime": "104408.403000",
      "SliceLocation": -69.530287690078,
      "SliceThickness": 2.0,
      "SmallestImagePixelValue": 0,
      "SoftwareVersions": "syngo MR E11",
      "SpacingBetweenSlices": 2.0000000158393,
      "SpecificCharacterSet": "ISO_IR 100",
      "StudyID": "1",
      "StudyTime": "103805.058000",
      "TransmitCoilName": "Body",
      "VariableFlipAngleFlag": "N",
      "WindowCenterWidthExplanation": "Algo1",
      "dBdt": 0.0},
    "slices": {}
  },
  "time": {
    "samples": {
      "AcquisitionNumber": [1, 2, 3, 4, 5, 6, 7, 8, 9, 10, 11, 12, 13, 14, 15, 16, 17, 18, 19, 20, 21, 22, 23, 24, 25, 26, 27, 28, 29, 30, 31, 32, 33, 34, 35, 36, 37, 38, 39, 40, 41, 42, 43, 44, 45, 46, 47, 48, 49, 50, 51, 52, 53, 54, 55, 56, 57, 58, 59, 60, 61, 62, 63, 64, 65, 66, 67, 68, 69, 70, 71, 72, 73, 74, 75, 76, 77, 78, 79, 80, 81, 82, 83, 84, 85, 86, 87, 88, 89, 90, 91, 92, 93, 94, 95, 96, 97, 98, 99, 100, 101, 102, 103, 104, 105, 106, 107, 108, 109, 110, 111, 112, 113, 114, 115, 116, 117, 118, 119, 120, 121, 122, 123, 124, 125, 126, 127, 128, 129, 130, 131, 132, 133, 134, 135, 136, 137, 138, 139, 140, 141, 142, 143, 144, 145, 146, 147, 148, 149, 150, 151, 152, 153, 154, 155, 156],
      "AcquisitionTime": ["104405.915000", "104407.915000", "104409.915000", "104411.915000", "104413.915000", "104415.915000", "104417.915000", "104419.915000", "104421.915000", "104423.915000", "104425.915000", "104427.915000", "104429.915000", "104431.915000", "104433.915000", "104435.915000", "104437.915000", "104439.915000", "104441.915000", "104443.915000", "104445.915000", "104447.915000", "104449.915000", "104451.915000", "104453.915000", "104455.915000", "104457.915000", "104459.915000", "104501.915000", "104503.915000", "104505.915000", "104507.915000", "104509.915000", "104511.915000", "104513.915000", "104515.915000", "104517.915000", "104519.915000", "104521.915000", "104523.915000", "104525.915000", "104527.915000", "104529.915000", "104531.915000", "104533.915000", "104535.915000", "104537.915000", "104539.915000", "104541.915000", "104543.915000", "104545.915000", "104547.915000", "104549.915000", "104551.915000", "104553.915000", "104555.915000", "104557.915000", "104559.915000", "104601.915000", "104603.915000", "104605.915000", "104607.915000", "104609.915000", "104611.915000", "104613.915000", "104615.915000", "104617.915000", "104619.915000", "104621.915000", "104623.915000", "104625.915000", "104627.915000", "104629.915000", "104631.915000", "104633.915000", "104635.915000", "104637.915000", "104639.915000", "104641.915000", "104643.915000", "104645.915000", "104647.915000", "104649.915000", "104651.915000", "104653.915000", "104655.915000", "104657.915000", "104659.915000", "104701.915000", "104703.915000", "104705.915000", "104707.915000", "104709.915000", "104711.915000", "104713.915000", "104715.915000", "104717.915000", "104719.915000", "104721.915000", "104723.915000", "104725.915000", "104727.915000", "104729.915000", "104731.915000", "104733.915000", "104735.915000", "104737.915000", "104739.915000", "104741.915000", "104743.915000", "104745.915000", "104747.915000", "104749.915000", "104751.915000", "104753.915000", "104755.915000", "104757.915000", "104759.915000", "104801.915000", "104803.915000", "104805.915000", "104807.915000", "104809.915000", "104811.915000", "104813.915000", "104815.915000", "104817.915000", "104819.915000", "104821.915000", "104823.915000", "104825.915000", "104827.915000", "104829.915000", "104831.915000", "104833.915000", "104835.915000", "104837.915000", "104839.915000", "104841.915000", "104843.915000", "104845.915000", "104847.915000", "104849.915000", "104851.915000", "104853.915000", "104855.915000", "104857.915000", "104859.915000", "104901.915000", "104903.915000", "104905.915000", "104907.915000", "104909.915000", "104911.915000", "104913.915000", "104915.915000"],
      "ContentTime": ["104408.406000", "104409.902000", "104411.902000", "104413.901000", "104415.900000", "104417.901000", "104419.901000", "104421.901000", "104423.901000", "104425.901000", "104427.901000", "104429.900000", "104431.900000", "104433.900000", "104435.900000", "104437.900000", "104439.901000", "104441.901000", "104443.901000", "104445.902000", "104447.900000", "104449.900000", "104451.900000", "104453.900000", "104455.900000", "104457.901000", "104459.902000", "104501.902000", "104503.902000", "104505.901000", "104507.901000", "104509.901000", "104511.900000", "104513.901000", "104515.901000", "104517.902000", "104519.902000", "104521.901000", "104523.900000", "104525.901000", "104527.901000", "104529.900000", "104531.901000", "104533.902000", "104535.901000", "104537.902000", "104539.901000", "104541.901000", "104543.901000", "104545.901000", "104547.900000", "104549.901000", "104551.901000", "104553.902000", "104555.901000", "104557.900000", "104559.901000", "104601.900000", "104603.900000", "104605.901000", "104607.902000", "104609.901000", "104611.901000", "104613.901000", "104615.901000", "104617.901000", "104619.901000", "104621.901000", "104623.901000", "104625.902000", "104627.902000", "104629.901000", "104631.901000", "104633.901000", "104635.900000", "104637.901000", "104639.901000", "104641.902000", "104643.901000", "104645.902000", "104647.901000", "104649.901000", "104651.900000", "104653.901000", "104655.901000", "104657.901000", "104659.901000", "104701.902000", "104703.901000", "104705.901000", "104707.900000", "104709.900000", "104711.900000", "104713.900000", "104715.902000", "104717.901000", "104719.902000", "104721.902000", "104723.901000", "104725.901000", "104727.900000", "104729.900000", "104731.901000", "104733.901000", "104735.901000", "104737.901000", "104739.902000", "104741.901000", "104743.900000", "104745.900000", "104747.900000", "104749.900000", "104751.901000", "104753.901000", "104755.901000", "104757.901000", "104759.900000", "104801.900000", "104803.900000", "104805.900000", "104807.900000", "104809.919000", "104811.901000", "104813.901000", "104815.901000", "104817.901000", "104819.901000", "104821.901000", "104823.901000", "104825.902000", "104827.902000", "104829.901000", "104831.901000", "104833.901000", "104835.900000", "104837.900000", "104839.901000", "104841.900000", "104843.902000", "104845.901000", "104847.901000", "104849.902000", "104851.901000", "104853.900000", "104855.901000", "104857.901000", "104859.900000", "104901.902000", "104903.902000", "104905.901000", "104907.902000", "104909.900000", "104911.900000", "104913.900000", "104915.901000", "104917.667000"],
      "InstanceCreationTime": ["104408.406000", "104409.902000", "104411.902000", "104413.901000", "104415.900000", "104417.901000", "104419.901000", "104421.901000", "104423.901000", "104425.901000", "104427.901000", "104429.900000", "104431.900000", "104433.900000", "104435.900000", "104437.900000", "104439.901000", "104441.901000", "104443.901000", "104445.902000", "104447.900000", "104449.900000", "104451.900000", "104453.900000", "104455.900000", "104457.901000", "104459.902000", "104501.902000", "104503.902000", "104505.901000", "104507.901000", "104509.901000", "104511.900000", "104513.901000", "104515.901000", "104517.902000", "104519.902000", "104521.901000", "104523.900000", "104525.901000", "104527.901000", "104529.900000", "104531.901000", "104533.902000", "104535.901000", "104537.902000", "104539.901000", "104541.901000", "104543.901000", "104545.901000", "104547.900000", "104549.901000", "104551.901000", "104553.902000", "104555.901000", "104557.900000", "104559.901000", "104601.900000", "104603.900000", "104605.901000", "104607.902000", "104609.901000", "104611.901000", "104613.901000", "104615.901000", "104617.901000", "104619.901000", "104621.901000", "104623.901000", "104625.902000", "104627.902000", "104629.901000", "104631.901000", "104633.901000", "104635.900000", "104637.901000", "104639.901000", "104641.902000", "104643.901000", "104645.902000", "104647.901000", "104649.901000", "104651.900000", "104653.901000", "104655.901000", "104657.901000", "104659.901000", "104701.902000", "104703.901000", "104705.901000", "104707.900000", "104709.900000", "104711.900000", "104713.900000", "104715.902000", "104717.901000", "104719.902000", "104721.902000", "104723.901000", "104725.901000", "104727.900000", "104729.900000", "104731.901000", "104733.901000", "104735.901000", "104737.901000", "104739.902000", "104741.901000", "104743.900000", "104745.900000", "104747.900000", "104749.900000", "104751.901000", "104753.901000", "104755.901000", "104757.901000", "104759.900000", "104801.900000", "104803.900000", "104805.900000", "104807.900000", "104809.919000", "104811.901000", "104813.901000", "104815.901000", "104817.901000", "104819.901000", "104821.901000", "104823.901000", "104825.902000", "104827.902000", "104829.901000", "104831.901000", "104833.901000", "104835.900000", "104837.900000", "104839.901000", "104841.900000", "104843.902000", "104845.901000", "104847.901000", "104849.902000", "104851.901000", "104853.900000", "104855.901000", "104857.901000", "104859.900000", "104901.902000", "104903.902000", "104905.901000", "104907.902000", "104909.900000", "104911.900000", "104913.900000", "104915.901000", "104917.667000"],
      "InstanceNumber": [1, 2, 3, 4, 5, 6, 7, 8, 9, 10, 11, 12, 13, 14, 15, 16, 17, 18, 19, 20, 21, 22, 23, 24, 25, 26, 27, 28, 29, 30, 31, 32, 33, 34, 35, 36, 37, 38, 39, 40, 41, 42, 43, 44, 45, 46, 47, 48, 49, 50, 51, 52, 53, 54, 55, 56, 57, 58, 59, 60, 61, 62, 63, 64, 65, 66, 67, 68, 69, 70, 71, 72, 73, 74, 75, 76, 77, 78, 79, 80, 81, 82, 83, 84, 85, 86, 87, 88, 89, 90, 91, 92, 93, 94, 95, 96, 97, 98, 99, 100, 101, 102, 103, 104, 105, 106, 107, 108, 109, 110, 111, 112, 113, 114, 115, 116, 117, 118, 119, 120, 121, 122, 123, 124, 125, 126, 127, 128, 129, 130, 131, 132, 133, 134, 135, 136, 137, 138, 139, 140, 141, 142, 143, 144, 145, 146, 147, 148, 149, 150, 151, 152, 153, 154, 155, 156],
      "WindowCenter": [862.0, 858.0, 858.0, 859.0, 859.0, 858.0, 856.0, 857.0, 858.0, 860.0, 859.0, 858.0, 858.0, 858.0, 858.0, 858.0, 857.0, 857.0, 858.0, 858.0, 858.0, 858.0, 858.0, 859.0, 858.0, 858.0, 857.0, 857.0, 857.0, 857.0, 857.0, 857.0, 858.0, 857.0, 857.0, 857.0, 858.0, 859.0, 858.0, 857.0, 858.0, 858.0, 858.0, 857.0, 857.0, 858.0, 858.0, 859.0, 860.0, 859.0, 858.0, 858.0, 859.0, 858.0, 858.0, 859.0, 859.0, 858.0, 857.0, 857.0, 858.0, 859.0, 859.0, 858.0, 857.0, 857.0, 857.0, 858.0, 858.0, 857.0, 857.0, 857.0, 857.0, 857.0, 858.0, 859.0, 859.0, 859.0, 858.0, 857.0, 858.0, 858.0, 859.0, 859.0, 859.0, 859.0, 858.0, 858.0, 859.0, 859.0, 858.0, 858.0, 858.0, 858.0, 858.0, 858.0, 858.0, 859.0, 858.0, 858.0, 858.0, 858.0, 858.0, 857.0, 858.0, 858.0, 858.0, 858.0, 858.0, 859.0, 858.0, 858.0, 859.0, 859.0, 856.0, 855.0, 856.0, 857.0, 857.0, 858.0, 858.0, 859.0, 859.0, 859.0, 858.0, 858.0, 858.0, 858.0, 859.0, 859.0, 858.0, 859.0, 859.0, 859.0, 859.0, 858.0, 858.0, 858.0, 858.0, 858.0, 858.0, 858.0, 859.0, 858.0, 859.0, 859.0, 859.0, 859.0, 860.0, 860.0, 859.0, 857.0, 856.0, 856.0, 857.0, 859.0],
      "WindowWidth": [1896.0, 1886.0, 1885.0, 1887.0, 1886.0, 1884.0, 1880.0, 1881.0, 1886.0, 1889.0, 1887.0, 1884.0, 1885.0, 1886.0, 1886.0, 1885.0, 1883.0, 1881.0, 1884.0, 1884.0, 1884.0, 1883.0, 1884.0, 1886.0, 1886.0, 1883.0, 1882.0, 1882.0, 1881.0, 1881.0, 1881.0, 1882.0, 1883.0, 1881.0, 1880.0, 1881.0, 1885.0, 1886.0, 1884.0, 1882.0, 1883.0, 1884.0, 1882.0, 1880.0, 1882.0, 1884.0, 1884.0, 1887.0, 1888.0, 1887.0, 1884.0, 1883.0, 1886.0, 1885.0, 1885.0, 1886.0, 1885.0, 1883.0, 1881.0, 1882.0, 1885.0, 1886.0, 1885.0, 1883.0, 1882.0, 1880.0, 1882.0, 1882.0, 1883.0, 1881.0, 1879.0, 1879.0, 1881.0, 1881.0, 1882.0, 1885.0, 1886.0, 1885.0, 1882.0, 1880.0, 1882.0, 1884.0, 1885.0, 1885.0, 1887.0, 1886.0, 1883.0, 1883.0, 1885.0, 1884.0, 1883.0, 1882.0, 1882.0, 1881.0, 1882.0, 1883.0, 1883.0, 1884.0, 1883.0, 1882.0, 1881.0, 1882.0, 1881.0, 1879.0, 1881.0, 1881.0, 1881.0, 1880.0, 1882.0, 1884.0, 1882.0, 1881.0, 1885.0, 1883.0, 1877.0, 1873.0, 1876.0, 1880.0, 1880.0, 1882.0, 1883.0, 1885.0, 1886.0, 1884.0, 1882.0, 1881.0, 1882.0, 1883.0, 1884.0, 1884.0, 1883.0, 1883.0, 1884.0, 1884.0, 1884.0, 1882.0, 1880.0, 1880.0, 1882.0, 1881.0, 1881.0, 1881.0, 1883.0, 1883.0, 1883.0, 1884.0, 1884.0, 1883.0, 1887.0, 1888.0, 1884.0, 1879.0, 1876.0, 1877.0, 1878.0, 1885.0]
    },
    "slices": {}
  }
}