{"AcquisitionMatrixPE": 100, "AcquisitionNumber": 1, "AcquisitionTime": "09:44:22.257500", "BaseResolution": 100, "BodyPartExamined": "BRAIN", "CoilCombinationMethod": "Sum of Squares", "ConsistencyInfo": "N4_VE11C_LATEST_20160120", "ConversionSoftware": "dcm2niix", "ConversionSoftwareVersion": "v1.0.20211006", "DeviceSerialNumber": "166078", "DwellTime": 8.8e-06, "EchoNumber": 2, "EchoTime": 0.00738, "EchoTime1": 0.00492, "EchoTime2": 0.00738, "FlipAngle": 60, "ImageOrientationPatientDICOM": [1, 4.802e-12, -9.59e-13, -4.897e-12, 0.980615, -0.195946], "ImageOrientationText": "Tra>Cor(-11.3)", "ImageType": ["ORIGINAL", "PRIMARY", "P", "ND", "PHASE"], "ImagingFrequency": 123.258, "InPlanePhaseEncodingDirectionDICOM": "ROW", "InstitutionAddress": "Street StreetNo,Bei Jing,District,CN,ZIP", "InstitutionName": "BeiJing Normal University", "InstitutionalDepartmentName": "Department", "MRAcquisitionType": "2D", "MagneticFieldStrength": 3, "Manufacturer": "Siemens", "ManufacturersModelName": "Prisma", "MatrixCoilMode": "SENSE", "Modality": "MR", "PartialFourier": 1, "PatientPosition": "HFS", "PercentPhaseFOV": 100, "PercentSampling": 100, "PhaseEncodingDirection": "i", "PhaseEncodingSteps": 100, "PhaseResolution": 1, "PixelBandwidth": 570, "ProcedureStepDescription": "BNU_P2018_64CH^Zhen.ZongLei", "ProtocolName": "field_mapping_2x2x2", "PulseSequenceDetails": "%SiemensSeq%\\gre_field_mapping", "ReceiveCoilActiveElements": "HC1-7;NC1", "ReceiveCoilName": "HeadNeck_64", "ReconMatrixPE": 100, "RepetitionTime": 0.72, "SAR": 0.109295, "ScanningSequence": "GR", "SequenceName": "*fm2d2r", "SequenceVariant": "SP", "SeriesDescription": "field_mapping_2x2x2", "SeriesNumber": 10, "ShimSetting": [-5477, -11505, -1262, 333, -67, -269, -171, 45], "SliceThickness": 2, "SliceTiming": [0.35938, 0, 0.36719, 0.00781, 0.38281, 0.01562, 0.39062, 0.03125, 0.39844, 0.03906, 0.40625, 0.04688, 0.42188, 0.0625, 0.42969, 0.07031, 0.4375, 0.07812, 0.44531, 0.08594, 0.46094, 0.10156, 0.46875, 0.10938, 0.47656, 0.11719, 0.49219, 0.13281, 0.5, 0.14062, 0.50781, 0.14844, 0.51562, 0.15625, 0.53125, 0.17188, 0.53906, 0.17969, 0.54688, 0.1875, 0.5625, 0.19531, 0.57031, 0.21094, 0.57812, 0.21875, 0.58594, 0.22656, 0.60156, 0.24219, 0.60938, 0.25, 0.61719, 0.25781, 0.63281, 0.26562, 0.64062, 0.28125, 0.64844, 0.28906, 0.65625, 0.29688, 0.67188, 0.3125, 0.67969, 0.32031, 0.6875, 0.32812, 0.69531, 0.33594, 0.71094, 0.35156], "SoftwareVersions": "syngo MR E11", "SpacingBetweenSlices": 2, "StationName": "AWP166078", "TxRefAmp": 205.639, "dcmmeta_affine": [[-2.0, -9.79399981254625e-12, 0.0, 101.3559341430664], [-9.6039998870312e-12, 1.9612293243408203, -0.3918924331665039, -84.04277038574219], [-1.9180000469798397e-12, 0.39189228415489197, 1.9612274169921875, -82.89886474609375], [0.0, 0.0, 0.0, 1.0]], "dcmmeta_reorient_transform": [[0.0, -1.0, 0.0, 99.0], [1.0, 0.0, 0.0, 0.0], [0.0, 0.0, -1.0, 71.0], [0.0, 0.0, 0.0, 1.0]], "dcmmeta_shape": [100, 100, 72], "dcmmeta_slice_dim": 2, "dcmmeta_version": 0.6, "global": {"const": {"AcquisitionMatrix": [0, 100, 100, 0], "AcquisitionNumber": 1, "AngioFlag": "N", "BitsAllocated": 16, "BitsStored": 12, "BodyPartExamined": "BRAIN", "Columns": 100, "EchoNumbers": 2, "EchoTime": 7.38, "EchoTrainLength": 0, "FlipAngle": 60.0, "HighBit": 11, "ImageOrientationPatient": [1.0, 4.802e-12, -9.59e-13, -4.897e-12, 0.98061465900359, -0.1959461419556], "ImageType": ["ORIGINAL", "PRIMARY", "P", "ND"], "ImagedNucleus": "1H", "ImagingFrequency": 123.257763, "InPlanePhaseEncodingDirection": "ROW", "MRAcquisitionType": "2D", "MagneticFieldStrength": 3.0, "Manufacturer": "SIEMENS", "ManufacturerModelName": "Prisma", "Modality": "MR", "NumberOfAverages": 1.0, "NumberOfPhaseEncodingSteps": 100, "PercentPhaseFieldOfView": 100.0, "PercentSampling": 100.0, "PerformedProcedureStepStartTime": "090048.041000", "PhotometricInterpretation": "MONOCHROME2", "PixelBandwidth": 570.0, "PixelRepresentation": 0, "PixelSpacing": [2.0, 2.0], "ProtocolName": "field_mapping_2x2x2", "RepetitionTime": 720.0, "RescaleIntercept": -4096.0, "RescaleSlope": 2.0, "RescaleType": "US", "Rows": 100, "SAR": 0.10929533153601, "SamplesPerPixel": 1, "ScanningSequence": "GR", "SequenceName": "*fm2d2r", "SequenceVariant": "SP", "SeriesDescription": "field_mapping_2x2x2", "SeriesNumber": 10, "SeriesTime": "094647.116000", "SliceThickness": 2.0, "SoftwareVersions": "syngo MR E11", "SpacingBetweenSlices": 2.0, "SpecificCharacterSet": "ISO_IR 100", "StudyID": "1", "StudyTime": "090047.842000", "TransmitCoilName": "Body", "VariableFlipAngleFlag": "N", "WindowCenterWidthExplanation": "Algo1", "dBdt": 0.0}, "slices": {"AcquisitionTime": ["094422.257500", "094421.897500", "094422.267500", "094421.907500", "094422.277500", "094421.917500", "094422.287500", "094421.927500", "094422.297500", "094421.937500", "094422.307500", "094421.947500", "094422.317500", "094421.957500", "094422.327500", "094421.967500", "094422.337500", "094421.977500", "094422.347500", "094421.987500", "094422.357500", "094421.997500", "094422.367500", "094422.007500", "094422.377500", "094422.017500", "094422.387500", "094422.027500", "094422.397500", "094422.037500", "094422.407500", "094422.047500", "094422.417500", "094422.057500", "094422.427500", "094422.067500", "094422.437500", "094422.077500", "094422.447500", "094422.087500", "094422.457500", "094422.097500", "094422.467500", "094422.107500", "094422.477500", "094422.117500", "094422.487500", "094422.127500", "094422.497500", "094422.137500", "094422.507500", "094422.147500", "094422.517500", "094422.157500", "094422.527500", "094422.167500", "094422.537500", "094422.177500", "094422.547500", "094422.187500", "094422.557500", "094422.197500", "094422.567500", "094422.207500", "094422.577500", "094422.217500", "094422.587500", "094422.227500", "094422.597500", "094422.237500", "094422.607500", "094422.247500"], "ContentTime": ["094647.188000", "094647.118000", "094647.190000", "094647.121000", "094647.192000", "094647.123000", "094647.200000", "094647.125000", "094647.202000", "094647.127000", "094647.204000", "094647.129000", "094647.206000", "094647.131000", "094647.208000", "094647.133000", "094647.210000", "094647.134000", "094647.212000", "094647.136000", "094647.214000", "094647.138000", "094647.216000", "094647.140000", "094647.218000", "094647.142000", "094647.220000", "094647.144000", "094647.222000", "094647.146000", "094647.224000", "094647.148000", "094647.226000", "094647.150000", "094647.228000", "094647.152000", "094647.229000", "094647.154000", "094647.231000", "094647.156000", "094647.233000", "094647.158000", "094647.235000", "094647.160000", "094647.237000", "094647.161000", "094647.239000", "094647.164000", "094647.241000", "094647.165000", "094647.243000", "094647.167000", "094647.245000", "094647.169000", "094647.247000", "094647.171000", "094647.248000", "094647.173000", "094647.250000", "094647.175000", "094647.252000", "094647.177000", "094647.254000", "094647.179000", "094647.256000", "094647.181000", "094647.258000", "094647.183000", "094647.260000", "094647.185000", "094647.261000", "094647.187000"], "CsaImage.GSWDDataType": ["measured", "predicted", "measured", "predicted", "measured", "predicted", "measured", "predicted", "measured", "predicted", "measured", "predicted", "measured", "predicted", "measured", "predicted", "measured", "predicted", "measured", "predicted", "measured", "predicted", "measured", "predicted", "measured", "predicted", "measured", "predicted", "measured", "predicted", "measured", "predicted", "measured", "predicted", "measured", "predicted", "measured", "predicted", "measured", "predicted", "measured", "predicted", "measured", "predicted", "measured", "predicted", "measured", "predicted", "measured", "predicted", "measured", "predicted", "measured", "predicted", "measured", "predicted", "measured", "predicted", "measured", "predicted", "measured", "measured", "measured", "measured", "measured", "measured", "measured", "measured", "measured", "measured", "measured", "measured"], "CsaImage.ICE_Dims": ["X_2_1_1_1_1_1_37_1_1_1_1_32", "X_2_1_1_1_1_1_1_1_1_2_1_32", "X_2_1_1_1_1_1_38_1_1_3_1_32", "X_2_1_1_1_1_1_2_1_1_4_1_32", "X_2_1_1_1_1_1_39_1_1_5_1_32", "X_2_1_1_1_1_1_3_1_1_6_1_32", "X_2_1_1_1_1_1_40_1_1_7_1_32", "X_2_1_1_1_1_1_4_1_1_8_1_32", "X_2_1_1_1_1_1_41_1_1_9_1_32", "X_2_1_1_1_1_1_5_1_1_10_1_32", "X_2_1_1_1_1_1_42_1_1_11_1_32", "X_2_1_1_1_1_1_6_1_1_12_1_32", "X_2_1_1_1_1_1_43_1_1_13_1_32", "X_2_1_1_1_1_1_7_1_1_14_1_32", "X_2_1_1_1_1_1_44_1_1_15_1_32", "X_2_1_1_1_1_1_8_1_1_16_1_32", "X_2_1_1_1_1_1_45_1_1_17_1_32", "X_2_1_1_1_1_1_9_1_1_18_1_32", "X_2_1_1_1_1_1_46_1_1_19_1_32", "X_2_1_1_1_1_1_10_1_1_20_1_32", "X_2_1_1_1_1_1_47_1_1_21_1_32", "X_2_1_1_1_1_1_11_1_1_22_1_32", "X_2_1_1_1_1_1_48_1_1_23_1_32", "X_2_1_1_1_1_1_12_1_1_24_1_32", "X_2_1_1_1_1_1_49_1_1_25_1_32", "X_2_1_1_1_1_1_13_1_1_26_1_32", "X_2_1_1_1_1_1_50_1_1_27_1_32", "X_2_1_1_1_1_1_14_1_1_28_1_32", "X_2_1_1_1_1_1_51_1_1_29_1_32", "X_2_1_1_1_1_1_15_1_1_30_1_32", "X_2_1_1_1_1_1_52_1_1_31_1_32", "X_2_1_1_1_1_1_16_1_1_32_1_32", "X_2_1_1_1_1_1_53_1_1_33_1_32", "X_2_1_1_1_1_1_17_1_1_34_1_32", "X_2_1_1_1_1_1_54_1_1_35_1_32", "X_2_1_1_1_1_1_18_1_1_36_1_32", "X_2_1_1_1_1_1_55_1_1_37_1_32", "X_2_1_1_1_1_1_19_1_1_38_1_32", "X_2_1_1_1_1_1_56_1_1_39_1_32", "X_2_1_1_1_1_1_20_1_1_40_1_32", "X_2_1_1_1_1_1_57_1_1_41_1_32", "X_2_1_1_1_1_1_21_1_1_42_1_32", "X_2_1_1_1_1_1_58_1_1_43_1_32", "X_2_1_1_1_1_1_22_1_1_44_1_32", "X_2_1_1_1_1_1_59_1_1_45_1_32", "X_2_1_1_1_1_1_23_1_1_46_1_32", "X_2_1_1_1_1_1_60_1_1_47_1_32", "X_2_1_1_1_1_1_24_1_1_48_1_32", "X_2_1_1_1_1_1_61_1_1_49_1_32", "X_2_1_1_1_1_1_25_1_1_50_1_32", "X_2_1_1_1_1_1_62_1_1_51_1_32", "X_2_1_1_1_1_1_26_1_1_52_1_32", "X_2_1_1_1_1_1_63_1_1_53_1_32", "X_2_1_1_1_1_1_27_1_1_54_1_32", "X_2_1_1_1_1_1_64_1_1_55_1_32", "X_2_1_1_1_1_1_28_1_1_56_1_32", "X_2_1_1_1_1_1_65_1_1_57_1_32", "X_2_1_1_1_1_1_29_1_1_58_1_32", "X_2_1_1_1_1_1_66_1_1_59_1_32", "X_2_1_1_1_1_1_30_1_1_60_1_32", "X_2_1_1_1_1_1_67_1_1_61_1_32", "X_2_1_1_1_1_1_31_1_1_62_1_32", "X_2_1_1_1_1_1_68_1_1_63_1_32", "X_2_1_1_1_1_1_32_1_1_64_1_32", "X_2_1_1_1_1_1_69_1_1_65_1_32", "X_2_1_1_1_1_1_33_1_1_66_1_32", "X_2_1_1_1_1_1_70_1_1_67_1_32", "X_2_1_1_1_1_1_34_1_1_68_1_32", "X_2_1_1_1_1_1_71_1_1_69_1_32", "X_2_1_1_1_1_1_35_1_1_70_1_32", "X_2_1_1_1_1_1_72_1_1_71_1_32", "X_2_1_1_1_1_1_36_1_1_72_1_32"], "CsaImage.ProtocolSliceNumber": [0, 1, 2, 3, 4, 5, 6, 7, 8, 9, 10, 11, 12, 13, 14, 15, 16, 17, 18, 19, 20, 21, 22, 23, 24, 25, 26, 27, 28, 29, 30, 31, 32, 33, 34, 35, 36, 37, 38, 39, 40, 41, 42, 43, 44, 45, 46, 47, 48, 49, 50, 51, 52, 53, 54, 55, 56, 57, 58, 59, 60, 61, 62, 63, 64, 65, 66, 67, 68, 69, 70, 71], "CsaImage.RFSWDDataType": ["measured", "predicted", "measured", "predicted", "measured", "predicted", "measured", "predicted", "measured", "predicted", "measured", "predicted", "measured", "predicted", "measured", "predicted", "measured", "predicted", "measured", "predicted", "measured", "predicted", "measured", "predicted", "measured", "predicted", "measured", "predicted", "measured", "predicted", "measured", "predicted", "measured", "predicted", "measured", "predicted", "measured", "predicted", "measured", "predicted", "measured", "predicted", "measured", "predicted", "measured", "predicted", "measured", "predicted", "measured", "predicted", "measured", "predicted", "measured", "predicted", "measured", "predicted", "measured", "predicted", "measured", "measured", "measured", "measured", "measured", "measured", "measured", "measured", "measured", "measured", "measured", "measured", "measured", "measured"], "CsaImage.SlicePosition_PCS": [[-101.35593224, -110.11892096, -44.10166724], [-101.35593224, -109.72702853, -42.14043601], [-101.35593224, -109.3351361, -40.17920859], [-101.35593224, -108.94324366, -38.21797736], [-101.35593224, -108.55135123, -36.25674994], [-101.35593224, -108.1594588, -34.29551871], [-101.35593224, -107.76756732, -32.33429129], [-101.35593224, -107.37567489, -30.37306006], [-101.35593224, -106.98378245, -28.41183264], [-101.35593224, -106.59189002, -26.45060141], [-101.35593224, -106.19999759, -24.48937399], [-101.35593224, -105.80810563, -22.52814276], [-101.35593224, -105.4162132, -20.56691535], [-101.35593224, -105.02432076, -18.60568411], [-101.35593224, -104.63242833, -16.6444567], [-101.35593224, -104.24053637, -14.68322546], [-101.35593224, -103.84864394, -12.72199805], [-101.35593224, -103.45675151, -10.76076682], [-101.35593224, -103.06485955, -8.79953749], [-101.35593224, -102.67296712, -6.83830817], [-101.35593224, -102.28107468, -4.87707884], [-101.35593224, -101.88918249, -2.91584952], [-101.35593224, -101.4972903, -0.95462019], [-101.35593224, -101.10539786, 1.00660913], [-101.35593224, -100.71350567, 2.96783845], [-101.35593224, -100.32161347, 4.92906682], [-101.35593224, -99.92972104, 6.89029615], [-101.35593224, -99.53782884, 8.85152547], [-101.35593224, -99.14593653, 10.8127548], [-101.35593224, -98.75404422, 12.7739846], [-101.35593224, -98.36215193, 14.73521392], [-101.35593224, -97.97025965, 16.69644301], [-101.35593224, -97.57836736, 18.65767233], [-101.35593224, -97.18647508, 20.61890166], [-101.35593224, -96.79458277, 22.58013098], [-101.35593224, -96.40269045, 24.54136054], [-101.35593224, -96.01079814, 26.50258939], [-101.35593224, -95.61890594, 28.46381872], [-101.35593224, -95.22701375, 30.42504804], [-101.35593224, -94.83512132, 32.38627737], [-101.35593224, -94.44322912, 34.34750669], [-101.35593224, -94.05133693, 36.30873697], [-101.35593224, -93.65944449, 38.26996629], [-101.35593224, -93.26755206, 40.23119562], [-101.35593224, -92.8756601, 42.19242494], [-101.35593224, -92.48376767, 44.15365427], [-101.35593224, -92.09187524, 46.11488359], [-101.35593224, -91.6999828, 48.07611291], [-101.35593224, -91.30809085, 50.03734224], [-101.35593224, -90.91619841, 51.99857156], [-101.35593224, -90.52430598, 53.95979898], [-101.35593224, -90.13241402, 55.92103021], [-101.35593224, -89.74052111, 57.88225763], [-101.35593224, -89.34862964, 59.84348886], [-101.35593224, -88.9567372, 61.80471628], [-101.35593224, -88.56484477, 63.76594751], [-101.35593224, -88.17295234, 65.72717493], [-101.35593224, -87.7810599, 67.68840616], [-101.35593224, -87.38916747, 69.64963357], [-101.35593224, -86.99727599, 71.61086481], [-101.35593224, -86.60538356, 73.57209222], [-101.35593224, -86.21349112, 75.53332345], [-101.35593224, -85.82159869, 77.49455087], [-101.35593224, -85.42970626, 79.4557821], [-101.35593224, -85.03781382, 81.41700952], [-101.35593224, -84.64592139, 83.37824075], [-101.35593224, -84.25402991, 85.33947198], [-101.35593224, -83.86213748, 87.3006994], [-101.35593224, -83.47024505, 89.26192682], [-101.35593224, -83.07835261, 91.22315423], [-101.35593224, -82.68646018, 93.18438928], [-101.35593224, -82.29456775, 95.1456167]], "CsaImage.TimeAfterStart": [1.0825, 0.7225, 1.0925, 0.7325, 1.1025, 0.7425, 1.1125, 0.7525, 1.1225, 0.7625, 1.1325, 0.7725, 1.1425, 0.7825, 1.1525, 0.7925, 1.1625, 0.8025, 1.1725, 0.8125, 1.1825, 0.8225, 1.1925, 0.8325, 1.2025, 0.8425, 1.2125, 0.8525, 1.2225, 0.8625, 1.2325, 0.8725, 1.2425, 0.8825, 1.2525, 0.8925, 1.2625, 0.9025, 1.2725, 0.9125, 1.2825, 0.9225, 1.2925, 0.9325, 1.3025, 0.9425, 1.3125, 0.9525, 1.3225, 0.9625, 1.3325, 0.9725, 1.3425, 0.9825, 1.3525, 0.9925, 1.3625, 1.0025, 1.3725, 1.0125, 1.3825, 1.0225, 1.3925, 1.0325, 1.4025, 1.0425, 1.4125, 1.0525, 1.4225, 1.0625, 1.4325, 1.0725], "ImagePositionPatient": [[-101.35593223523, -110.11892096371, -44.101667237454], [-101.35593223523, -109.72702853054, -42.140436005764], [-101.35593223523, -109.33513609737, -40.179208588772], [-101.35593223523, -108.94324366421, -38.217977357082], [-101.35593223523, -108.55135123104, -36.25674994009], [-101.35593223523, -108.15945879787, -34.295518708401], [-101.35593223523, -107.76756731838, -32.334291291409], [-101.35593223523, -107.37567488521, -30.373060059719], [-101.35593223523, -106.98378245205, -28.411832642727], [-101.35593223523, -106.59189001888, -26.450601411038], [-101.35593223523, -106.19999758571, -24.489373994045], [-101.35593223523, -105.80810562939, -22.528142762356], [-101.35593223523, -105.41621319622, -20.566915345364], [-101.35593223523, -105.02432076305, -18.605684113674], [-101.35593223523, -104.63242832989, -16.644456696682], [-101.35593223523, -104.24053637356, -14.683225464993], [-101.35593223523, -103.84864394039, -12.721998048], [-101.35593223523, -103.45675150722, -10.760766816311], [-101.35593223523, -103.06485955089, -8.7995374919702], [-101.35593223523, -102.67296711773, -6.8383081676294], [-101.35593223523, -102.28107468456, -4.8770788432885], [-101.35593223523, -101.88918248981, -2.9158495189477], [-101.35593223523, -101.49729029507, -0.9546201946069], [-101.35593223523, -101.1053978619, 1.0066091297339], [-101.35593223523, -100.71350566715, 2.9678384540748], [-101.35593223523, -100.3216134724, 4.9290668247413], [-101.35593223523, -99.929721039236, 6.8902961490821], [-101.35593223523, -99.537828844488, 8.8515254734229], [-101.35593223523, -99.145936530531, 10.812754797764], [-101.35593223523, -98.754044216574, 12.773984598942], [-101.35593223523, -98.362151932419, 14.735213923283], [-101.35593223523, -97.970259648264, 16.696443009205], [-101.35593223523, -97.578367364109, 18.657672333546], [-101.35593223523, -97.186475079954, 20.618901657886], [-101.35593223523, -96.794582765997, 22.580130982227], [-101.35593223523, -96.40269045204, 24.541360544987], [-101.35593223523, -96.010798138083, 26.50258939249], [-101.35593223523, -95.618905943335, 28.463818716831], [-101.35593223523, -95.227013748587, 30.425048041172], [-101.35593223523, -94.83512131542, 32.386277365513], [-101.35593223523, -94.443229120673, 34.347506689854], [-101.35593223523, -94.051336925925, 36.308736967869], [-101.35593223523, -93.659444492758, 38.26996629221], [-101.35593223523, -93.267552059592, 40.23119561655], [-101.35593223523, -92.875660103262, 42.192424940891], [-101.35593223523, -92.483767670096, 44.153654265232], [-101.35593223523, -92.091875236929, 46.114883589573], [-101.35593223523, -91.699982803763, 48.076112913914], [-101.35593223523, -91.308090847433, 50.037342238254], [-101.35593223523, -90.916198414267, 51.998571562595], [-101.35593223523, -90.5243059811, 53.959798979587], [-101.35593223523, -90.132414024771, 55.921030211277], [-101.35593223523, -89.740521114767, 57.882257628269], [-101.35593223523, -89.348629635275, 59.843488859959], [-101.35593223523, -88.956737202109, 61.804716276951], [-101.35593223523, -88.564844768942, 63.76594750864], [-101.35593223523, -88.172952335776, 65.727174925632], [-101.35593223523, -87.781059902609, 67.688406157322], [-101.35593223523, -87.389167469443, 69.649633574314], [-101.35593223523, -86.997275989951, 71.610864806003], [-101.35593223523, -86.605383556784, 73.572092222996], [-101.35593223523, -86.213491123618, 75.533323454685], [-101.35593223523, -85.821598690451, 77.494550871677], [-101.35593223523, -85.429706257285, 79.455782103367], [-101.35593223523, -85.037813824118, 81.417009520359], [-101.35593223523, -84.645921390952, 83.378240752048], [-101.35593223523, -84.254029911459, 85.339471983738], [-101.35593223523, -83.862137478293, 87.30069940073], [-101.35593223523, -83.470245045126, 89.261926817722], [-101.35593223523, -83.07835261196, 91.223154234714], [-101.35593223523, -82.686460178793, 93.184389281101], [-101.35593223523, -82.294567745627, 95.145616698093]], "InstanceCreationTime": ["094647.188000", "094647.118000", "094647.190000", "094647.121000", "094647.192000", "094647.123000", "094647.200000", "094647.125000", "094647.202000", "094647.127000", "094647.204000", "094647.129000", "094647.206000", "094647.131000", "094647.208000", "094647.133000", "094647.210000", "094647.134000", "094647.212000", "094647.136000", "094647.214000", "094647.138000", "094647.216000", "094647.140000", "094647.218000", "094647.142000", "094647.220000", "094647.144000", "094647.222000", "094647.146000", "094647.224000", "094647.148000", "094647.226000", "094647.150000", "094647.228000", "094647.152000", "094647.229000", "094647.154000", "094647.231000", "094647.156000", "094647.233000", "094647.158000", "094647.235000", "094647.160000", "094647.237000", "094647.161000", "094647.239000", "094647.164000", "094647.241000", "094647.165000", "094647.243000", "094647.167000", "094647.245000", "094647.169000", "094647.247000", "094647.171000", "094647.248000", "094647.173000", "094647.250000", "094647.175000", "094647.252000", "094647.177000", "094647.254000", "094647.179000", "094647.256000", "094647.181000", "094647.258000", "094647.183000", "094647.260000", "094647.185000", "094647.261000", "094647.187000"], "InstanceNumber": [1, 2, 3, 4, 5, 6, 7, 8, 9, 10, 11, 12, 13, 14, 15, 16, 17, 18, 19, 20, 21, 22, 23, 24, 25, 26, 27, 28, 29, 30, 31, 32, 33, 34, 35, 36, 37, 38, 39, 40, 41, 42, 43, 44, 45, 46, 47, 48, 49, 50, 51, 52, 53, 54, 55, 56, 57, 58, 59, 60, 61, 62, 63, 64, 65, 66, 67, 68, 69, 70, 71, 72], "LargestImagePixelValue": [4094, 4095, 4095, 4094, 4093, 4094, 4095, 4094, 4095, 4094, 4093, 4095, 4095, 4094, 4094, 4095, 4093, 4091, 4095, 4092, 4094, 4094, 4095, 4095, 4094, 4094, 4091, 4094, 4095, 4095, 4088, 4094, 4094, 4092, 4094, 4093, 4094, 4094, 4083, 4094, 4095, 4094, 4093, 4092, 4093, 4092, 4094, 4094, 4095, 4089, 4093, 4092, 4095, 4093, 4095, 4094, 4094, 4095, 4094, 4095, 4095, 4094, 4093, 4095, 4095, 4095, 4094, 4092, 4095, 4095, 4094, 4093], "SliceLocation": [-64.824119098693, -62.824117192862, -60.824119027779, -58.824117121948, -56.824118956865, -54.824117051034, -52.82411907282, -50.824117166989, -48.824119001907, -46.824117096076, -44.824118930993, -42.824117118596, -40.824118953513, -38.824117047683, -36.8241188826, -34.824117070203, -32.82411890512, -30.824116999289, -28.824117057267, -26.82411702181, -24.824116986353, -22.824116997614, -20.824117008874, -18.824116973417, -16.824116984677, -14.824117931125, -12.824117895668, -10.824117906928, -8.8241178948299, -6.8241174151381, -4.8241174088795, -2.8241176364176, -0.824117630159, 1.1758823760996, 3.1758823881979, 5.1758826340929, 7.1758821785977, 9.1758821673374, 11.175882156077, 13.175882191534, 15.175882180274, 17.1758831042, 19.175883139657, 21.175883175114, 23.175883117136, 25.175883152593, 27.17588318805, 29.175883223507, 31.17588316553, 33.175883200986, 35.175881366069, 37.175883178466, 39.175881436983, 41.175883155945, 43.175881321028, 45.175883226859, 47.175881391942, 49.175883297773, 51.175881462855, 53.175883181818, 55.1758813469, 57.175883252731, 59.175881417814, 61.175883323645, 63.175881488728, 65.175883394559, 67.175885113521, 69.175883278604, 71.175881443687, 73.175879608769, 75.175885255348, 77.175883420431], "SmallestImagePixelValue": [0, 0, 0, 1, 1, 1, 0, 1, 0, 3, 0, 0, 0, 0, 1, 0, 0, 0, 0, 0, 0, 0, 1, 3, 0, 1, 0, 1, 3, 0, 2, 2, 3, 4, 0, 2, 2, 9, 2, 17, 2, 1, 5, 1, 4, 0, 5, 0, 1, 0, 0, 4, 0, 2, 0, 0, 3, 0, 0, 0, 0, 0, 0, 0, 0, 0, 0, 0, 0, 1, 0, 0], "WindowCenter": [-134.0, -150.0, -192.0, -176.0, -198.0, -192.0, -206.0, -206.0, -254.0, -252.0, -202.0, -206.0, -140.0, -118.0, -152.0, -142.0, -136.0, -242.0, -210.0, -166.0, -210.0, -208.0, -226.0, -186.0, -168.0, -162.0, -170.0, -174.0, -188.0, -164.0, -192.0, -180.0, -178.0, -188.0, -152.0, -154.0, -134.0, -124.0, -152.0, -124.0, -264.0, -148.0, -116.0, -198.0, -178.0, -170.0, -58.0, -46.0, -160.0, -166.0, -176.0, -168.0, -204.0, -198.0, -220.0, -236.0, -112.0, -72.0, -64.0, -86.0, -84.0, -100.0, -118.0, -114.0, -130.0, -188.0, -258.0, -242.0, -274.0, -302.0, -356.0, -374.0], "WindowWidth": [6286.0, 6330.0, 6288.0, 6286.0, 6234.0, 6236.0, 6216.0, 6274.0, 6274.0, 6352.0, 6426.0, 6498.0, 6542.0, 6584.0, 6482.0, 6508.0, 6402.0, 6266.0, 6216.0, 6188.0, 6068.0, 6032.0, 5962.0, 5972.0, 5906.0, 5850.0, 5784.0, 5768.0, 5664.0, 5666.0, 5522.0, 5560.0, 5530.0, 5378.0, 5518.0, 5440.0, 5460.0, 5394.0, 5156.0, 5338.0, 4620.0, 5020.0, 5010.0, 4580.0, 4566.0, 4562.0, 5016.0, 4948.0, 4576.0, 4576.0, 4584.0, 4582.0, 4606.0, 4612.0, 4644.0, 4672.0, 5236.0, 5492.0, 5656.0, 5666.0, 5792.0, 5830.0, 5984.0, 5998.0, 6052.0, 6162.0, 6222.0, 6266.0, 6280.0, 6264.0, 6300.0, 6324.0]}}, "IntendedFor": ["ses-action01/func/sub-04_ses-action01_task-action_run-01_bold.nii.gz", "ses-action01/func/sub-04_ses-action01_task-action_run-11_bold.nii.gz", "ses-action01/func/sub-04_ses-action01_task-action_run-03_bold.nii.gz", "ses-action01/func/sub-04_ses-action01_task-action_run-05_bold.nii.gz", "ses-action01/func/sub-04_ses-action01_task-action_run-07_bold.nii.gz", "ses-action01/func/sub-04_ses-action01_task-action_run-08_bold.nii.gz", "ses-action01/func/sub-04_ses-action01_task-action_run-04_bold.nii.gz", "ses-action01/func/sub-04_ses-action01_task-action_run-09_bold.nii.gz", "ses-action01/func/sub-04_ses-action01_task-action_run-06_bold.nii.gz", "ses-action01/func/sub-04_ses-action01_task-action_run-10_bold.nii.gz", "ses-action01/func/sub-04_ses-action01_task-action_run-02_bold.nii.gz", "ses-action01/func/sub-04_ses-action01_task-action_run-12_bold.nii.gz"]}