{
  "AcquisitionMatrixPE": 100,
  "AcquisitionNumber": 1,
  "AcquisitionTime": "15:02:24.757500",
  "BandwidthPerPixelPhaseEncode": 18.519,
  "BaseResolution": 100,
  "BodyPartExamined": "BRAIN",
  "CoilCombinationMethod": "Sum of Squares",
  "ConsistencyInfo": "N4_VE11C_LATEST_20160120",
  "ConversionSoftware": "dcm2niix",
  "ConversionSoftwareVersion": "v1.0.20211006",
  "DerivedVendorReportedEchoSpacing": 0.000539986,
  "DeviceSerialNumber": "166078",
  "DwellTime": 2.1e-06,
  "EchoTime": 0.034,
  "EchoTrainLength": 100,
  "EffectiveEchoSpacing": 0.000539986,
  "FlipAngle": 90,
  "ImageOrientationPatientDICOM": [1, 0, 0, 0, 0.989776, -0.142629],
  "ImageOrientationText": "Tra>Cor(-8.2)",
  "ImageType": [
    "ORIGINAL",
    "PRIMARY",
    "M",
    "ND",
    "MOSAIC"
],
  "ImagingFrequency": 123.258,
  "InPlanePhaseEncodingDirectionDICOM": "COL",
  "InstitutionAddress": "Street StreetNo,Bei Jing,District,CN,ZIP",
  "InstitutionName": "BeiJing Normal University",
  "InstitutionalDepartmentName": "Department",
  "MRAcquisitionType": "2D",
  "MagneticFieldStrength": 3,
  "Manufacturer": "Siemens",
  "ManufacturersModelName": "Prisma",
  "Modality": "MR",
  "MultibandAccelerationFactor": 3,
  "PartialFourier": 1,
  "PatientPosition": "HFS",
  "PercentPhaseFOV": 100,
  "PercentSampling": 100,
  "PhaseEncodingDirection": "j-",
  "PhaseEncodingSteps": 100,
  "PhaseResolution": 1,
  "PixelBandwidth": 2380,
  "ProcedureStepDescription": "BNU_P2018_64CH^Zhen.ZongLei",
  "ProtocolName": "bold_100x100_s3_2x2x2_static_156",
  "PulseSequenceDetails": "%SiemensSeq%\\ep2d_bold",
  "ReceiveCoilActiveElements": "HC1-7;NC1",
  "ReceiveCoilName": "HeadNeck_64",
  "ReconMatrixPE": 100,
  "RefLinesPE": 32,
  "RepetitionTime": 2,
  "SAR": 0.0728812,
  "ScanOptions": "FS",
  "ScanningSequence": "EP",
  "SequenceName": "*epfid2d1_100",
  "SequenceVariant": "SK",
  "SeriesDescription": "bold_100x100_s3_2x2x2_static_156",
  "SeriesNumber": 8,
  "ShimSetting": [-5482, -11522, -1241, 315, -67, -371, -161, 33],
  "SliceThickness": 2,
  "SliceTiming": [1.485, 0, 0.99, 0.0825, 1.0725, 0.165, 1.155, 0.2475, 1.2375, 0.33, 1.32, 0.4125, 1.4025, 0.5775, 1.5675, 0.66, 1.65, 0.7425, 1.7325, 0.825, 1.815, 0.9075, 1.8975, 0.495, 1.485, 0, 0.99, 0.0825, 1.0725, 0.165, 1.155, 0.2475, 1.2375, 0.33, 1.32, 0.4125, 1.4025, 0.5775, 1.5675, 0.66, 1.65, 0.7425, 1.7325, 0.825, 1.815, 0.9075, 1.8975, 0.495, 1.485, 0, 0.99, 0.0825, 1.0725, 0.165, 1.155, 0.2475, 1.2375, 0.33, 1.32, 0.4125, 1.4025, 0.5775, 1.5675, 0.66, 1.65, 0.7425, 1.7325, 0.825, 1.815, 0.9075, 1.8975, 0.495],
  "SoftwareVersions": "syngo MR E11",
  "SpacingBetweenSlices": 2,
  "StationName": "AWP166078",
  "TaskName": "action",
  "TotalReadoutTime": 0.0534586,
  "TxRefAmp": 228.896,
  "dcmmeta_affine": [
    [-2.0, 0.0, 0.0, 100.67796325683594],
    [0.0, 1.9795525074005127, -0.28525787591934204, -82.527587890625],
    [0.0, 0.28525787591934204, 1.9795523881912231, -74.37281036376953],
    [0.0, 0.0, 0.0, 1.0]
],
  "dcmmeta_reorient_transform": [
    [0.0, -1.0, 0.0, 99.0],
    [1.0, 0.0, 0.0, 0.0],
    [0.0, 0.0, 1.0, 0.0],
    [0.0, 0.0, 0.0, 1.0]
],
  "dcmmeta_shape": [100, 100, 72, 156],
  "dcmmeta_slice_dim": 2,
  "dcmmeta_version": 0.6,
  "global": {
    "const": {
      "AcquisitionMatrix": [100, 0, 0, 100],
      "AngioFlag": "N",
      "BitsAllocated": 16,
      "BitsStored": 12,
      "BodyPartExamined": "BRAIN",
      "Columns": 900,
      "EchoNumbers": 1,
      "EchoTime": 34.0,
      "EchoTrainLength": 100,
      "FlipAngle": 90.0,
      "HighBit": 11,
      "ImageOrientationPatient": [1.0, 0.0, 0.0, 0.0, 0.98977622990198, -0.1426289406854],
      "ImagePositionPatient": [-900.67796611786, -905.26908687699, 67.970870682995],
      "ImageType": [
        "ORIGINAL",
        "PRIMARY",
        "M",
        "ND",
        "MOSAIC"
],
      "ImagedNucleus": "1H",
      "ImagingFrequency": 123.257698,
      "InPlanePhaseEncodingDirection": "COL",
      "MRAcquisitionType": "2D",
      "MagneticFieldStrength": 3.0,
      "Manufacturer": "SIEMENS",
      "ManufacturerModelName": "Prisma",
      "Modality": "MR",
      "NumberOfAverages": 1.0,
      "NumberOfPhaseEncodingSteps": 100,
      "PercentPhaseFieldOfView": 100.0,
      "PercentSampling": 100.0,
      "PerformedProcedureStepStartTime": "142706.745000",
      "PhotometricInterpretation": "MONOCHROME2",
      "PixelBandwidth": 2380.0,
      "PixelRepresentation": 0,
      "PixelSpacing": [2.0, 2.0],
      "ProtocolName": "bold_100x100_s3_2x2x2_static_156",
      "RepetitionTime": 2000.0,
      "Rows": 900,
      "SAR": 0.07288118495508,
      "SamplesPerPixel": 1,
      "ScanOptions": "FS",
      "ScanningSequence": "EP",
      "SequenceName": "*epfid2d1_100",
      "SequenceVariant": "SK",
      "SeriesDescription": "bold_100x100_s3_2x2x2_static_156",
      "SeriesNumber": 8,
      "SeriesTime": "150227.477000",
      "SliceLocation": -61.841618768707,
      "SliceThickness": 2.0,
      "SmallestImagePixelValue": 0,
      "SoftwareVersions": "syngo MR E11",
      "SpacingBetweenSlices": 1.999999955755,
      "SpecificCharacterSet": "ISO_IR 100",
      "StudyID": "1",
      "StudyTime": "142706.674000",
      "TransmitCoilName": "Body",
      "VariableFlipAngleFlag": "N",
      "WindowCenterWidthExplanation": "Algo1",
      "dBdt": 0.0},
    "slices": {}
  },
  "time": {
    "samples": {
      "AcquisitionNumber": [1, 2, 3, 4, 5, 6, 7, 8, 9, 10, 11, 12, 13, 14, 15, 16, 17, 18, 19, 20, 21, 22, 23, 24, 25, 26, 27, 28, 29, 30, 31, 32, 33, 34, 35, 36, 37, 38, 39, 40, 41, 42, 43, 44, 45, 46, 47, 48, 49, 50, 51, 52, 53, 54, 55, 56, 57, 58, 59, 60, 61, 62, 63, 64, 65, 66, 67, 68, 69, 70, 71, 72, 73, 74, 75, 76, 77, 78, 79, 80, 81, 82, 83, 84, 85, 86, 87, 88, 89, 90, 91, 92, 93, 94, 95, 96, 97, 98, 99, 100, 101, 102, 103, 104, 105, 106, 107, 108, 109, 110, 111, 112, 113, 114, 115, 116, 117, 118, 119, 120, 121, 122, 123, 124, 125, 126, 127, 128, 129, 130, 131, 132, 133, 134, 135, 136, 137, 138, 139, 140, 141, 142, 143, 144, 145, 146, 147, 148, 149, 150, 151, 152, 153, 154, 155, 156],
      "AcquisitionTime": ["150224.757500", "150226.757500", "150228.757500", "150230.757500", "150232.757500", "150234.757500", "150236.757500", "150238.757500", "150240.757500", "150242.757500", "150244.757500", "150246.757500", "150248.757500", "150250.757500", "150252.757500", "150254.757500", "150256.757500", "150258.757500", "150300.757500", "150302.757500", "150304.757500", "150306.757500", "150308.757500", "150310.757500", "150312.757500", "150314.757500", "150316.757500", "150318.757500", "150320.757500", "150322.757500", "150324.757500", "150326.757500", "150328.757500", "150330.757500", "150332.757500", "150334.757500", "150336.757500", "150338.757500", "150340.757500", "150342.757500", "150344.757500", "150346.757500", "150348.757500", "150350.757500", "150352.757500", "150354.757500", "150356.757500", "150358.757500", "150400.757500", "150402.757500", "150404.757500", "150406.757500", "150408.757500", "150410.757500", "150412.757500", "150414.757500", "150416.757500", "150418.757500", "150420.757500", "150422.757500", "150424.757500", "150426.757500", "150428.757500", "150430.757500", "150432.757500", "150434.757500", "150436.757500", "150438.757500", "150440.757500", "150442.757500", "150444.757500", "150446.757500", "150448.757500", "150450.757500", "150452.757500", "150454.757500", "150456.757500", "150458.757500", "150500.757500", "150502.757500", "150504.757500", "150506.757500", "150508.757500", "150510.757500", "150512.757500", "150514.757500", "150516.757500", "150518.757500", "150520.757500", "150522.757500", "150524.757500", "150526.757500", "150528.757500", "150530.757500", "150532.757500", "150534.757500", "150536.757500", "150538.757500", "150540.757500", "150542.757500", "150544.757500", "150546.757500", "150548.757500", "150550.757500", "150552.757500", "150554.757500", "150556.757500", "150558.757500", "150600.757500", "150602.757500", "150604.757500", "150606.757500", "150608.757500", "150610.757500", "150612.757500", "150614.757500", "150616.757500", "150618.757500", "150620.757500", "150622.757500", "150624.757500", "150626.757500", "150628.757500", "150630.757500", "150632.757500", "150634.757500", "150636.757500", "150638.757500", "150640.757500", "150642.757500", "150644.757500", "150646.757500", "150648.757500", "150650.757500", "150652.757500", "150654.757500", "150656.757500", "150658.757500", "150700.757500", "150702.757500", "150704.757500", "150706.757500", "150708.757500", "150710.757500", "150712.757500", "150714.757500", "150716.757500", "150718.757500", "150720.757500", "150722.757500", "150724.757500", "150726.757500", "150728.757500", "150730.757500", "150732.757500", "150734.757500"],
      "ContentTime": ["150227.481000", "150228.978000", "150230.977000", "150232.977000", "150234.977000", "150236.977000", "150238.977000", "150240.976000", "150242.977000", "150244.977000", "150246.977000", "150248.977000", "150250.977000", "150252.978000", "150254.977000", "150256.977000", "150258.976000", "150300.976000", "150302.977000", "150304.978000", "150306.977000", "150308.978000", "150310.977000", "150312.978000", "150314.976000", "150316.976000", "150318.977000", "150320.976000", "150322.977000", "150324.978000", "150326.978000", "150328.977000", "150330.978000", "150332.977000", "150334.976000", "150336.977000", "150338.978000", "150340.977000", "150342.977000", "150344.977000", "150346.977000", "150348.977000", "150350.977000", "150352.976000", "150354.977000", "150356.977000", "150358.977000", "150400.977000", "150402.978000", "150404.977000", "150406.976000", "150408.976000", "150410.976000", "150412.976000", "150414.977000", "150416.977000", "150418.977000", "150420.977000", "150422.977000", "150424.976000", "150426.977000", "150428.976000", "150430.976000", "150432.977000", "150434.977000", "150436.978000", "150438.977000", "150440.976000", "150442.976000", "150444.977000", "150446.976000", "150448.977000", "150450.977000", "150452.977000", "150454.978000", "150456.978000", "150458.977000", "150500.976000", "150502.976000", "150504.976000", "150506.978000", "150508.977000", "150510.977000", "150512.978000", "150514.978000", "150516.977000", "150518.977000", "150520.976000", "150522.977000", "150524.978000", "150526.978000", "150528.978000", "150530.977000", "150532.978000", "150534.976000", "150536.976000", "150538.977000", "150540.976000", "150542.978000", "150544.978000", "150546.977000", "150548.978000", "150550.976000", "150552.976000", "150554.976000", "150556.976000", "150558.978000", "150600.977000", "150602.978000", "150604.978000", "150606.977000", "150608.977000", "150610.976000", "150612.977000", "150614.977000", "150616.978000", "150618.978000", "150620.977000", "150622.978000", "150624.977000", "150626.976000", "150628.977000", "150630.976000", "150632.977000", "150634.977000", "150636.978000", "150638.977000", "150640.978000", "150642.977000", "150644.977000", "150646.977000", "150648.977000", "150650.976000", "150652.978000", "150654.977000", "150656.977000", "150658.977000", "150700.977000", "150702.977000", "150704.977000", "150706.977000", "150708.978000", "150710.978000", "150712.978000", "150714.978000", "150716.978000", "150718.976000", "150720.977000", "150722.977000", "150724.976000", "150726.977000", "150728.978000", "150730.977000", "150732.978000", "150734.977000", "150736.850000"],
      "InstanceCreationTime": ["150227.481000", "150228.978000", "150230.977000", "150232.977000", "150234.977000", "150236.977000", "150238.977000", "150240.976000", "150242.977000", "150244.977000", "150246.977000", "150248.977000", "150250.977000", "150252.978000", "150254.977000", "150256.977000", "150258.976000", "150300.976000", "150302.977000", "150304.978000", "150306.977000", "150308.978000", "150310.977000", "150312.978000", "150314.976000", "150316.976000", "150318.977000", "150320.976000", "150322.977000", "150324.978000", "150326.978000", "150328.977000", "150330.978000", "150332.977000", "150334.976000", "150336.977000", "150338.978000", "150340.977000", "150342.977000", "150344.977000", "150346.977000", "150348.977000", "150350.977000", "150352.976000", "150354.977000", "150356.977000", "150358.977000", "150400.977000", "150402.978000", "150404.977000", "150406.976000", "150408.976000", "150410.976000", "150412.976000", "150414.977000", "150416.977000", "150418.977000", "150420.977000", "150422.977000", "150424.976000", "150426.977000", "150428.976000", "150430.976000", "150432.977000", "150434.977000", "150436.978000", "150438.977000", "150440.976000", "150442.976000", "150444.977000", "150446.976000", "150448.977000", "150450.977000", "150452.977000", "150454.978000", "150456.978000", "150458.977000", "150500.976000", "150502.976000", "150504.976000", "150506.978000", "150508.977000", "150510.977000", "150512.978000", "150514.978000", "150516.977000", "150518.977000", "150520.976000", "150522.977000", "150524.978000", "150526.978000", "150528.978000", "150530.977000", "150532.978000", "150534.976000", "150536.976000", "150538.977000", "150540.976000", "150542.978000", "150544.978000", "150546.977000", "150548.978000", "150550.976000", "150552.976000", "150554.976000", "150556.976000", "150558.978000", "150600.977000", "150602.978000", "150604.978000", "150606.977000", "150608.977000", "150610.976000", "150612.977000", "150614.977000", "150616.978000", "150618.978000", "150620.977000", "150622.978000", "150624.977000", "150626.976000", "150628.977000", "150630.976000", "150632.977000", "150634.977000", "150636.978000", "150638.977000", "150640.978000", "150642.977000", "150644.977000", "150646.977000", "150648.977000", "150650.976000", "150652.978000", "150654.977000", "150656.977000", "150658.977000", "150700.977000", "150702.977000", "150704.977000", "150706.977000", "150708.978000", "150710.978000", "150712.978000", "150714.978000", "150716.978000", "150718.976000", "150720.977000", "150722.977000", "150724.976000", "150726.977000", "150728.978000", "150730.977000", "150732.978000", "150734.977000", "150736.850000"],
      "InstanceNumber": [1, 2, 3, 4, 5, 6, 7, 8, 9, 10, 11, 12, 13, 14, 15, 16, 17, 18, 19, 20, 21, 22, 23, 24, 25, 26, 27, 28, 29, 30, 31, 32, 33, 34, 35, 36, 37, 38, 39, 40, 41, 42, 43, 44, 45, 46, 47, 48, 49, 50, 51, 52, 53, 54, 55, 56, 57, 58, 59, 60, 61, 62, 63, 64, 65, 66, 67, 68, 69, 70, 71, 72, 73, 74, 75, 76, 77, 78, 79, 80, 81, 82, 83, 84, 85, 86, 87, 88, 89, 90, 91, 92, 93, 94, 95, 96, 97, 98, 99, 100, 101, 102, 103, 104, 105, 106, 107, 108, 109, 110, 111, 112, 113, 114, 115, 116, 117, 118, 119, 120, 121, 122, 123, 124, 125, 126, 127, 128, 129, 130, 131, 132, 133, 134, 135, 136, 137, 138, 139, 140, 141, 142, 143, 144, 145, 146, 147, 148, 149, 150, 151, 152, 153, 154, 155, 156],
      "LargestImagePixelValue": [4003, 3888, 3879, 3887, 3884, 3902, 3854, 3878, 3845, 3833, 3846, 3881, 3798, 3840, 3806, 3824, 3871, 3810, 3799, 3866, 3819, 3839, 3852, 3798, 3831, 3839, 3810, 3803, 3798, 3809, 3795, 3825, 3811, 3825, 3832, 3784, 3834, 3814, 3804, 3837, 3798, 3821, 3826, 3813, 3816, 3799, 3838, 3810, 3771, 3829, 3770, 3823, 3791, 3788, 3852, 3796, 3810, 3785, 3830, 3796, 3806, 3811, 3809, 3825, 3780, 3804, 3795, 3797, 3799, 3814, 3752, 3793, 3769, 3823, 3777, 3767, 3755, 3791, 3786, 3784, 3745, 3774, 3788, 3783, 3808, 3790, 3802, 3767, 3805, 3804, 3793, 3808, 3775, 3834, 3795, 3764, 3813, 3764, 3761, 3808, 3755, 3757, 3718, 3784, 3757, 3722, 3780, 3738, 3744, 3785, 3720, 3774, 3730, 3753, 3804, 3752, 3754, 3796, 3716, 3787, 3772, 3775, 3788, 3748, 3780, 3756, 3780, 3787, 3776, 3764, 3762, 3747, 3774, 3737, 3783, 3759, 3768, 3765, 3726, 3800, 3757, 3753, 3758, 3752, 3797, 3762, 3743, 3772, 3744, 3735, 3766, 3729, 3763, 3770, 3737, 3784],
      "WindowCenter": [815.0, 813.0, 811.0, 810.0, 810.0, 810.0, 810.0, 812.0, 812.0, 812.0, 810.0, 809.0, 810.0, 811.0, 810.0, 809.0, 809.0, 809.0, 809.0, 809.0, 810.0, 810.0, 810.0, 809.0, 809.0, 808.0, 807.0, 807.0, 808.0, 808.0, 807.0, 807.0, 807.0, 808.0, 809.0, 808.0, 808.0, 808.0, 809.0, 809.0, 809.0, 810.0, 809.0, 808.0, 809.0, 810.0, 811.0, 811.0, 810.0, 811.0, 810.0, 809.0, 809.0, 809.0, 809.0, 809.0, 810.0, 809.0, 809.0, 808.0, 809.0, 810.0, 810.0, 810.0, 810.0, 809.0, 808.0, 809.0, 810.0, 811.0, 810.0, 810.0, 809.0, 809.0, 809.0, 810.0, 810.0, 809.0, 808.0, 808.0, 808.0, 809.0, 809.0, 810.0, 811.0, 810.0, 809.0, 809.0, 809.0, 809.0, 808.0, 808.0, 809.0, 811.0, 811.0, 810.0, 810.0, 809.0, 809.0, 810.0, 809.0, 809.0, 808.0, 809.0, 810.0, 809.0, 809.0, 809.0, 810.0, 810.0, 810.0, 809.0, 809.0, 809.0, 807.0, 806.0, 807.0, 809.0, 809.0, 810.0, 809.0, 809.0, 808.0, 808.0, 809.0, 809.0, 808.0, 808.0, 809.0, 809.0, 810.0, 809.0, 809.0, 809.0, 809.0, 809.0, 810.0, 809.0, 808.0, 808.0, 809.0, 810.0, 810.0, 810.0, 811.0, 810.0, 809.0, 809.0, 809.0, 809.0, 809.0, 808.0, 809.0, 809.0, 809.0, 810.0],
      "WindowWidth": [1779.0, 1772.0, 1768.0, 1765.0, 1765.0, 1765.0, 1766.0, 1770.0, 1771.0, 1768.0, 1764.0, 1763.0, 1764.0, 1766.0, 1764.0, 1762.0, 1763.0, 1762.0, 1762.0, 1763.0, 1764.0, 1765.0, 1765.0, 1762.0, 1763.0, 1760.0, 1757.0, 1756.0, 1759.0, 1761.0, 1758.0, 1758.0, 1758.0, 1760.0, 1762.0, 1760.0, 1760.0, 1760.0, 1761.0, 1761.0, 1763.0, 1764.0, 1761.0, 1760.0, 1762.0, 1764.0, 1767.0, 1766.0, 1765.0, 1767.0, 1763.0, 1763.0, 1761.0, 1761.0, 1763.0, 1762.0, 1763.0, 1762.0, 1762.0, 1760.0, 1760.0, 1763.0, 1764.0, 1765.0, 1763.0, 1761.0, 1760.0, 1762.0, 1766.0, 1766.0, 1763.0, 1763.0, 1762.0, 1762.0, 1762.0, 1763.0, 1763.0, 1763.0, 1759.0, 1759.0, 1759.0, 1761.0, 1762.0, 1765.0, 1766.0, 1766.0, 1763.0, 1760.0, 1761.0, 1761.0, 1759.0, 1760.0, 1762.0, 1768.0, 1768.0, 1765.0, 1763.0, 1762.0, 1762.0, 1764.0, 1762.0, 1762.0, 1760.0, 1762.0, 1764.0, 1762.0, 1762.0, 1761.0, 1764.0, 1765.0, 1762.0, 1762.0, 1761.0, 1760.0, 1756.0, 1754.0, 1757.0, 1762.0, 1761.0, 1763.0, 1763.0, 1761.0, 1759.0, 1758.0, 1761.0, 1762.0, 1760.0, 1759.0, 1760.0, 1762.0, 1763.0, 1762.0, 1763.0, 1760.0, 1762.0, 1761.0, 1762.0, 1761.0, 1757.0, 1759.0, 1760.0, 1763.0, 1765.0, 1765.0, 1766.0, 1764.0, 1762.0, 1761.0, 1760.0, 1761.0, 1760.0, 1759.0, 1761.0, 1763.0, 1763.0, 1763.0]
    },
    "slices": {}
  }
}