{
  "AcquisitionMatrixPE": 100,
  "AcquisitionNumber": 1,
  "AcquisitionTime": "15:23:1.045000",
  "BandwidthPerPixelPhaseEncode": 18.519,
  "BaseResolution": 100,
  "BodyPartExamined": "BRAIN",
  "CoilCombinationMethod": "Sum of Squares",
  "ConsistencyInfo": "N4_VE11C_LATEST_20160120",
  "ConversionSoftware": "dcm2niix",
  "ConversionSoftwareVersion": "v1.0.20211006",
  "DerivedVendorReportedEchoSpacing": 0.000539986,
  "DeviceSerialNumber": "166078",
  "DwellTime": 2.1e-06,
  "EchoTime": 0.034,
  "EchoTrainLength": 100,
  "EffectiveEchoSpacing": 0.000539986,
  "FlipAngle": 90,
  "ImageOrientationPatientDICOM": [1, 0, 0, 0, 0.989776, -0.142629],
  "ImageOrientationText": "Tra>Cor(-8.2)",
  "ImageType": [
    "ORIGINAL",
    "PRIMARY",
    "M",
    "ND",
    "MOSAIC"
],
  "ImagingFrequency": 123.258,
  "InPlanePhaseEncodingDirectionDICOM": "COL",
  "InstitutionAddress": "Street StreetNo,Bei Jing,District,CN,ZIP",
  "InstitutionName": "BeiJing Normal University",
  "InstitutionalDepartmentName": "Department",
  "MRAcquisitionType": "2D",
  "MagneticFieldStrength": 3,
  "Manufacturer": "Siemens",
  "ManufacturersModelName": "Prisma",
  "Modality": "MR",
  "MultibandAccelerationFactor": 3,
  "PartialFourier": 1,
  "PatientPosition": "HFS",
  "PercentPhaseFOV": 100,
  "PercentSampling": 100,
  "PhaseEncodingDirection": "j-",
  "PhaseEncodingSteps": 100,
  "PhaseResolution": 1,
  "PixelBandwidth": 2380,
  "ProcedureStepDescription": "BNU_P2018_64CH^Zhen.ZongLei",
  "ProtocolName": "bold_100x100_s3_2x2x2_static_156",
  "PulseSequenceDetails": "%SiemensSeq%\\ep2d_bold",
  "ReceiveCoilActiveElements": "HC1-7;NC1",
  "ReceiveCoilName": "HeadNeck_64",
  "ReconMatrixPE": 100,
  "RefLinesPE": 32,
  "RepetitionTime": 2,
  "SAR": 0.0728812,
  "ScanOptions": "FS",
  "ScanningSequence": "EP",
  "SequenceName": "*epfid2d1_100",
  "SequenceVariant": "SK",
  "SeriesDescription": "bold_100x100_s3_2x2x2_static_156",
  "SeriesNumber": 13,
  "ShimSetting": [-5482, -11522, -1241, 315, -67, -371, -161, 33],
  "SliceThickness": 2,
  "SliceTiming": [1.485, 0, 0.99, 0.0825, 1.0725, 0.165, 1.155, 0.2475, 1.2375, 0.33, 1.32, 0.4125, 1.4025, 0.5775, 1.5675, 0.66, 1.65, 0.7425, 1.7325, 0.825, 1.815, 0.9075, 1.8975, 0.495, 1.485, 0, 0.99, 0.0825, 1.0725, 0.165, 1.155, 0.2475, 1.2375, 0.33, 1.32, 0.4125, 1.4025, 0.5775, 1.5675, 0.66, 1.65, 0.7425, 1.7325, 0.825, 1.815, 0.9075, 1.8975, 0.495, 1.485, 0, 0.99, 0.0825, 1.0725, 0.165, 1.155, 0.2475, 1.2375, 0.33, 1.32, 0.4125, 1.4025, 0.5775, 1.5675, 0.66, 1.65, 0.7425, 1.7325, 0.825, 1.815, 0.9075, 1.8975, 0.495],
  "SoftwareVersions": "syngo MR E11",
  "SpacingBetweenSlices": 2,
  "StationName": "AWP166078",
  "TaskName": "action",
  "TotalReadoutTime": 0.0534586,
  "TxRefAmp": 228.896,
  "dcmmeta_affine": [
    [-2.0, 0.0, 0.0, 100.67796325683594],
    [0.0, 1.9795525074005127, -0.28525787591934204, -82.527587890625],
    [0.0, 0.28525787591934204, 1.9795523881912231, -74.37281036376953],
    [0.0, 0.0, 0.0, 1.0]
],
  "dcmmeta_reorient_transform": [
    [0.0, -1.0, 0.0, 99.0],
    [1.0, 0.0, 0.0, 0.0],
    [0.0, 0.0, 1.0, 0.0],
    [0.0, 0.0, 0.0, 1.0]
],
  "dcmmeta_shape": [100, 100, 72, 156],
  "dcmmeta_slice_dim": 2,
  "dcmmeta_version": 0.6,
  "global": {
    "const": {
      "AcquisitionMatrix": [100, 0, 0, 100],
      "AngioFlag": "N",
      "BitsAllocated": 16,
      "BitsStored": 12,
      "BodyPartExamined": "BRAIN",
      "Columns": 900,
      "EchoNumbers": 1,
      "EchoTime": 34.0,
      "EchoTrainLength": 100,
      "FlipAngle": 90.0,
      "HighBit": 11,
      "ImageOrientationPatient": [1.0, 0.0, 0.0, 0.0, 0.98977622990198, -0.1426289406854],
      "ImagePositionPatient": [-900.67796611786, -905.26908687699, 67.970870682995],
      "ImageType": [
        "ORIGINAL",
        "PRIMARY",
        "M",
        "ND",
        "MOSAIC"
],
      "ImagedNucleus": "1H",
      "ImagingFrequency": 123.257697,
      "InPlanePhaseEncodingDirection": "COL",
      "MRAcquisitionType": "2D",
      "MagneticFieldStrength": 3.0,
      "Manufacturer": "SIEMENS",
      "ManufacturerModelName": "Prisma",
      "Modality": "MR",
      "NumberOfAverages": 1.0,
      "NumberOfPhaseEncodingSteps": 100,
      "PercentPhaseFieldOfView": 100.0,
      "PercentSampling": 100.0,
      "PerformedProcedureStepStartTime": "142706.745000",
      "PhotometricInterpretation": "MONOCHROME2",
      "PixelBandwidth": 2380.0,
      "PixelRepresentation": 0,
      "PixelSpacing": [2.0, 2.0],
      "ProtocolName": "bold_100x100_s3_2x2x2_static_156",
      "RepetitionTime": 2000.0,
      "Rows": 900,
      "SAR": 0.07288118495508,
      "SamplesPerPixel": 1,
      "ScanOptions": "FS",
      "ScanningSequence": "EP",
      "SequenceName": "*epfid2d1_100",
      "SequenceVariant": "SK",
      "SeriesDescription": "bold_100x100_s3_2x2x2_static_156",
      "SeriesNumber": 13,
      "SeriesTime": "152303.620000",
      "SliceLocation": -61.841618768707,
      "SliceThickness": 2.0,
      "SmallestImagePixelValue": 0,
      "SoftwareVersions": "syngo MR E11",
      "SpacingBetweenSlices": 1.999999955755,
      "SpecificCharacterSet": "ISO_IR 100",
      "StudyID": "1",
      "StudyTime": "142706.674000",
      "TransmitCoilName": "Body",
      "VariableFlipAngleFlag": "N",
      "WindowCenterWidthExplanation": "Algo1",
      "dBdt": 0.0},
    "slices": {}
  },
  "time": {
    "samples": {
      "AcquisitionNumber": [1, 2, 3, 4, 5, 6, 7, 8, 9, 10, 11, 12, 13, 14, 15, 16, 17, 18, 19, 20, 21, 22, 23, 24, 25, 26, 27, 28, 29, 30, 31, 32, 33, 34, 35, 36, 37, 38, 39, 40, 41, 42, 43, 44, 45, 46, 47, 48, 49, 50, 51, 52, 53, 54, 55, 56, 57, 58, 59, 60, 61, 62, 63, 64, 65, 66, 67, 68, 69, 70, 71, 72, 73, 74, 75, 76, 77, 78, 79, 80, 81, 82, 83, 84, 85, 86, 87, 88, 89, 90, 91, 92, 93, 94, 95, 96, 97, 98, 99, 100, 101, 102, 103, 104, 105, 106, 107, 108, 109, 110, 111, 112, 113, 114, 115, 116, 117, 118, 119, 120, 121, 122, 123, 124, 125, 126, 127, 128, 129, 130, 131, 132, 133, 134, 135, 136, 137, 138, 139, 140, 141, 142, 143, 144, 145, 146, 147, 148, 149, 150, 151, 152, 153, 154, 155, 156],
      "AcquisitionTime": ["152301.045000", "152303.045000", "152305.045000", "152307.045000", "152309.045000", "152311.045000", "152313.045000", "152315.045000", "152317.045000", "152319.045000", "152321.045000", "152323.045000", "152325.045000", "152327.045000", "152329.045000", "152331.045000", "152333.045000", "152335.045000", "152337.045000", "152339.045000", "152341.045000", "152343.045000", "152345.045000", "152347.045000", "152349.045000", "152351.045000", "152353.045000", "152355.045000", "152357.045000", "152359.045000", "152401.045000", "152403.045000", "152405.045000", "152407.045000", "152409.045000", "152411.045000", "152413.045000", "152415.045000", "152417.045000", "152419.045000", "152421.045000", "152423.045000", "152425.045000", "152427.045000", "152429.045000", "152431.045000", "152433.045000", "152435.045000", "152437.045000", "152439.045000", "152441.045000", "152443.045000", "152445.045000", "152447.045000", "152449.045000", "152451.045000", "152453.045000", "152455.045000", "152457.045000", "152459.045000", "152501.045000", "152503.045000", "152505.045000", "152507.045000", "152509.045000", "152511.045000", "152513.045000", "152515.045000", "152517.045000", "152519.045000", "152521.045000", "152523.045000", "152525.045000", "152527.045000", "152529.045000", "152531.045000", "152533.045000", "152535.045000", "152537.045000", "152539.045000", "152541.045000", "152543.045000", "152545.045000", "152547.045000", "152549.045000", "152551.045000", "152553.045000", "152555.045000", "152557.045000", "152559.045000", "152601.045000", "152603.045000", "152605.045000", "152607.045000", "152609.045000", "152611.045000", "152613.045000", "152615.045000", "152617.045000", "152619.045000", "152621.045000", "152623.045000", "152625.045000", "152627.045000", "152629.045000", "152631.045000", "152633.045000", "152635.045000", "152637.045000", "152639.045000", "152641.045000", "152643.045000", "152645.045000", "152647.045000", "152649.045000", "152651.045000", "152653.045000", "152655.045000", "152657.045000", "152659.045000", "152701.045000", "152703.045000", "152705.045000", "152707.045000", "152709.045000", "152711.045000", "152713.045000", "152715.045000", "152717.045000", "152719.045000", "152721.045000", "152723.045000", "152725.045000", "152727.045000", "152729.045000", "152731.045000", "152733.045000", "152735.045000", "152737.045000", "152739.045000", "152741.045000", "152743.045000", "152745.045000", "152747.045000", "152749.045000", "152751.045000", "152753.045000", "152755.045000", "152757.045000", "152759.045000", "152801.045000", "152803.045000", "152805.045000", "152807.045000", "152809.045000", "152811.045000"],
      "ContentTime": ["152303.624000", "152305.105000", "152307.105000", "152309.104000", "152311.105000", "152312.605000", "152315.104000", "152317.105000", "152319.104000", "152321.105000", "152323.105000", "152325.105000", "152327.104000", "152329.105000", "152331.105000", "152333.105000", "152335.104000", "152337.104000", "152339.105000", "152341.104000", "152343.104000", "152345.106000", "152347.106000", "152349.106000", "152351.105000", "152353.104000", "152355.104000", "152357.105000", "152359.104000", "152401.104000", "152403.106000", "152404.606000", "152407.104000", "152408.604000", "152411.105000", "152413.105000", "152415.105000", "152417.105000", "152419.104000", "152421.105000", "152423.105000", "152424.604000", "152427.105000", "152429.104000", "152431.104000", "152433.105000", "152435.105000", "152437.105000", "152439.105000", "152441.105000", "152443.104000", "152445.105000", "152446.604000", "152448.605000", "152450.605000", "152453.105000", "152455.106000", "152456.605000", "152459.105000", "152500.604000", "152503.104000", "152505.105000", "152506.605000", "152508.604000", "152511.105000", "152513.106000", "152515.106000", "152517.105000", "152519.105000", "152521.105000", "152522.604000", "152525.104000", "152526.606000", "152529.105000", "152531.106000", "152533.105000", "152535.105000", "152537.105000", "152539.104000", "152541.105000", "152543.105000", "152545.105000", "152547.104000", "152549.106000", "152551.105000", "152553.105000", "152555.105000", "152557.104000", "152559.105000", "152601.104000", "152603.104000", "152604.605000", "152607.106000", "152609.105000", "152611.105000", "152612.605000", "152614.604000", "152617.104000", "152618.604000", "152621.105000", "152623.106000", "152624.606000", "152627.104000", "152629.104000", "152631.104000", "152633.105000", "152635.104000", "152637.105000", "152638.604000", "152641.106000", "152643.105000", "152645.105000", "152647.104000", "152649.105000", "152651.105000", "152653.104000", "152655.104000", "152657.105000", "152659.106000", "152700.606000", "152703.104000", "152705.104000", "152706.604000", "152709.105000", "152711.104000", "152713.105000", "152715.105000", "152717.105000", "152719.105000", "152721.104000", "152723.105000", "152725.105000", "152727.104000", "152729.105000", "152730.604000", "152733.105000", "152735.106000", "152737.105000", "152739.104000", "152741.105000", "152743.105000", "152745.104000", "152747.104000", "152749.105000", "152751.106000", "152753.105000", "152755.104000", "152757.105000", "152759.105000", "152801.104000", "152803.104000", "152804.605000", "152806.604000", "152809.105000", "152811.105000", "152812.587000"],
      "InstanceCreationTime": ["152303.624000", "152305.105000", "152307.105000", "152309.104000", "152311.105000", "152312.605000", "152315.104000", "152317.105000", "152319.104000", "152321.105000", "152323.105000", "152325.105000", "152327.104000", "152329.105000", "152331.105000", "152333.105000", "152335.104000", "152337.104000", "152339.105000", "152341.104000", "152343.104000", "152345.106000", "152347.106000", "152349.106000", "152351.105000", "152353.104000", "152355.104000", "152357.105000", "152359.104000", "152401.104000", "152403.106000", "152404.606000", "152407.104000", "152408.604000", "152411.105000", "152413.105000", "152415.105000", "152417.105000", "152419.104000", "152421.105000", "152423.105000", "152424.604000", "152427.105000", "152429.104000", "152431.104000", "152433.105000", "152435.105000", "152437.105000", "152439.105000", "152441.105000", "152443.104000", "152445.105000", "152446.604000", "152448.605000", "152450.605000", "152453.105000", "152455.106000", "152456.605000", "152459.105000", "152500.604000", "152503.104000", "152505.105000", "152506.605000", "152508.604000", "152511.105000", "152513.106000", "152515.106000", "152517.105000", "152519.105000", "152521.105000", "152522.604000", "152525.104000", "152526.606000", "152529.105000", "152531.106000", "152533.105000", "152535.105000", "152537.105000", "152539.104000", "152541.105000", "152543.105000", "152545.105000", "152547.104000", "152549.106000", "152551.105000", "152553.105000", "152555.105000", "152557.104000", "152559.105000", "152601.104000", "152603.104000", "152604.605000", "152607.106000", "152609.105000", "152611.105000", "152612.605000", "152614.604000", "152617.104000", "152618.604000", "152621.105000", "152623.106000", "152624.606000", "152627.104000", "152629.104000", "152631.104000", "152633.105000", "152635.104000", "152637.105000", "152638.604000", "152641.106000", "152643.105000", "152645.105000", "152647.104000", "152649.105000", "152651.105000", "152653.104000", "152655.104000", "152657.105000", "152659.106000", "152700.606000", "152703.104000", "152705.104000", "152706.604000", "152709.105000", "152711.104000", "152713.105000", "152715.105000", "152717.105000", "152719.105000", "152721.104000", "152723.105000", "152725.105000", "152727.104000", "152729.105000", "152730.604000", "152733.105000", "152735.106000", "152737.105000", "152739.104000", "152741.105000", "152743.105000", "152745.104000", "152747.104000", "152749.105000", "152751.106000", "152753.105000", "152755.104000", "152757.105000", "152759.105000", "152801.104000", "152803.104000", "152804.605000", "152806.604000", "152809.105000", "152811.105000", "152812.587000"],
      "InstanceNumber": [1, 2, 3, 4, 5, 6, 7, 8, 9, 10, 11, 12, 13, 14, 15, 16, 17, 18, 19, 20, 21, 22, 23, 24, 25, 26, 27, 28, 29, 30, 31, 32, 33, 34, 35, 36, 37, 38, 39, 40, 41, 42, 43, 44, 45, 46, 47, 48, 49, 50, 51, 52, 53, 54, 55, 56, 57, 58, 59, 60, 61, 62, 63, 64, 65, 66, 67, 68, 69, 70, 71, 72, 73, 74, 75, 76, 77, 78, 79, 80, 81, 82, 83, 84, 85, 86, 87, 88, 89, 90, 91, 92, 93, 94, 95, 96, 97, 98, 99, 100, 101, 102, 103, 104, 105, 106, 107, 108, 109, 110, 111, 112, 113, 114, 115, 116, 117, 118, 119, 120, 121, 122, 123, 124, 125, 126, 127, 128, 129, 130, 131, 132, 133, 134, 135, 136, 137, 138, 139, 140, 141, 142, 143, 144, 145, 146, 147, 148, 149, 150, 151, 152, 153, 154, 155, 156],
      "LargestImagePixelValue": [4095, 4083, 4061, 4051, 4050, 4033, 4027, 4027, 4072, 4028, 4025, 4000, 4034, 4024, 4068, 4031, 4028, 4055, 4024, 4047, 4052, 4050, 4043, 4033, 4046, 4064, 4046, 4075, 4067, 4077, 4043, 4024, 4090, 4058, 4024, 4059, 4039, 4019, 4065, 4018, 4053, 4024, 4077, 4074, 4021, 4057, 4061, 4036, 4036, 4048, 4029, 4010, 4047, 4059, 4093, 4058, 4066, 4090, 4068, 4044, 4035, 4030, 4007, 4032, 4048, 4069, 4040, 4069, 4055, 4013, 4071, 4074, 4018, 4026, 4015, 4037, 4053, 4031, 4039, 4012, 4043, 4040, 4062, 4044, 4036, 4029, 4073, 4060, 4095, 4069, 4053, 4060, 4037, 4021, 4001, 4091, 4033, 4040, 4080, 4084, 4056, 4044, 4048, 4054, 4046, 4026, 4035, 4061, 4058, 4038, 4033, 4008, 4065, 4044, 4043, 4069, 4052, 4052, 4067, 4032, 4041, 4026, 4071, 4041, 4032, 4031, 4049, 4081, 4050, 4029, 4052, 4084, 4095, 4095, 4055, 4093, 4095, 4072, 4095, 4084, 4095, 4095, 4070, 4053, 4090, 4076, 4063, 4036, 4064, 4089, 4025, 4064, 4060, 4064, 4081, 4047],
      "WindowCenter": [817.0, 817.0, 816.0, 815.0, 815.0, 815.0, 816.0, 816.0, 815.0, 813.0, 813.0, 814.0, 815.0, 815.0, 816.0, 815.0, 813.0, 814.0, 814.0, 814.0, 814.0, 813.0, 814.0, 815.0, 815.0, 814.0, 815.0, 817.0, 816.0, 813.0, 811.0, 811.0, 813.0, 814.0, 816.0, 816.0, 813.0, 811.0, 813.0, 815.0, 814.0, 813.0, 814.0, 815.0, 814.0, 813.0, 813.0, 813.0, 814.0, 814.0, 814.0, 813.0, 814.0, 814.0, 813.0, 813.0, 814.0, 815.0, 815.0, 815.0, 816.0, 815.0, 814.0, 814.0, 815.0, 816.0, 815.0, 815.0, 815.0, 814.0, 813.0, 813.0, 812.0, 814.0, 814.0, 813.0, 814.0, 815.0, 815.0, 815.0, 815.0, 814.0, 814.0, 814.0, 813.0, 813.0, 814.0, 815.0, 816.0, 816.0, 813.0, 813.0, 812.0, 813.0, 814.0, 814.0, 814.0, 815.0, 816.0, 816.0, 815.0, 814.0, 813.0, 813.0, 813.0, 813.0, 814.0, 815.0, 814.0, 813.0, 813.0, 814.0, 817.0, 817.0, 815.0, 814.0, 814.0, 814.0, 814.0, 814.0, 815.0, 815.0, 815.0, 814.0, 815.0, 815.0, 814.0, 813.0, 814.0, 815.0, 816.0, 816.0, 816.0, 815.0, 814.0, 814.0, 816.0, 816.0, 815.0, 814.0, 815.0, 816.0, 817.0, 817.0, 815.0, 813.0, 813.0, 813.0, 815.0, 816.0, 815.0, 813.0, 813.0, 814.0, 815.0, 814.0],
      "WindowWidth": [1786.0, 1783.0, 1781.0, 1778.0, 1777.0, 1779.0, 1782.0, 1780.0, 1777.0, 1773.0, 1773.0, 1776.0, 1777.0, 1777.0, 1780.0, 1777.0, 1773.0, 1774.0, 1775.0, 1775.0, 1775.0, 1774.0, 1774.0, 1778.0, 1778.0, 1777.0, 1779.0, 1783.0, 1780.0, 1773.0, 1768.0, 1767.0, 1774.0, 1776.0, 1782.0, 1782.0, 1772.0, 1768.0, 1774.0, 1778.0, 1774.0, 1771.0, 1774.0, 1777.0, 1775.0, 1774.0, 1773.0, 1773.0, 1775.0, 1774.0, 1774.0, 1774.0, 1774.0, 1774.0, 1773.0, 1774.0, 1777.0, 1779.0, 1779.0, 1780.0, 1781.0, 1780.0, 1775.0, 1775.0, 1779.0, 1782.0, 1779.0, 1778.0, 1778.0, 1774.0, 1772.0, 1773.0, 1771.0, 1774.0, 1775.0, 1773.0, 1776.0, 1777.0, 1777.0, 1778.0, 1778.0, 1776.0, 1776.0, 1774.0, 1773.0, 1773.0, 1775.0, 1778.0, 1781.0, 1780.0, 1774.0, 1771.0, 1771.0, 1774.0, 1774.0, 1776.0, 1777.0, 1779.0, 1781.0, 1780.0, 1779.0, 1777.0, 1773.0, 1772.0, 1772.0, 1774.0, 1777.0, 1779.0, 1775.0, 1774.0, 1774.0, 1775.0, 1783.0, 1783.0, 1778.0, 1775.0, 1775.0, 1776.0, 1776.0, 1777.0, 1777.0, 1777.0, 1777.0, 1775.0, 1777.0, 1777.0, 1775.0, 1772.0, 1774.0, 1777.0, 1781.0, 1781.0, 1782.0, 1778.0, 1774.0, 1775.0, 1779.0, 1781.0, 1779.0, 1777.0, 1778.0, 1781.0, 1784.0, 1783.0, 1778.0, 1774.0, 1773.0, 1773.0, 1779.0, 1780.0, 1776.0, 1774.0, 1774.0, 1776.0, 1777.0, 1776.0]
    },
    "slices": {}
  }
}