{
  "AcquisitionMatrixPE": 100,
  "AcquisitionNumber": 1,
  "AcquisitionTime": "15:10:58.710000",
  "BandwidthPerPixelPhaseEncode": 18.519,
  "BaseResolution": 100,
  "BodyPartExamined": "BRAIN",
  "CoilCombinationMethod": "Sum of Squares",
  "ConsistencyInfo": "N4_VE11C_LATEST_20160120",
  "ConversionSoftware": "dcm2niix",
  "ConversionSoftwareVersion": "v1.0.20211006",
  "DerivedVendorReportedEchoSpacing": 0.000539986,
  "DeviceSerialNumber": "166078",
  "DwellTime": 2.1e-06,
  "EchoTime": 0.034,
  "EchoTrainLength": 100,
  "EffectiveEchoSpacing": 0.000539986,
  "FlipAngle": 90,
  "ImageOrientationPatientDICOM": [1, 0, 0, 0, 0.989776, -0.142629],
  "ImageOrientationText": "Tra>Cor(-8.2)",
  "ImageType": [
    "ORIGINAL",
    "PRIMARY",
    "M",
    "ND",
    "MOSAIC"
],
  "ImagingFrequency": 123.258,
  "InPlanePhaseEncodingDirectionDICOM": "COL",
  "InstitutionAddress": "Street StreetNo,Bei Jing,District,CN,ZIP",
  "InstitutionName": "BeiJing Normal University",
  "InstitutionalDepartmentName": "Department",
  "MRAcquisitionType": "2D",
  "MagneticFieldStrength": 3,
  "Manufacturer": "Siemens",
  "ManufacturersModelName": "Prisma",
  "Modality": "MR",
  "MultibandAccelerationFactor": 3,
  "PartialFourier": 1,
  "PatientPosition": "HFS",
  "PercentPhaseFOV": 100,
  "PercentSampling": 100,
  "PhaseEncodingDirection": "j-",
  "PhaseEncodingSteps": 100,
  "PhaseResolution": 1,
  "PixelBandwidth": 2380,
  "ProcedureStepDescription": "BNU_P2018_64CH^Zhen.ZongLei",
  "ProtocolName": "bold_100x100_s3_2x2x2_static_156",
  "PulseSequenceDetails": "%SiemensSeq%\\ep2d_bold",
  "ReceiveCoilActiveElements": "HC1-7;NC1",
  "ReceiveCoilName": "HeadNeck_64",
  "ReconMatrixPE": 100,
  "RefLinesPE": 32,
  "RepetitionTime": 2,
  "SAR": 0.0728812,
  "ScanOptions": "FS",
  "ScanningSequence": "EP",
  "SequenceName": "*epfid2d1_100",
  "SequenceVariant": "SK",
  "SeriesDescription": "bold_100x100_s3_2x2x2_static_156",
  "SeriesNumber": 11,
  "ShimSetting": [-5482, -11522, -1241, 315, -67, -371, -161, 33],
  "SliceThickness": 2,
  "SliceTiming": [1.4825, 0, 0.9875, 0.0825, 1.07, 0.165, 1.1525, 0.2475, 1.235, 0.33, 1.3175, 0.4125, 1.4, 0.5775, 1.565, 0.66, 1.6475, 0.7425, 1.73, 0.825, 1.8125, 0.9075, 1.895, 0.495, 1.4825, 0, 0.9875, 0.0825, 1.07, 0.165, 1.1525, 0.2475, 1.235, 0.33, 1.3175, 0.4125, 1.4, 0.5775, 1.565, 0.66, 1.6475, 0.7425, 1.73, 0.825, 1.8125, 0.9075, 1.895, 0.495, 1.4825, 0, 0.9875, 0.0825, 1.07, 0.165, 1.1525, 0.2475, 1.235, 0.33, 1.3175, 0.4125, 1.4, 0.5775, 1.565, 0.66, 1.6475, 0.7425, 1.73, 0.825, 1.8125, 0.9075, 1.895, 0.495],
  "SoftwareVersions": "syngo MR E11",
  "SpacingBetweenSlices": 2,
  "StationName": "AWP166078",
  "TaskName": "action",
  "TotalReadoutTime": 0.0534586,
  "TxRefAmp": 228.896,
  "dcmmeta_affine": [
    [-2.0, 0.0, 0.0, 100.67796325683594],
    [0.0, 1.9795525074005127, -0.28525787591934204, -82.527587890625],
    [0.0, 0.28525787591934204, 1.9795523881912231, -74.37281036376953],
    [0.0, 0.0, 0.0, 1.0]
],
  "dcmmeta_reorient_transform": [
    [0.0, -1.0, 0.0, 99.0],
    [1.0, 0.0, 0.0, 0.0],
    [0.0, 0.0, 1.0, 0.0],
    [0.0, 0.0, 0.0, 1.0]
],
  "dcmmeta_shape": [100, 100, 72, 156],
  "dcmmeta_slice_dim": 2,
  "dcmmeta_version": 0.6,
  "global": {
    "const": {
      "AcquisitionMatrix": [100, 0, 0, 100],
      "AngioFlag": "N",
      "BitsAllocated": 16,
      "BitsStored": 12,
      "BodyPartExamined": "BRAIN",
      "Columns": 900,
      "EchoNumbers": 1,
      "EchoTime": 34.0,
      "EchoTrainLength": 100,
      "FlipAngle": 90.0,
      "HighBit": 11,
      "ImageOrientationPatient": [1.0, 0.0, 0.0, 0.0, 0.98977622990198, -0.1426289406854],
      "ImagePositionPatient": [-900.67796611786, -905.26908687699, 67.970870682995],
      "ImageType": [
        "ORIGINAL",
        "PRIMARY",
        "M",
        "ND",
        "MOSAIC"
],
      "ImagedNucleus": "1H",
      "ImagingFrequency": 123.257691,
      "InPlanePhaseEncodingDirection": "COL",
      "MRAcquisitionType": "2D",
      "MagneticFieldStrength": 3.0,
      "Manufacturer": "SIEMENS",
      "ManufacturerModelName": "Prisma",
      "Modality": "MR",
      "NumberOfAverages": 1.0,
      "NumberOfPhaseEncodingSteps": 100,
      "PercentPhaseFieldOfView": 100.0,
      "PercentSampling": 100.0,
      "PerformedProcedureStepStartTime": "142706.745000",
      "PhotometricInterpretation": "MONOCHROME2",
      "PixelBandwidth": 2380.0,
      "PixelRepresentation": 0,
      "PixelSpacing": [2.0, 2.0],
      "ProtocolName": "bold_100x100_s3_2x2x2_static_156",
      "RepetitionTime": 2000.0,
      "Rows": 900,
      "SAR": 0.07288118495508,
      "SamplesPerPixel": 1,
      "ScanOptions": "FS",
      "ScanningSequence": "EP",
      "SequenceName": "*epfid2d1_100",
      "SequenceVariant": "SK",
      "SeriesDescription": "bold_100x100_s3_2x2x2_static_156",
      "SeriesNumber": 11,
      "SeriesTime": "151101.109000",
      "SliceLocation": -61.841618768707,
      "SliceThickness": 2.0,
      "SmallestImagePixelValue": 0,
      "SoftwareVersions": "syngo MR E11",
      "SpacingBetweenSlices": 1.999999955755,
      "SpecificCharacterSet": "ISO_IR 100",
      "StudyID": "1",
      "StudyTime": "142706.674000",
      "TransmitCoilName": "Body",
      "VariableFlipAngleFlag": "N",
      "WindowCenterWidthExplanation": "Algo1",
      "dBdt": 0.0},
    "slices": {}
  },
  "time": {
    "samples": {
      "AcquisitionNumber": [1, 2, 3, 4, 5, 6, 7, 8, 9, 10, 11, 12, 13, 14, 15, 16, 17, 18, 19, 20, 21, 22, 23, 24, 25, 26, 27, 28, 29, 30, 31, 32, 33, 34, 35, 36, 37, 38, 39, 40, 41, 42, 43, 44, 45, 46, 47, 48, 49, 50, 51, 52, 53, 54, 55, 56, 57, 58, 59, 60, 61, 62, 63, 64, 65, 66, 67, 68, 69, 70, 71, 72, 73, 74, 75, 76, 77, 78, 79, 80, 81, 82, 83, 84, 85, 86, 87, 88, 89, 90, 91, 92, 93, 94, 95, 96, 97, 98, 99, 100, 101, 102, 103, 104, 105, 106, 107, 108, 109, 110, 111, 112, 113, 114, 115, 116, 117, 118, 119, 120, 121, 122, 123, 124, 125, 126, 127, 128, 129, 130, 131, 132, 133, 134, 135, 136, 137, 138, 139, 140, 141, 142, 143, 144, 145, 146, 147, 148, 149, 150, 151, 152, 153, 154, 155, 156],
      "AcquisitionTime": ["151058.710000", "151100.710000", "151102.710000", "151104.710000", "151106.710000", "151108.710000", "151110.710000", "151112.710000", "151114.710000", "151116.710000", "151118.710000", "151120.710000", "151122.710000", "151124.710000", "151126.710000", "151128.710000", "151130.710000", "151132.710000", "151134.710000", "151136.710000", "151138.710000", "151140.710000", "151142.710000", "151144.710000", "151146.710000", "151148.710000", "151150.710000", "151152.710000", "151154.710000", "151156.710000", "151158.710000", "151200.710000", "151202.710000", "151204.710000", "151206.710000", "151208.710000", "151210.710000", "151212.710000", "151214.710000", "151216.710000", "151218.710000", "151220.710000", "151222.710000", "151224.710000", "151226.710000", "151228.710000", "151230.710000", "151232.710000", "151234.710000", "151236.710000", "151238.710000", "151240.710000", "151242.710000", "151244.710000", "151246.710000", "151248.710000", "151250.710000", "151252.710000", "151254.710000", "151256.710000", "151258.710000", "151300.710000", "151302.710000", "151304.710000", "151306.710000", "151308.710000", "151310.710000", "151312.710000", "151314.710000", "151316.710000", "151318.710000", "151320.710000", "151322.710000", "151324.710000", "151326.710000", "151328.710000", "151330.710000", "151332.710000", "151334.710000", "151336.710000", "151338.710000", "151340.710000", "151342.710000", "151344.710000", "151346.710000", "151348.710000", "151350.710000", "151352.710000", "151354.710000", "151356.710000", "151358.710000", "151400.710000", "151402.710000", "151404.710000", "151406.710000", "151408.710000", "151410.710000", "151412.710000", "151414.710000", "151416.710000", "151418.710000", "151420.710000", "151422.710000", "151424.710000", "151426.710000", "151428.710000", "151430.710000", "151432.710000", "151434.710000", "151436.710000", "151438.710000", "151440.710000", "151442.710000", "151444.710000", "151446.710000", "151448.710000", "151450.710000", "151452.710000", "151454.710000", "151456.710000", "151458.710000", "151500.710000", "151502.710000", "151504.710000", "151506.710000", "151508.710000", "151510.710000", "151512.710000", "151514.710000", "151516.710000", "151518.710000", "151520.710000", "151522.710000", "151524.710000", "151526.710000", "151528.710000", "151530.710000", "151532.710000", "151534.710000", "151536.710000", "151538.710000", "151540.710000", "151542.710000", "151544.710000", "151546.710000", "151548.710000", "151550.710000", "151552.710000", "151554.710000", "151556.710000", "151558.710000", "151600.710000", "151602.710000", "151604.710000", "151606.710000", "151608.710000"],
      "ContentTime": ["151101.113000", "151102.607000", "151104.608000", "151106.607000", "151108.606000", "151110.607000", "151112.607000", "151114.608000", "151116.607000", "151118.607000", "151120.607000", "151122.607000", "151124.606000", "151126.606000", "151128.606000", "151130.606000", "151132.607000", "151134.608000", "151136.607000", "151138.607000", "151140.606000", "151142.606000", "151144.607000", "151146.606000", "151148.607000", "151150.607000", "151152.607000", "151154.608000", "151156.608000", "151158.607000", "151200.607000", "151202.606000", "151204.607000", "151206.607000", "151208.608000", "151210.607000", "151212.607000", "151214.607000", "151216.606000", "151218.607000", "151220.606000", "151222.607000", "151224.608000", "151226.607000", "151228.608000", "151230.608000", "151232.607000", "151234.606000", "151236.607000", "151238.606000", "151240.606000", "151242.608000", "151244.607000", "151246.607000", "151248.607000", "151250.607000", "151252.606000", "151254.607000", "151256.607000", "151258.607000", "151300.608000", "151302.608000", "151304.607000", "151306.607000", "151308.607000", "151310.606000", "151312.607000", "151314.607000", "151316.607000", "151318.607000", "151320.608000", "151322.608000", "151324.608000", "151326.606000", "151328.606000", "151330.606000", "151332.606000", "151334.607000", "151336.607000", "151338.607000", "151340.607000", "151342.608000", "151344.607000", "151346.606000", "151348.607000", "151350.607000", "151352.608000", "151354.608000", "151356.607000", "151358.608000", "151400.606000", "151402.606000", "151404.606000", "151406.606000", "151408.607000", "151410.608000", "151412.608000", "151414.608000", "151416.608000", "151418.607000", "151420.606000", "151422.607000", "151424.607000", "151426.608000", "151428.607000", "151430.608000", "151432.608000", "151434.608000", "151436.607000", "151438.606000", "151440.607000", "151442.607000", "151444.608000", "151446.607000", "151448.608000", "151450.607000", "151452.607000", "151454.607000", "151456.606000", "151458.606000", "151500.607000", "151502.608000", "151504.607000", "151506.608000", "151508.608000", "151510.607000", "151512.607000", "151514.607000", "151516.606000", "151518.608000", "151520.607000", "151522.608000", "151524.607000", "151526.608000", "151528.606000", "151530.607000", "151532.607000", "151534.607000", "151536.607000", "151538.608000", "151540.608000", "151542.608000", "151544.608000", "151546.606000", "151548.606000", "151550.606000", "151552.606000", "151554.608000", "151556.608000", "151558.608000", "151600.607000", "151602.607000", "151604.607000", "151606.607000", "151608.606000", "151610.245000"],
      "InstanceCreationTime": ["151101.113000", "151102.607000", "151104.608000", "151106.607000", "151108.606000", "151110.607000", "151112.607000", "151114.608000", "151116.607000", "151118.607000", "151120.607000", "151122.607000", "151124.606000", "151126.606000", "151128.606000", "151130.606000", "151132.607000", "151134.608000", "151136.607000", "151138.607000", "151140.606000", "151142.606000", "151144.607000", "151146.606000", "151148.607000", "151150.607000", "151152.607000", "151154.608000", "151156.608000", "151158.607000", "151200.607000", "151202.606000", "151204.607000", "151206.607000", "151208.608000", "151210.607000", "151212.607000", "151214.607000", "151216.606000", "151218.607000", "151220.606000", "151222.607000", "151224.608000", "151226.607000", "151228.608000", "151230.608000", "151232.607000", "151234.606000", "151236.607000", "151238.606000", "151240.606000", "151242.608000", "151244.607000", "151246.607000", "151248.607000", "151250.607000", "151252.606000", "151254.607000", "151256.607000", "151258.607000", "151300.608000", "151302.608000", "151304.607000", "151306.607000", "151308.607000", "151310.606000", "151312.607000", "151314.607000", "151316.607000", "151318.607000", "151320.608000", "151322.608000", "151324.608000", "151326.606000", "151328.606000", "151330.606000", "151332.606000", "151334.607000", "151336.607000", "151338.607000", "151340.607000", "151342.608000", "151344.607000", "151346.606000", "151348.607000", "151350.607000", "151352.608000", "151354.608000", "151356.607000", "151358.608000", "151400.606000", "151402.606000", "151404.606000", "151406.606000", "151408.607000", "151410.608000", "151412.608000", "151414.608000", "151416.608000", "151418.607000", "151420.606000", "151422.607000", "151424.607000", "151426.608000", "151428.607000", "151430.608000", "151432.608000", "151434.608000", "151436.607000", "151438.606000", "151440.607000", "151442.607000", "151444.608000", "151446.607000", "151448.608000", "151450.607000", "151452.607000", "151454.607000", "151456.606000", "151458.606000", "151500.607000", "151502.608000", "151504.607000", "151506.608000", "151508.608000", "151510.607000", "151512.607000", "151514.607000", "151516.606000", "151518.608000", "151520.607000", "151522.608000", "151524.607000", "151526.608000", "151528.606000", "151530.607000", "151532.607000", "151534.607000", "151536.607000", "151538.608000", "151540.608000", "151542.608000", "151544.608000", "151546.606000", "151548.606000", "151550.606000", "151552.606000", "151554.608000", "151556.608000", "151558.608000", "151600.607000", "151602.607000", "151604.607000", "151606.607000", "151608.606000", "151610.245000"],
      "InstanceNumber": [1, 2, 3, 4, 5, 6, 7, 8, 9, 10, 11, 12, 13, 14, 15, 16, 17, 18, 19, 20, 21, 22, 23, 24, 25, 26, 27, 28, 29, 30, 31, 32, 33, 34, 35, 36, 37, 38, 39, 40, 41, 42, 43, 44, 45, 46, 47, 48, 49, 50, 51, 52, 53, 54, 55, 56, 57, 58, 59, 60, 61, 62, 63, 64, 65, 66, 67, 68, 69, 70, 71, 72, 73, 74, 75, 76, 77, 78, 79, 80, 81, 82, 83, 84, 85, 86, 87, 88, 89, 90, 91, 92, 93, 94, 95, 96, 97, 98, 99, 100, 101, 102, 103, 104, 105, 106, 107, 108, 109, 110, 111, 112, 113, 114, 115, 116, 117, 118, 119, 120, 121, 122, 123, 124, 125, 126, 127, 128, 129, 130, 131, 132, 133, 134, 135, 136, 137, 138, 139, 140, 141, 142, 143, 144, 145, 146, 147, 148, 149, 150, 151, 152, 153, 154, 155, 156],
      "LargestImagePixelValue": [4007, 3950, 3900, 3887, 3863, 3873, 3874, 3885, 3858, 3893, 3878, 3868, 3870, 3881, 3892, 3896, 3891, 3901, 3911, 3893, 3864, 3902, 3916, 3874, 3880, 3885, 3910, 3896, 3880, 3867, 3869, 3906, 3881, 3907, 3916, 3899, 3890, 3910, 3920, 3898, 3914, 3919, 3893, 3908, 3905, 3914, 3919, 3905, 3913, 3935, 3937, 3895, 3920, 3915, 3906, 3901, 3929, 3906, 3902, 3883, 3899, 3926, 3908, 3920, 3932, 3890, 3914, 3940, 3905, 3875, 3904, 3920, 3931, 3960, 3926, 3923, 3938, 3943, 3923, 3901, 3916, 3928, 3945, 3965, 3917, 3930, 3941, 3940, 3903, 3879, 3899, 3934, 3905, 3902, 3939, 3906, 3919, 3958, 3915, 3929, 3901, 3928, 3921, 3932, 3936, 3907, 3927, 3932, 3947, 3931, 3935, 3934, 3916, 3940, 3916, 3905, 3923, 3922, 3924, 3914, 3922, 3917, 3921, 3932, 3918, 3933, 3953, 3988, 3937, 3940, 3929, 3937, 3917, 3943, 3957, 3950, 3941, 3923, 3922, 3948, 3937, 3931, 3965, 3960, 3969, 3968, 3964, 3948, 3939, 3962, 3934, 3970, 3925, 3933, 3928, 3934],
      "WindowCenter": [817.0, 816.0, 815.0, 814.0, 813.0, 813.0, 813.0, 813.0, 814.0, 814.0, 814.0, 813.0, 812.0, 812.0, 812.0, 812.0, 812.0, 811.0, 810.0, 809.0, 811.0, 815.0, 814.0, 810.0, 810.0, 810.0, 811.0, 810.0, 810.0, 809.0, 810.0, 811.0, 811.0, 811.0, 811.0, 812.0, 812.0, 812.0, 811.0, 811.0, 812.0, 813.0, 812.0, 811.0, 812.0, 813.0, 812.0, 812.0, 813.0, 813.0, 813.0, 813.0, 813.0, 813.0, 812.0, 812.0, 812.0, 812.0, 811.0, 812.0, 812.0, 813.0, 813.0, 812.0, 812.0, 812.0, 812.0, 813.0, 812.0, 811.0, 811.0, 812.0, 814.0, 813.0, 812.0, 812.0, 814.0, 814.0, 811.0, 810.0, 811.0, 813.0, 813.0, 813.0, 813.0, 813.0, 813.0, 813.0, 812.0, 812.0, 812.0, 813.0, 813.0, 813.0, 813.0, 812.0, 813.0, 814.0, 813.0, 812.0, 812.0, 812.0, 811.0, 811.0, 811.0, 810.0, 811.0, 813.0, 813.0, 812.0, 812.0, 812.0, 812.0, 812.0, 811.0, 811.0, 812.0, 813.0, 813.0, 814.0, 813.0, 812.0, 813.0, 813.0, 813.0, 814.0, 814.0, 814.0, 814.0, 812.0, 813.0, 813.0, 814.0, 815.0, 814.0, 812.0, 812.0, 812.0, 812.0, 812.0, 813.0, 813.0, 813.0, 813.0, 813.0, 813.0, 813.0, 814.0, 813.0, 813.0, 812.0, 812.0, 811.0, 811.0, 812.0, 811.0],
      "WindowWidth": [1784.0, 1780.0, 1778.0, 1776.0, 1773.0, 1772.0, 1772.0, 1773.0, 1774.0, 1776.0, 1775.0, 1772.0, 1770.0, 1769.0, 1769.0, 1769.0, 1769.0, 1767.0, 1765.0, 1762.0, 1766.0, 1778.0, 1774.0, 1764.0, 1763.0, 1765.0, 1767.0, 1765.0, 1763.0, 1762.0, 1764.0, 1767.0, 1768.0, 1766.0, 1767.0, 1769.0, 1770.0, 1768.0, 1767.0, 1767.0, 1769.0, 1773.0, 1771.0, 1767.0, 1768.0, 1771.0, 1770.0, 1769.0, 1771.0, 1772.0, 1774.0, 1772.0, 1771.0, 1771.0, 1771.0, 1769.0, 1769.0, 1769.0, 1767.0, 1768.0, 1770.0, 1771.0, 1772.0, 1771.0, 1769.0, 1769.0, 1770.0, 1771.0, 1771.0, 1767.0, 1767.0, 1771.0, 1775.0, 1774.0, 1771.0, 1770.0, 1775.0, 1775.0, 1768.0, 1765.0, 1768.0, 1772.0, 1772.0, 1773.0, 1772.0, 1771.0, 1772.0, 1772.0, 1770.0, 1769.0, 1770.0, 1773.0, 1773.0, 1772.0, 1771.0, 1768.0, 1772.0, 1774.0, 1772.0, 1769.0, 1769.0, 1770.0, 1768.0, 1767.0, 1767.0, 1764.0, 1767.0, 1771.0, 1771.0, 1769.0, 1768.0, 1769.0, 1770.0, 1769.0, 1766.0, 1768.0, 1770.0, 1772.0, 1772.0, 1773.0, 1772.0, 1770.0, 1771.0, 1771.0, 1772.0, 1774.0, 1774.0, 1775.0, 1773.0, 1769.0, 1771.0, 1772.0, 1774.0, 1777.0, 1774.0, 1769.0, 1768.0, 1770.0, 1770.0, 1770.0, 1772.0, 1771.0, 1772.0, 1771.0, 1771.0, 1772.0, 1773.0, 1774.0, 1773.0, 1772.0, 1770.0, 1769.0, 1766.0, 1767.0, 1768.0, 1768.0]
    },
    "slices": {}
  }
}