{
  "AcquisitionMatrixPE": 100,
  "AcquisitionNumber": 1,
  "AcquisitionTime": "14:29:57.145000",
  "BandwidthPerPixelPhaseEncode": 18.519,
  "BaseResolution": 100,
  "BodyPartExamined": "BRAIN",
  "CoilCombinationMethod": "Sum of Squares",
  "ConsistencyInfo": "N4_VE11C_LATEST_20160120",
  "ConversionSoftware": "dcm2niix",
  "ConversionSoftwareVersion": "v1.0.20211006",
  "DerivedVendorReportedEchoSpacing": 0.000539986,
  "DeviceSerialNumber": "166078",
  "DwellTime": 2.1e-06,
  "EchoTime": 0.034,
  "EchoTrainLength": 100,
  "EffectiveEchoSpacing": 0.000539986,
  "FlipAngle": 90,
  "ImageOrientationPatientDICOM": [1, 0, 0, 0, 0.989776, -0.142629],
  "ImageOrientationText": "Tra>Cor(-8.2)",
  "ImageType": [
    "ORIGINAL",
    "PRIMARY",
    "M",
    "ND",
    "MOSAIC"
],
  "ImagingFrequency": 123.258,
  "InPlanePhaseEncodingDirectionDICOM": "COL",
  "InstitutionAddress": "Street StreetNo,Bei Jing,District,CN,ZIP",
  "InstitutionName": "BeiJing Normal University",
  "InstitutionalDepartmentName": "Department",
  "MRAcquisitionType": "2D",
  "MagneticFieldStrength": 3,
  "Manufacturer": "Siemens",
  "ManufacturersModelName": "Prisma",
  "Modality": "MR",
  "MultibandAccelerationFactor": 3,
  "PartialFourier": 1,
  "PatientPosition": "HFS",
  "PercentPhaseFOV": 100,
  "PercentSampling": 100,
  "PhaseEncodingDirection": "j-",
  "PhaseEncodingSteps": 100,
  "PhaseResolution": 1,
  "PixelBandwidth": 2380,
  "ProcedureStepDescription": "BNU_P2018_64CH^Zhen.ZongLei",
  "ProtocolName": "bold_100x100_s3_2x2x2_static_156",
  "PulseSequenceDetails": "%SiemensSeq%\\ep2d_bold",
  "ReceiveCoilActiveElements": "HC1-7;NC1",
  "ReceiveCoilName": "HeadNeck_64",
  "ReconMatrixPE": 100,
  "RefLinesPE": 32,
  "RepetitionTime": 2,
  "SAR": 0.0728812,
  "ScanOptions": "FS",
  "ScanningSequence": "EP",
  "SequenceName": "*epfid2d1_100",
  "SequenceVariant": "SK",
  "SeriesDescription": "bold_100x100_s3_2x2x2_static_156",
  "SeriesNumber": 3,
  "ShimSetting": [-5482, -11522, -1241, 315, -67, -371, -161, 33],
  "SliceThickness": 2,
  "SliceTiming": [1.4825, 0, 0.9875, 0.0825, 1.07, 0.165, 1.1525, 0.245, 1.235, 0.3275, 1.3175, 0.41, 1.4, 0.575, 1.565, 0.6575, 1.6475, 0.74, 1.73, 0.8225, 1.8125, 0.905, 1.895, 0.4925, 1.4825, 0, 0.9875, 0.0825, 1.07, 0.165, 1.1525, 0.245, 1.235, 0.3275, 1.3175, 0.41, 1.4, 0.575, 1.565, 0.6575, 1.6475, 0.74, 1.73, 0.8225, 1.8125, 0.905, 1.895, 0.4925, 1.4825, 0, 0.9875, 0.0825, 1.07, 0.165, 1.1525, 0.245, 1.235, 0.3275, 1.3175, 0.41, 1.4, 0.575, 1.565, 0.6575, 1.6475, 0.74, 1.73, 0.8225, 1.8125, 0.905, 1.895, 0.4925],
  "SoftwareVersions": "syngo MR E11",
  "SpacingBetweenSlices": 2,
  "StationName": "AWP166078",
  "TaskName": "action",
  "TotalReadoutTime": 0.0534586,
  "TxRefAmp": 228.896,
  "dcmmeta_affine": [
    [-2.0, 0.0, 0.0, 100.67796325683594],
    [0.0, 1.9795525074005127, -0.28525787591934204, -82.527587890625],
    [0.0, 0.28525787591934204, 1.9795523881912231, -74.37281036376953],
    [0.0, 0.0, 0.0, 1.0]
],
  "dcmmeta_reorient_transform": [
    [0.0, -1.0, 0.0, 99.0],
    [1.0, 0.0, 0.0, 0.0],
    [0.0, 0.0, 1.0, 0.0],
    [0.0, 0.0, 0.0, 1.0]
],
  "dcmmeta_shape": [100, 100, 72, 156],
  "dcmmeta_slice_dim": 2,
  "dcmmeta_version": 0.6,
  "global": {
    "const": {
      "AcquisitionMatrix": [100, 0, 0, 100],
      "AngioFlag": "N",
      "BitsAllocated": 16,
      "BitsStored": 12,
      "BodyPartExamined": "BRAIN",
      "Columns": 900,
      "EchoNumbers": 1,
      "EchoTime": 34.0,
      "EchoTrainLength": 100,
      "FlipAngle": 90.0,
      "HighBit": 11,
      "ImageOrientationPatient": [1.0, 0.0, 0.0, 0.0, 0.98977622990198, -0.1426289406854],
      "ImagePositionPatient": [-900.67796611786, -905.26908687699, 67.970870682995],
      "ImageType": [
        "ORIGINAL",
        "PRIMARY",
        "M",
        "ND",
        "MOSAIC"
],
      "ImagedNucleus": "1H",
      "ImagingFrequency": 123.257688,
      "InPlanePhaseEncodingDirection": "COL",
      "MRAcquisitionType": "2D",
      "MagneticFieldStrength": 3.0,
      "Manufacturer": "SIEMENS",
      "ManufacturerModelName": "Prisma",
      "Modality": "MR",
      "NumberOfAverages": 1.0,
      "NumberOfPhaseEncodingSteps": 100,
      "PercentPhaseFieldOfView": 100.0,
      "PercentSampling": 100.0,
      "PerformedProcedureStepStartTime": "142706.745000",
      "PhotometricInterpretation": "MONOCHROME2",
      "PixelBandwidth": 2380.0,
      "PixelRepresentation": 0,
      "PixelSpacing": [2.0, 2.0],
      "ProtocolName": "bold_100x100_s3_2x2x2_static_156",
      "RepetitionTime": 2000.0,
      "Rows": 900,
      "SAR": 0.07288118495508,
      "SamplesPerPixel": 1,
      "ScanOptions": "FS",
      "ScanningSequence": "EP",
      "SequenceName": "*epfid2d1_100",
      "SequenceVariant": "SK",
      "SeriesDescription": "bold_100x100_s3_2x2x2_static_156",
      "SeriesNumber": 3,
      "SeriesTime": "142959.392000",
      "SliceLocation": -61.841618768707,
      "SliceThickness": 2.0,
      "SmallestImagePixelValue": 0,
      "SoftwareVersions": "syngo MR E11",
      "SpacingBetweenSlices": 1.999999955755,
      "SpecificCharacterSet": "ISO_IR 100",
      "StudyID": "1",
      "StudyTime": "142706.674000",
      "TransmitCoilName": "Body",
      "VariableFlipAngleFlag": "N",
      "WindowCenterWidthExplanation": "Algo1",
      "dBdt": 0.0},
    "slices": {}
  },
  "time": {
    "samples": {
      "AcquisitionNumber": [1, 2, 3, 4, 5, 6, 7, 8, 9, 10, 11, 12, 13, 14, 15, 16, 17, 18, 19, 20, 21, 22, 23, 24, 25, 26, 27, 28, 29, 30, 31, 32, 33, 34, 35, 36, 37, 38, 39, 40, 41, 42, 43, 44, 45, 46, 47, 48, 49, 50, 51, 52, 53, 54, 55, 56, 57, 58, 59, 60, 61, 62, 63, 64, 65, 66, 67, 68, 69, 70, 71, 72, 73, 74, 75, 76, 77, 78, 79, 80, 81, 82, 83, 84, 85, 86, 87, 88, 89, 90, 91, 92, 93, 94, 95, 96, 97, 98, 99, 100, 101, 102, 103, 104, 105, 106, 107, 108, 109, 110, 111, 112, 113, 114, 115, 116, 117, 118, 119, 120, 121, 122, 123, 124, 125, 126, 127, 128, 129, 130, 131, 132, 133, 134, 135, 136, 137, 138, 139, 140, 141, 142, 143, 144, 145, 146, 147, 148, 149, 150, 151, 152, 153, 154, 155, 156],
      "AcquisitionTime": ["142957.145000", "142959.145000", "143001.145000", "143003.145000", "143005.145000", "143007.145000", "143009.145000", "143011.145000", "143013.145000", "143015.145000", "143017.145000", "143019.145000", "143021.145000", "143023.145000", "143025.145000", "143027.145000", "143029.145000", "143031.145000", "143033.145000", "143035.145000", "143037.145000", "143039.145000", "143041.145000", "143043.145000", "143045.145000", "143047.145000", "143049.145000", "143051.145000", "143053.145000", "143055.145000", "143057.145000", "143059.145000", "143101.145000", "143103.145000", "143105.145000", "143107.145000", "143109.145000", "143111.145000", "143113.145000", "143115.145000", "143117.145000", "143119.145000", "143121.145000", "143123.145000", "143125.145000", "143127.145000", "143129.145000", "143131.145000", "143133.145000", "143135.145000", "143137.145000", "143139.145000", "143141.145000", "143143.145000", "143145.145000", "143147.145000", "143149.145000", "143151.145000", "143153.145000", "143155.145000", "143157.145000", "143159.145000", "143201.145000", "143203.145000", "143205.145000", "143207.145000", "143209.145000", "143211.145000", "143213.145000", "143215.145000", "143217.145000", "143219.145000", "143221.145000", "143223.145000", "143225.145000", "143227.145000", "143229.145000", "143231.145000", "143233.145000", "143235.145000", "143237.145000", "143239.145000", "143241.145000", "143243.145000", "143245.145000", "143247.145000", "143249.145000", "143251.145000", "143253.145000", "143255.145000", "143257.145000", "143259.145000", "143301.145000", "143303.145000", "143305.145000", "143307.145000", "143309.145000", "143311.145000", "143313.145000", "143315.145000", "143317.145000", "143319.145000", "143321.145000", "143323.145000", "143325.145000", "143327.145000", "143329.145000", "143331.145000", "143333.145000", "143335.145000", "143337.145000", "143339.145000", "143341.145000", "143343.145000", "143345.145000", "143347.145000", "143349.145000", "143351.145000", "143353.145000", "143355.145000", "143357.145000", "143359.145000", "143401.145000", "143403.145000", "143405.145000", "143407.145000", "143409.145000", "143411.145000", "143413.145000", "143415.145000", "143417.145000", "143419.145000", "143421.145000", "143423.145000", "143425.145000", "143427.145000", "143429.145000", "143431.145000", "143433.145000", "143435.145000", "143437.145000", "143439.145000", "143441.145000", "143443.145000", "143445.145000", "143447.145000", "143449.145000", "143451.145000", "143453.145000", "143455.145000", "143457.145000", "143459.145000", "143501.145000", "143503.145000", "143505.145000", "143507.145000"],
      "ContentTime": ["142959.396000", "143000.891000", "143002.891000", "143004.892000", "143006.892000", "143008.893000", "143010.893000", "143012.892000", "143014.893000", "143016.892000", "143018.891000", "143020.891000", "143022.891000", "143024.891000", "143026.893000", "143028.892000", "143030.892000", "143032.892000", "143034.891000", "143036.892000", "143038.891000", "143040.891000", "143042.892000", "143044.893000", "143046.893000", "143048.893000", "143050.892000", "143052.891000", "143054.892000", "143056.892000", "143058.891000", "143100.893000", "143102.892000", "143104.893000", "143106.893000", "143108.892000", "143110.891000", "143112.892000", "143114.891000", "143116.891000", "143118.892000", "143120.892000", "143122.893000", "143124.892000", "143126.891000", "143128.892000", "143130.891000", "143132.891000", "143134.892000", "143136.893000", "143138.892000", "143140.893000", "143142.891000", "143144.891000", "143146.891000", "143148.891000", "143150.892000", "143152.891000", "143154.892000", "143156.892000", "143158.892000", "143200.892000", "143202.891000", "143204.891000", "143206.891000", "143208.891000", "143210.893000", "143212.893000", "143214.893000", "143216.893000", "143218.892000", "143220.891000", "143222.891000", "143224.891000", "143226.891000", "143228.893000", "143230.892000", "143232.893000", "143234.892000", "143236.891000", "143238.891000", "143240.891000", "143242.891000", "143244.891000", "143246.892000", "143248.893000", "143250.893000", "143252.892000", "143254.891000", "143256.896000", "143258.892000", "143300.891000", "143302.892000", "143304.892000", "143306.893000", "143308.892000", "143310.892000", "143312.892000", "143314.891000", "143316.891000", "143318.892000", "143320.893000", "143322.893000", "143324.892000", "143326.892000", "143328.891000", "143330.891000", "143332.892000", "143334.891000", "143336.892000", "143338.893000", "143340.893000", "143342.892000", "143344.893000", "143346.892000", "143348.891000", "143350.891000", "143352.891000", "143354.892000", "143356.892000", "143358.893000", "143400.893000", "143402.891000", "143404.891000", "143406.891000", "143408.891000", "143410.891000", "143412.891000", "143414.892000", "143416.893000", "143418.893000", "143420.892000", "143422.891000", "143424.892000", "143426.891000", "143428.891000", "143430.892000", "143432.893000", "143434.892000", "143436.892000", "143438.911000", "143440.892000", "143442.891000", "143444.891000", "143446.892000", "143448.892000", "143450.892000", "143452.893000", "143454.893000", "143456.892000", "143458.892000", "143500.891000", "143502.892000", "143504.891000", "143506.892000", "143508.597000"],
      "InstanceCreationTime": ["142959.396000", "143000.891000", "143002.891000", "143004.892000", "143006.892000", "143008.893000", "143010.893000", "143012.892000", "143014.893000", "143016.892000", "143018.891000", "143020.891000", "143022.891000", "143024.891000", "143026.893000", "143028.892000", "143030.892000", "143032.892000", "143034.891000", "143036.892000", "143038.891000", "143040.891000", "143042.892000", "143044.893000", "143046.893000", "143048.893000", "143050.892000", "143052.891000", "143054.892000", "143056.892000", "143058.891000", "143100.893000", "143102.892000", "143104.893000", "143106.893000", "143108.892000", "143110.891000", "143112.892000", "143114.891000", "143116.891000", "143118.892000", "143120.892000", "143122.893000", "143124.892000", "143126.891000", "143128.892000", "143130.891000", "143132.891000", "143134.892000", "143136.893000", "143138.892000", "143140.893000", "143142.891000", "143144.891000", "143146.891000", "143148.891000", "143150.892000", "143152.891000", "143154.892000", "143156.892000", "143158.892000", "143200.892000", "143202.891000", "143204.891000", "143206.891000", "143208.891000", "143210.893000", "143212.893000", "143214.893000", "143216.893000", "143218.892000", "143220.891000", "143222.891000", "143224.891000", "143226.891000", "143228.893000", "143230.892000", "143232.893000", "143234.892000", "143236.891000", "143238.891000", "143240.891000", "143242.891000", "143244.891000", "143246.892000", "143248.893000", "143250.893000", "143252.892000", "143254.891000", "143256.896000", "143258.892000", "143300.891000", "143302.892000", "143304.892000", "143306.893000", "143308.892000", "143310.892000", "143312.892000", "143314.891000", "143316.891000", "143318.892000", "143320.893000", "143322.893000", "143324.892000", "143326.892000", "143328.891000", "143330.891000", "143332.892000", "143334.891000", "143336.892000", "143338.893000", "143340.893000", "143342.892000", "143344.893000", "143346.892000", "143348.891000", "143350.891000", "143352.891000", "143354.892000", "143356.892000", "143358.893000", "143400.893000", "143402.891000", "143404.891000", "143406.891000", "143408.891000", "143410.891000", "143412.891000", "143414.892000", "143416.893000", "143418.893000", "143420.892000", "143422.891000", "143424.892000", "143426.891000", "143428.891000", "143430.892000", "143432.893000", "143434.892000", "143436.892000", "143438.911000", "143440.892000", "143442.891000", "143444.891000", "143446.892000", "143448.892000", "143450.892000", "143452.893000", "143454.893000", "143456.892000", "143458.892000", "143500.891000", "143502.892000", "143504.891000", "143506.892000", "143508.597000"],
      "InstanceNumber": [1, 2, 3, 4, 5, 6, 7, 8, 9, 10, 11, 12, 13, 14, 15, 16, 17, 18, 19, 20, 21, 22, 23, 24, 25, 26, 27, 28, 29, 30, 31, 32, 33, 34, 35, 36, 37, 38, 39, 40, 41, 42, 43, 44, 45, 46, 47, 48, 49, 50, 51, 52, 53, 54, 55, 56, 57, 58, 59, 60, 61, 62, 63, 64, 65, 66, 67, 68, 69, 70, 71, 72, 73, 74, 75, 76, 77, 78, 79, 80, 81, 82, 83, 84, 85, 86, 87, 88, 89, 90, 91, 92, 93, 94, 95, 96, 97, 98, 99, 100, 101, 102, 103, 104, 105, 106, 107, 108, 109, 110, 111, 112, 113, 114, 115, 116, 117, 118, 119, 120, 121, 122, 123, 124, 125, 126, 127, 128, 129, 130, 131, 132, 133, 134, 135, 136, 137, 138, 139, 140, 141, 142, 143, 144, 145, 146, 147, 148, 149, 150, 151, 152, 153, 154, 155, 156],
      "LargestImagePixelValue": [4095, 4051, 4016, 3985, 3995, 3987, 3993, 3990, 4014, 3996, 4018, 3975, 4019, 4034, 4022, 4035, 4036, 4042, 4026, 4030, 4049, 4034, 4030, 4043, 4013, 4058, 4060, 4021, 4059, 4079, 4067, 4071, 4095, 4077, 4092, 4077, 4084, 4075, 4065, 4082, 4054, 4095, 4082, 4065, 4095, 4095, 4091, 4095, 4095, 4095, 4095, 4095, 4095, 4095, 4095, 4095, 4095, 4095, 4095, 4095, 4095, 4095, 4095, 4095, 4095, 4095, 4095, 4095, 4095, 4093, 4095, 4095, 4095, 4095, 4095, 4095, 4095, 4095, 4095, 4095, 4095, 4095, 4095, 4088, 4095, 4095, 4095, 4095, 4095, 4095, 4062, 4094, 4081, 4095, 4079, 4076, 4095, 4095, 4072, 4088, 4095, 4095, 4072, 4095, 4095, 4095, 4095, 4095, 4095, 4095, 4095, 4095, 4095, 4095, 4095, 4095, 4095, 4095, 4095, 4095, 4095, 4095, 4095, 4095, 4095, 4095, 4095, 4095, 4095, 4095, 4095, 4095, 4095, 4095, 4095, 4095, 4095, 4095, 4095, 4095, 4095, 4095, 4095, 4095, 4095, 4095, 4095, 4095, 4095, 4095, 4095, 4095, 4095, 4095, 4095, 4095],
      "WindowCenter": [810.0, 807.0, 805.0, 805.0, 805.0, 804.0, 804.0, 804.0, 805.0, 805.0, 805.0, 805.0, 805.0, 805.0, 803.0, 803.0, 802.0, 803.0, 802.0, 802.0, 802.0, 803.0, 803.0, 804.0, 804.0, 804.0, 804.0, 803.0, 803.0, 802.0, 801.0, 801.0, 802.0, 803.0, 803.0, 802.0, 802.0, 803.0, 802.0, 802.0, 802.0, 802.0, 802.0, 801.0, 802.0, 803.0, 804.0, 804.0, 803.0, 803.0, 804.0, 804.0, 804.0, 803.0, 803.0, 803.0, 804.0, 804.0, 803.0, 804.0, 805.0, 804.0, 803.0, 804.0, 804.0, 804.0, 803.0, 803.0, 804.0, 806.0, 805.0, 804.0, 804.0, 804.0, 804.0, 805.0, 806.0, 805.0, 803.0, 804.0, 804.0, 804.0, 805.0, 807.0, 807.0, 806.0, 806.0, 807.0, 807.0, 805.0, 803.0, 804.0, 806.0, 806.0, 805.0, 805.0, 806.0, 806.0, 805.0, 804.0, 805.0, 805.0, 805.0, 806.0, 806.0, 806.0, 806.0, 807.0, 808.0, 807.0, 807.0, 806.0, 807.0, 806.0, 806.0, 805.0, 806.0, 806.0, 805.0, 805.0, 806.0, 806.0, 806.0, 805.0, 806.0, 807.0, 805.0, 803.0, 804.0, 805.0, 806.0, 806.0, 807.0, 807.0, 807.0, 806.0, 806.0, 805.0, 804.0, 805.0, 806.0, 807.0, 807.0, 807.0, 807.0, 806.0, 805.0, 805.0, 806.0, 806.0, 805.0, 805.0, 804.0, 805.0, 807.0, 808.0],
      "WindowWidth": [1768.0, 1758.0, 1753.0, 1753.0, 1753.0, 1752.0, 1751.0, 1751.0, 1752.0, 1754.0, 1755.0, 1755.0, 1755.0, 1753.0, 1748.0, 1747.0, 1746.0, 1748.0, 1746.0, 1745.0, 1746.0, 1749.0, 1749.0, 1750.0, 1749.0, 1751.0, 1750.0, 1748.0, 1747.0, 1745.0, 1742.0, 1743.0, 1746.0, 1747.0, 1747.0, 1745.0, 1746.0, 1747.0, 1746.0, 1745.0, 1745.0, 1746.0, 1745.0, 1744.0, 1746.0, 1749.0, 1751.0, 1750.0, 1748.0, 1748.0, 1750.0, 1751.0, 1750.0, 1748.0, 1747.0, 1749.0, 1752.0, 1750.0, 1747.0, 1750.0, 1754.0, 1751.0, 1748.0, 1750.0, 1752.0, 1750.0, 1747.0, 1748.0, 1752.0, 1755.0, 1754.0, 1750.0, 1751.0, 1750.0, 1751.0, 1753.0, 1755.0, 1752.0, 1748.0, 1749.0, 1750.0, 1752.0, 1754.0, 1757.0, 1757.0, 1757.0, 1755.0, 1757.0, 1758.0, 1751.0, 1747.0, 1751.0, 1755.0, 1756.0, 1754.0, 1754.0, 1756.0, 1755.0, 1753.0, 1750.0, 1752.0, 1752.0, 1752.0, 1754.0, 1754.0, 1756.0, 1756.0, 1759.0, 1761.0, 1759.0, 1757.0, 1757.0, 1758.0, 1756.0, 1754.0, 1753.0, 1754.0, 1754.0, 1752.0, 1752.0, 1756.0, 1756.0, 1754.0, 1751.0, 1755.0, 1757.0, 1752.0, 1748.0, 1748.0, 1752.0, 1755.0, 1757.0, 1757.0, 1757.0, 1757.0, 1755.0, 1755.0, 1752.0, 1751.0, 1751.0, 1754.0, 1757.0, 1757.0, 1757.0, 1757.0, 1755.0, 1754.0, 1752.0, 1754.0, 1754.0, 1753.0, 1751.0, 1750.0, 1753.0, 1759.0, 1761.0]
    },
    "slices": {}
  }
}