{
  "AcquisitionMatrixPE": 100,
  "AcquisitionNumber": 1,
  "AcquisitionTime": "15:25:27.020000",
  "BandwidthPerPixelPhaseEncode": 18.519,
  "BaseResolution": 100,
  "BodyPartExamined": "BRAIN",
  "CoilCombinationMethod": "Sum of Squares",
  "ConsistencyInfo": "N4_VE11C_LATEST_20160120",
  "ConversionSoftware": "dcm2niix",
  "ConversionSoftwareVersion": "v1.0.20211006",
  "DerivedVendorReportedEchoSpacing": 0.000539986,
  "DeviceSerialNumber": "166078",
  "DwellTime": 2.1e-06,
  "EchoTime": 0.034,
  "EchoTrainLength": 100,
  "EffectiveEchoSpacing": 0.000539986,
  "FlipAngle": 90,
  "ImageOrientationPatientDICOM": [1, 0, 0, 0, 0.983885, -0.178802],
  "ImageOrientationText": "Tra>Cor(-10.3)",
  "ImageType": [
    "ORIGINAL",
    "PRIMARY",
    "M",
    "ND",
    "MOSAIC"
],
  "ImagingFrequency": 123.258,
  "InPlanePhaseEncodingDirectionDICOM": "COL",
  "InstitutionAddress": "Street StreetNo,Bei Jing,District,CN,ZIP",
  "InstitutionName": "BeiJing Normal University",
  "InstitutionalDepartmentName": "Department",
  "MRAcquisitionType": "2D",
  "MagneticFieldStrength": 3,
  "Manufacturer": "Siemens",
  "ManufacturersModelName": "Prisma",
  "Modality": "MR",
  "MultibandAccelerationFactor": 3,
  "PartialFourier": 1,
  "PatientPosition": "HFS",
  "PercentPhaseFOV": 100,
  "PercentSampling": 100,
  "PhaseEncodingDirection": "j-",
  "PhaseEncodingSteps": 100,
  "PhaseResolution": 1,
  "PixelBandwidth": 2380,
  "ProcedureStepDescription": "BNU_P2018_64CH^Zhen.ZongLei",
  "ProtocolName": "bold_100x100_s3_2x2x2_static_156",
  "PulseSequenceDetails": "%SiemensSeq%\\ep2d_bold",
  "ReceiveCoilActiveElements": "HC1-7;NC1",
  "ReceiveCoilName": "HeadNeck_64",
  "ReconMatrixPE": 100,
  "RefLinesPE": 32,
  "RepetitionTime": 2,
  "SAR": 0.0722742,
  "ScanOptions": "FS",
  "ScanningSequence": "EP",
  "SequenceName": "*epfid2d1_100",
  "SequenceVariant": "SK",
  "SeriesDescription": "bold_100x100_s3_2x2x2_static_156",
  "SeriesNumber": 15,
  "ShimSetting": [-5451, -11517, -1255, 409, 30, -306, -194, 26],
  "SliceThickness": 2,
  "SliceTiming": [1.485, 0, 0.99, 0.0825, 1.0725, 0.165, 1.155, 0.2475, 1.2375, 0.33, 1.32, 0.4125, 1.4025, 0.5775, 1.5675, 0.66, 1.65, 0.7425, 1.7325, 0.825, 1.815, 0.9075, 1.8975, 0.495, 1.485, 0, 0.99, 0.0825, 1.0725, 0.165, 1.155, 0.2475, 1.2375, 0.33, 1.32, 0.4125, 1.4025, 0.5775, 1.5675, 0.66, 1.65, 0.7425, 1.7325, 0.825, 1.815, 0.9075, 1.8975, 0.495, 1.485, 0, 0.99, 0.0825, 1.0725, 0.165, 1.155, 0.2475, 1.2375, 0.33, 1.32, 0.4125, 1.4025, 0.5775, 1.5675, 0.66, 1.65, 0.7425, 1.7325, 0.825, 1.815, 0.9075, 1.8975, 0.495],
  "SoftwareVersions": "syngo MR E11",
  "SpacingBetweenSlices": 2,
  "StationName": "AWP166078",
  "TaskName": "action",
  "TotalReadoutTime": 0.0534586,
  "TxRefAmp": 207.948,
  "dcmmeta_affine": [
    [-2.0, 0.0, 0.0, 101.3559341430664],
    [0.0, 1.9677700996398926, -0.357604444026947, -80.33110046386719],
    [0.0, 0.357604444026947, 1.9677700996398926, -76.04673767089844],
    [0.0, 0.0, 0.0, 1.0]
],
  "dcmmeta_reorient_transform": [
    [0.0, -1.0, 0.0, 99.0],
    [1.0, 0.0, 0.0, 0.0],
    [0.0, 0.0, 1.0, 0.0],
    [0.0, 0.0, 0.0, 1.0]
],
  "dcmmeta_shape": [100, 100, 72, 156],
  "dcmmeta_slice_dim": 2,
  "dcmmeta_version": 0.6,
  "global": {
    "const": {
      "AcquisitionMatrix": [100, 0, 0, 100],
      "AngioFlag": "N",
      "BitsAllocated": 16,
      "BitsStored": 12,
      "BodyPartExamined": "BRAIN",
      "Columns": 900,
      "EchoNumbers": 1,
      "EchoTime": 34.0,
      "EchoTrainLength": 100,
      "FlipAngle": 90.0,
      "HighBit": 11,
      "ImageOrientationPatient": [1.0, 0.0, 0.0, 0.0, 0.98388503666185, -0.178802222114],
      "ImagePositionPatient": [-901.35593223572, -901.58616312262, 102.39787957182],
      "ImageType": [
        "ORIGINAL",
        "PRIMARY",
        "M",
        "ND",
        "MOSAIC"
],
      "ImagedNucleus": "1H",
      "ImagingFrequency": 123.257746,
      "InPlanePhaseEncodingDirection": "COL",
      "MRAcquisitionType": "2D",
      "MagneticFieldStrength": 3.0,
      "Manufacturer": "SIEMENS",
      "ManufacturerModelName": "Prisma",
      "Modality": "MR",
      "NumberOfAverages": 1.0,
      "NumberOfPhaseEncodingSteps": 100,
      "PercentPhaseFieldOfView": 100.0,
      "PercentSampling": 100.0,
      "PerformedProcedureStepStartTime": "141859.498000",
      "PhotometricInterpretation": "MONOCHROME2",
      "PixelBandwidth": 2380.0,
      "PixelRepresentation": 0,
      "PixelSpacing": [2.0, 2.0],
      "ProtocolName": "bold_100x100_s3_2x2x2_static_156",
      "RepetitionTime": 2000.0,
      "Rows": 900,
      "SAR": 0.07227419260634,
      "SamplesPerPixel": 1,
      "ScanOptions": "FS",
      "ScanningSequence": "EP",
      "SequenceName": "*epfid2d1_100",
      "SequenceVariant": "SK",
      "SeriesDescription": "bold_100x100_s3_2x2x2_static_156",
      "SeriesNumber": 15,
      "SeriesTime": "152530.033000",
      "SliceLocation": -60.457867896974,
      "SliceThickness": 2.0,
      "SmallestImagePixelValue": 0,
      "SoftwareVersions": "syngo MR E11",
      "SpacingBetweenSlices": 1.9999999770499,
      "SpecificCharacterSet": "ISO_IR 100",
      "StudyID": "1",
      "StudyTime": "141859.413000",
      "TransmitCoilName": "Body",
      "VariableFlipAngleFlag": "N",
      "WindowCenterWidthExplanation": "Algo1",
      "dBdt": 0.0},
    "slices": {}
  },
  "time": {
    "samples": {
      "AcquisitionNumber": [1, 2, 3, 4, 5, 6, 7, 8, 9, 10, 11, 12, 13, 14, 15, 16, 17, 18, 19, 20, 21, 22, 23, 24, 25, 26, 27, 28, 29, 30, 31, 32, 33, 34, 35, 36, 37, 38, 39, 40, 41, 42, 43, 44, 45, 46, 47, 48, 49, 50, 51, 52, 53, 54, 55, 56, 57, 58, 59, 60, 61, 62, 63, 64, 65, 66, 67, 68, 69, 70, 71, 72, 73, 74, 75, 76, 77, 78, 79, 80, 81, 82, 83, 84, 85, 86, 87, 88, 89, 90, 91, 92, 93, 94, 95, 96, 97, 98, 99, 100, 101, 102, 103, 104, 105, 106, 107, 108, 109, 110, 111, 112, 113, 114, 115, 116, 117, 118, 119, 120, 121, 122, 123, 124, 125, 126, 127, 128, 129, 130, 131, 132, 133, 134, 135, 136, 137, 138, 139, 140, 141, 142, 143, 144, 145, 146, 147, 148, 149, 150, 151, 152, 153, 154, 155, 156],
      "AcquisitionTime": ["152527.020000", "152529.020000", "152531.020000", "152533.020000", "152535.020000", "152537.020000", "152539.020000", "152541.020000", "152543.020000", "152545.020000", "152547.020000", "152549.020000", "152551.020000", "152553.020000", "152555.020000", "152557.020000", "152559.020000", "152601.020000", "152603.020000", "152605.020000", "152607.020000", "152609.020000", "152611.020000", "152613.020000", "152615.020000", "152617.020000", "152619.020000", "152621.020000", "152623.020000", "152625.020000", "152627.020000", "152629.020000", "152631.020000", "152633.020000", "152635.020000", "152637.020000", "152639.020000", "152641.020000", "152643.020000", "152645.020000", "152647.020000", "152649.020000", "152651.020000", "152653.020000", "152655.020000", "152657.020000", "152659.020000", "152701.020000", "152703.020000", "152705.020000", "152707.020000", "152709.020000", "152711.020000", "152713.020000", "152715.020000", "152717.020000", "152719.020000", "152721.020000", "152723.020000", "152725.020000", "152727.020000", "152729.020000", "152731.020000", "152733.020000", "152735.020000", "152737.020000", "152739.020000", "152741.020000", "152743.020000", "152745.020000", "152747.020000", "152749.020000", "152751.020000", "152753.020000", "152755.020000", "152757.020000", "152759.020000", "152801.020000", "152803.020000", "152805.020000", "152807.020000", "152809.020000", "152811.020000", "152813.020000", "152815.020000", "152817.020000", "152819.020000", "152821.020000", "152823.020000", "152825.020000", "152827.020000", "152829.020000", "152831.020000", "152833.020000", "152835.020000", "152837.020000", "152839.020000", "152841.020000", "152843.020000", "152845.020000", "152847.020000", "152849.020000", "152851.020000", "152853.020000", "152855.020000", "152857.020000", "152859.020000", "152901.020000", "152903.020000", "152905.020000", "152907.020000", "152909.020000", "152911.020000", "152913.020000", "152915.020000", "152917.020000", "152919.020000", "152921.020000", "152923.020000", "152925.020000", "152927.020000", "152929.020000", "152931.020000", "152933.020000", "152935.020000", "152937.020000", "152939.020000", "152941.020000", "152943.020000", "152945.020000", "152947.020000", "152949.020000", "152951.020000", "152953.020000", "152955.020000", "152957.020000", "152959.020000", "153001.020000", "153003.020000", "153005.020000", "153007.020000", "153009.020000", "153011.020000", "153013.020000", "153015.020000", "153017.020000", "153019.020000", "153021.020000", "153023.020000", "153025.020000", "153027.020000", "153029.020000", "153031.020000", "153033.020000", "153035.020000", "153037.020000"],
      "ContentTime": ["152530.036000", "152531.532000", "152533.532000", "152535.532000", "152537.532000", "152539.032000", "152541.532000", "152543.533000", "152545.533000", "152547.531000", "152549.531000", "152551.531000", "152553.531000", "152555.531000", "152557.531000", "152559.531000", "152601.533000", "152603.532000", "152605.531000", "152607.531000", "152609.532000", "152611.532000", "152613.532000", "152615.531000", "152617.031000", "152619.533000", "152621.532000", "152623.532000", "152625.532000", "152627.531000", "152629.532000", "152631.532000", "152633.532000", "152635.533000", "152637.533000", "152639.532000", "152641.531000", "152643.532000", "152645.531000", "152647.532000", "152649.531000", "152651.532000", "152653.533000", "152655.532000", "152657.531000", "152659.531000", "152701.531000", "152703.531000", "152705.532000", "152707.532000", "152709.532000", "152711.532000", "152713.532000", "152715.532000", "152717.532000", "152719.531000", "152721.532000", "152723.531000", "152725.531000", "152727.533000", "152729.533000", "152731.532000", "152733.532000", "152735.531000", "152737.532000", "152739.031000", "152741.532000", "152743.532000", "152745.532000", "152747.533000", "152749.532000", "152751.531000", "152753.531000", "152755.531000", "152757.531000", "152759.531000", "152801.532000", "152803.533000", "152805.032000", "152807.531000", "152809.532000", "152811.532000", "152813.531000", "152815.531000", "152817.531000", "152819.532000", "152821.532000", "152823.531000", "152825.531000", "152827.532000", "152829.531000", "152831.532000", "152833.532000", "152835.531000", "152837.532000", "152839.533000", "152841.532000", "152843.531000", "152845.531000", "152847.531000", "152849.531000", "152851.532000", "152853.532000", "152855.533000", "152857.532000", "152859.531000", "152901.531000", "152903.532000", "152905.531000", "152907.531000", "152909.531000", "152911.531000", "152913.532000", "152915.533000", "152917.532000", "152919.531000", "152921.531000", "152923.532000", "152925.531000", "152927.532000", "152929.532000", "152931.533000", "152933.531000", "152935.532000", "152937.532000", "152939.532000", "152941.532000", "152943.531000", "152945.532000", "152947.532000", "152949.533000", "152951.531000", "152953.532000", "152955.531000", "152957.531000", "152959.531000", "153001.531000", "153003.531000", "153005.532000", "153007.532000", "153009.531000", "153011.532000", "153013.532000", "153015.531000", "153017.532000", "153019.531000", "153021.532000", "153023.533000", "153025.533000", "153027.532000", "153029.532000", "153031.532000", "153033.532000", "153035.531000", "153037.531000", "153039.098000"],
      "InstanceCreationTime": ["152530.036000", "152531.532000", "152533.532000", "152535.532000", "152537.532000", "152539.032000", "152541.532000", "152543.533000", "152545.533000", "152547.531000", "152549.531000", "152551.531000", "152553.531000", "152555.531000", "152557.531000", "152559.531000", "152601.533000", "152603.532000", "152605.531000", "152607.531000", "152609.532000", "152611.532000", "152613.532000", "152615.531000", "152617.031000", "152619.533000", "152621.532000", "152623.532000", "152625.532000", "152627.531000", "152629.532000", "152631.532000", "152633.532000", "152635.533000", "152637.533000", "152639.532000", "152641.531000", "152643.532000", "152645.531000", "152647.532000", "152649.531000", "152651.532000", "152653.533000", "152655.532000", "152657.531000", "152659.531000", "152701.531000", "152703.531000", "152705.532000", "152707.532000", "152709.532000", "152711.532000", "152713.532000", "152715.532000", "152717.532000", "152719.531000", "152721.532000", "152723.531000", "152725.531000", "152727.533000", "152729.533000", "152731.532000", "152733.532000", "152735.531000", "152737.532000", "152739.031000", "152741.532000", "152743.532000", "152745.532000", "152747.533000", "152749.532000", "152751.531000", "152753.531000", "152755.531000", "152757.531000", "152759.531000", "152801.532000", "152803.533000", "152805.032000", "152807.531000", "152809.532000", "152811.532000", "152813.531000", "152815.531000", "152817.531000", "152819.532000", "152821.532000", "152823.531000", "152825.531000", "152827.532000", "152829.531000", "152831.532000", "152833.532000", "152835.531000", "152837.532000", "152839.533000", "152841.532000", "152843.531000", "152845.531000", "152847.531000", "152849.531000", "152851.532000", "152853.532000", "152855.533000", "152857.532000", "152859.531000", "152901.531000", "152903.532000", "152905.531000", "152907.531000", "152909.531000", "152911.531000", "152913.532000", "152915.533000", "152917.532000", "152919.531000", "152921.531000", "152923.532000", "152925.531000", "152927.532000", "152929.532000", "152931.533000", "152933.531000", "152935.532000", "152937.532000", "152939.532000", "152941.532000", "152943.531000", "152945.532000", "152947.532000", "152949.533000", "152951.531000", "152953.532000", "152955.531000", "152957.531000", "152959.531000", "153001.531000", "153003.531000", "153005.532000", "153007.532000", "153009.531000", "153011.532000", "153013.532000", "153015.531000", "153017.532000", "153019.531000", "153021.532000", "153023.533000", "153025.533000", "153027.532000", "153029.532000", "153031.532000", "153033.532000", "153035.531000", "153037.531000", "153039.098000"],
      "InstanceNumber": [1, 2, 3, 4, 5, 6, 7, 8, 9, 10, 11, 12, 13, 14, 15, 16, 17, 18, 19, 20, 21, 22, 23, 24, 25, 26, 27, 28, 29, 30, 31, 32, 33, 34, 35, 36, 37, 38, 39, 40, 41, 42, 43, 44, 45, 46, 47, 48, 49, 50, 51, 52, 53, 54, 55, 56, 57, 58, 59, 60, 61, 62, 63, 64, 65, 66, 67, 68, 69, 70, 71, 72, 73, 74, 75, 76, 77, 78, 79, 80, 81, 82, 83, 84, 85, 86, 87, 88, 89, 90, 91, 92, 93, 94, 95, 96, 97, 98, 99, 100, 101, 102, 103, 104, 105, 106, 107, 108, 109, 110, 111, 112, 113, 114, 115, 116, 117, 118, 119, 120, 121, 122, 123, 124, 125, 126, 127, 128, 129, 130, 131, 132, 133, 134, 135, 136, 137, 138, 139, 140, 141, 142, 143, 144, 145, 146, 147, 148, 149, 150, 151, 152, 153, 154, 155, 156],
      "LargestImagePixelValue": [3227, 3102, 3092, 3132, 3086, 3086, 3091, 3065, 3091, 3089, 3081, 3077, 3076, 3096, 3100, 3099, 3054, 3076, 3124, 3151, 3084, 3080, 3108, 3089, 3086, 3088, 3104, 3076, 3091, 3082, 3081, 3097, 3080, 3105, 3124, 3124, 3137, 3100, 3108, 3127, 3136, 3110, 3128, 3106, 3096, 3108, 3140, 3130, 3128, 3133, 3182, 3154, 3110, 3135, 3097, 3122, 3165, 3154, 3119, 3176, 3154, 3109, 3113, 3138, 3112, 3121, 3129, 3090, 3064, 3093, 3109, 3056, 3097, 3108, 3124, 3110, 3131, 3095, 3104, 3110, 3082, 3086, 3069, 3106, 3144, 3120, 3138, 3162, 3156, 3113, 3133, 3100, 3087, 3122, 3133, 3095, 3100, 3096, 3098, 3088, 3083, 3090, 3100, 3083, 3067, 3103, 3084, 3130, 3161, 3123, 3087, 3140, 3150, 3156, 3148, 3138, 3170, 3087, 3177, 3154, 3071, 3055, 3106, 3065, 3117, 3088, 3089, 3148, 3119, 3126, 3179, 3103, 3073, 3135, 3128, 3119, 3151, 3149, 3152, 3135, 3133, 3102, 3120, 3151, 3164, 3182, 3162, 3174, 3157, 3165, 3182, 3140, 3140, 3123, 3090, 3123],
      "WindowCenter": [748.0, 746.0, 748.0, 748.0, 747.0, 745.0, 747.0, 746.0, 748.0, 748.0, 747.0, 747.0, 747.0, 748.0, 747.0, 746.0, 745.0, 746.0, 746.0, 747.0, 746.0, 746.0, 746.0, 746.0, 747.0, 746.0, 747.0, 746.0, 747.0, 748.0, 746.0, 745.0, 744.0, 744.0, 745.0, 745.0, 746.0, 745.0, 746.0, 747.0, 747.0, 746.0, 745.0, 745.0, 746.0, 746.0, 747.0, 747.0, 747.0, 748.0, 748.0, 748.0, 747.0, 747.0, 746.0, 747.0, 748.0, 747.0, 747.0, 747.0, 748.0, 747.0, 747.0, 747.0, 746.0, 746.0, 745.0, 744.0, 745.0, 746.0, 747.0, 746.0, 746.0, 746.0, 745.0, 745.0, 746.0, 745.0, 745.0, 745.0, 746.0, 746.0, 747.0, 748.0, 749.0, 747.0, 748.0, 748.0, 748.0, 748.0, 746.0, 746.0, 747.0, 748.0, 748.0, 747.0, 747.0, 746.0, 747.0, 747.0, 747.0, 747.0, 746.0, 746.0, 747.0, 748.0, 747.0, 747.0, 748.0, 747.0, 747.0, 747.0, 748.0, 747.0, 746.0, 746.0, 748.0, 747.0, 747.0, 746.0, 746.0, 746.0, 747.0, 746.0, 747.0, 746.0, 746.0, 747.0, 749.0, 749.0, 749.0, 746.0, 747.0, 748.0, 748.0, 748.0, 748.0, 748.0, 747.0, 746.0, 747.0, 746.0, 747.0, 748.0, 748.0, 748.0, 749.0, 751.0, 750.0, 749.0, 748.0, 747.0, 747.0, 746.0, 745.0, 745.0],
      "WindowWidth": [1620.0, 1614.0, 1619.0, 1620.0, 1616.0, 1613.0, 1616.0, 1616.0, 1621.0, 1618.0, 1617.0, 1616.0, 1616.0, 1619.0, 1617.0, 1613.0, 1613.0, 1615.0, 1616.0, 1616.0, 1615.0, 1614.0, 1616.0, 1614.0, 1616.0, 1615.0, 1616.0, 1614.0, 1618.0, 1619.0, 1615.0, 1613.0, 1610.0, 1610.0, 1613.0, 1612.0, 1614.0, 1612.0, 1613.0, 1616.0, 1617.0, 1614.0, 1611.0, 1612.0, 1615.0, 1615.0, 1618.0, 1616.0, 1617.0, 1619.0, 1621.0, 1620.0, 1618.0, 1616.0, 1614.0, 1617.0, 1620.0, 1618.0, 1618.0, 1618.0, 1619.0, 1618.0, 1617.0, 1617.0, 1615.0, 1613.0, 1611.0, 1610.0, 1612.0, 1616.0, 1619.0, 1615.0, 1615.0, 1614.0, 1613.0, 1613.0, 1616.0, 1612.0, 1611.0, 1613.0, 1614.0, 1615.0, 1617.0, 1621.0, 1622.0, 1618.0, 1621.0, 1620.0, 1621.0, 1618.0, 1615.0, 1614.0, 1618.0, 1621.0, 1621.0, 1618.0, 1618.0, 1616.0, 1617.0, 1617.0, 1617.0, 1616.0, 1614.0, 1616.0, 1618.0, 1619.0, 1619.0, 1618.0, 1619.0, 1617.0, 1617.0, 1617.0, 1620.0, 1617.0, 1615.0, 1616.0, 1620.0, 1618.0, 1617.0, 1614.0, 1613.0, 1614.0, 1617.0, 1615.0, 1616.0, 1614.0, 1613.0, 1616.0, 1622.0, 1624.0, 1622.0, 1615.0, 1618.0, 1620.0, 1620.0, 1620.0, 1621.0, 1619.0, 1616.0, 1614.0, 1616.0, 1615.0, 1617.0, 1618.0, 1619.0, 1619.0, 1622.0, 1627.0, 1625.0, 1621.0, 1619.0, 1616.0, 1615.0, 1614.0, 1612.0, 1612.0]
    },
    "slices": {}
  }
}