{
  "AcquisitionMatrixPE": 100,
  "AcquisitionNumber": 1,
  "AcquisitionTime": "15:19:23.207500",
  "BandwidthPerPixelPhaseEncode": 18.519,
  "BaseResolution": 100,
  "BodyPartExamined": "BRAIN",
  "CoilCombinationMethod": "Sum of Squares",
  "ConsistencyInfo": "N4_VE11C_LATEST_20160120",
  "ConversionSoftware": "dcm2niix",
  "ConversionSoftwareVersion": "v1.0.20211006",
  "DerivedVendorReportedEchoSpacing": 0.000539986,
  "DeviceSerialNumber": "166078",
  "DwellTime": 2.1e-06,
  "EchoTime": 0.034,
  "EchoTrainLength": 100,
  "EffectiveEchoSpacing": 0.000539986,
  "FlipAngle": 90,
  "ImageOrientationPatientDICOM": [1, 0, 0, 0, 0.983885, -0.178802],
  "ImageOrientationText": "Tra>Cor(-10.3)",
  "ImageType": [
    "ORIGINAL",
    "PRIMARY",
    "M",
    "ND",
    "MOSAIC"
],
  "ImagingFrequency": 123.258,
  "InPlanePhaseEncodingDirectionDICOM": "COL",
  "InstitutionAddress": "Street StreetNo,Bei Jing,District,CN,ZIP",
  "InstitutionName": "BeiJing Normal University",
  "InstitutionalDepartmentName": "Department",
  "MRAcquisitionType": "2D",
  "MagneticFieldStrength": 3,
  "Manufacturer": "Siemens",
  "ManufacturersModelName": "Prisma",
  "Modality": "MR",
  "MultibandAccelerationFactor": 3,
  "PartialFourier": 1,
  "PatientPosition": "HFS",
  "PercentPhaseFOV": 100,
  "PercentSampling": 100,
  "PhaseEncodingDirection": "j-",
  "PhaseEncodingSteps": 100,
  "PhaseResolution": 1,
  "PixelBandwidth": 2380,
  "ProcedureStepDescription": "BNU_P2018_64CH^Zhen.ZongLei",
  "ProtocolName": "bold_100x100_s3_2x2x2_static_156",
  "PulseSequenceDetails": "%SiemensSeq%\\ep2d_bold",
  "ReceiveCoilActiveElements": "HC1-7;NC1",
  "ReceiveCoilName": "HeadNeck_64",
  "ReconMatrixPE": 100,
  "RefLinesPE": 32,
  "RepetitionTime": 2,
  "SAR": 0.0722742,
  "ScanOptions": "FS",
  "ScanningSequence": "EP",
  "SequenceName": "*epfid2d1_100",
  "SequenceVariant": "SK",
  "SeriesDescription": "bold_100x100_s3_2x2x2_static_156",
  "SeriesNumber": 14,
  "ShimSetting": [-5451, -11517, -1255, 409, 30, -306, -194, 26],
  "SliceThickness": 2,
  "SliceTiming": [1.485, 0, 0.99, 0.0825, 1.0725, 0.165, 1.155, 0.2475, 1.2375, 0.33, 1.32, 0.4125, 1.4025, 0.5775, 1.5675, 0.66, 1.65, 0.7425, 1.7325, 0.825, 1.815, 0.9075, 1.8975, 0.495, 1.485, 0, 0.99, 0.0825, 1.0725, 0.165, 1.155, 0.2475, 1.2375, 0.33, 1.32, 0.4125, 1.4025, 0.5775, 1.5675, 0.66, 1.65, 0.7425, 1.7325, 0.825, 1.815, 0.9075, 1.8975, 0.495, 1.485, 0, 0.99, 0.0825, 1.0725, 0.165, 1.155, 0.2475, 1.2375, 0.33, 1.32, 0.4125, 1.4025, 0.5775, 1.5675, 0.66, 1.65, 0.7425, 1.7325, 0.825, 1.815, 0.9075, 1.8975, 0.495],
  "SoftwareVersions": "syngo MR E11",
  "SpacingBetweenSlices": 2,
  "StationName": "AWP166078",
  "TaskName": "action",
  "TotalReadoutTime": 0.0534586,
  "TxRefAmp": 207.948,
  "dcmmeta_affine": [
    [-2.0, 0.0, 0.0, 101.3559341430664],
    [0.0, 1.9677700996398926, -0.357604444026947, -80.33110046386719],
    [0.0, 0.357604444026947, 1.9677700996398926, -76.04673767089844],
    [0.0, 0.0, 0.0, 1.0]
],
  "dcmmeta_reorient_transform": [
    [0.0, -1.0, 0.0, 99.0],
    [1.0, 0.0, 0.0, 0.0],
    [0.0, 0.0, 1.0, 0.0],
    [0.0, 0.0, 0.0, 1.0]
],
  "dcmmeta_shape": [100, 100, 72, 156],
  "dcmmeta_slice_dim": 2,
  "dcmmeta_version": 0.6,
  "global": {
    "const": {
      "AcquisitionMatrix": [100, 0, 0, 100],
      "AngioFlag": "N",
      "BitsAllocated": 16,
      "BitsStored": 12,
      "BodyPartExamined": "BRAIN",
      "Columns": 900,
      "EchoNumbers": 1,
      "EchoTime": 34.0,
      "EchoTrainLength": 100,
      "FlipAngle": 90.0,
      "HighBit": 11,
      "ImageOrientationPatient": [1.0, 0.0, 0.0, 0.0, 0.98388503666185, -0.178802222114],
      "ImagePositionPatient": [-901.35593223572, -901.58616312262, 102.39787957182],
      "ImageType": [
        "ORIGINAL",
        "PRIMARY",
        "M",
        "ND",
        "MOSAIC"
],
      "ImagedNucleus": "1H",
      "ImagingFrequency": 123.257746,
      "InPlanePhaseEncodingDirection": "COL",
      "MRAcquisitionType": "2D",
      "MagneticFieldStrength": 3.0,
      "Manufacturer": "SIEMENS",
      "ManufacturerModelName": "Prisma",
      "Modality": "MR",
      "NumberOfAverages": 1.0,
      "NumberOfPhaseEncodingSteps": 100,
      "PercentPhaseFieldOfView": 100.0,
      "PercentSampling": 100.0,
      "PerformedProcedureStepStartTime": "141859.498000",
      "PhotometricInterpretation": "MONOCHROME2",
      "PixelBandwidth": 2380.0,
      "PixelRepresentation": 0,
      "PixelSpacing": [2.0, 2.0],
      "ProtocolName": "bold_100x100_s3_2x2x2_static_156",
      "RepetitionTime": 2000.0,
      "Rows": 900,
      "SAR": 0.07227419260634,
      "SamplesPerPixel": 1,
      "ScanOptions": "FS",
      "ScanningSequence": "EP",
      "SequenceName": "*epfid2d1_100",
      "SequenceVariant": "SK",
      "SeriesDescription": "bold_100x100_s3_2x2x2_static_156",
      "SeriesNumber": 14,
      "SeriesTime": "151925.495000",
      "SliceLocation": -60.457867896974,
      "SliceThickness": 2.0,
      "SmallestImagePixelValue": 0,
      "SoftwareVersions": "syngo MR E11",
      "SpacingBetweenSlices": 1.9999999770499,
      "SpecificCharacterSet": "ISO_IR 100",
      "StudyID": "1",
      "StudyTime": "141859.413000",
      "TransmitCoilName": "Body",
      "VariableFlipAngleFlag": "N",
      "WindowCenterWidthExplanation": "Algo1",
      "dBdt": 0.0},
    "slices": {}
  },
  "time": {
    "samples": {
      "AcquisitionNumber": [1, 2, 3, 4, 5, 6, 7, 8, 9, 10, 11, 12, 13, 14, 15, 16, 17, 18, 19, 20, 21, 22, 23, 24, 25, 26, 27, 28, 29, 30, 31, 32, 33, 34, 35, 36, 37, 38, 39, 40, 41, 42, 43, 44, 45, 46, 47, 48, 49, 50, 51, 52, 53, 54, 55, 56, 57, 58, 59, 60, 61, 62, 63, 64, 65, 66, 67, 68, 69, 70, 71, 72, 73, 74, 75, 76, 77, 78, 79, 80, 81, 82, 83, 84, 85, 86, 87, 88, 89, 90, 91, 92, 93, 94, 95, 96, 97, 98, 99, 100, 101, 102, 103, 104, 105, 106, 107, 108, 109, 110, 111, 112, 113, 114, 115, 116, 117, 118, 119, 120, 121, 122, 123, 124, 125, 126, 127, 128, 129, 130, 131, 132, 133, 134, 135, 136, 137, 138, 139, 140, 141, 142, 143, 144, 145, 146, 147, 148, 149, 150, 151, 152, 153, 154, 155, 156],
      "AcquisitionTime": ["151923.207500", "151925.207500", "151927.207500", "151929.207500", "151931.207500", "151933.207500", "151935.207500", "151937.207500", "151939.207500", "151941.207500", "151943.207500", "151945.207500", "151947.207500", "151949.207500", "151951.207500", "151953.207500", "151955.207500", "151957.207500", "151959.207500", "152001.207500", "152003.207500", "152005.207500", "152007.207500", "152009.207500", "152011.207500", "152013.207500", "152015.207500", "152017.207500", "152019.207500", "152021.207500", "152023.207500", "152025.207500", "152027.207500", "152029.207500", "152031.207500", "152033.207500", "152035.207500", "152037.207500", "152039.207500", "152041.207500", "152043.207500", "152045.207500", "152047.207500", "152049.207500", "152051.207500", "152053.207500", "152055.207500", "152057.207500", "152059.207500", "152101.207500", "152103.207500", "152105.207500", "152107.207500", "152109.207500", "152111.207500", "152113.207500", "152115.207500", "152117.207500", "152119.207500", "152121.207500", "152123.207500", "152125.207500", "152127.207500", "152129.207500", "152131.207500", "152133.207500", "152135.207500", "152137.207500", "152139.207500", "152141.207500", "152143.207500", "152145.207500", "152147.207500", "152149.207500", "152151.207500", "152153.207500", "152155.207500", "152157.207500", "152159.207500", "152201.207500", "152203.207500", "152205.207500", "152207.207500", "152209.207500", "152211.207500", "152213.207500", "152215.207500", "152217.207500", "152219.207500", "152221.207500", "152223.207500", "152225.207500", "152227.207500", "152229.207500", "152231.207500", "152233.207500", "152235.207500", "152237.207500", "152239.207500", "152241.207500", "152243.207500", "152245.207500", "152247.207500", "152249.207500", "152251.207500", "152253.207500", "152255.207500", "152257.207500", "152259.207500", "152301.207500", "152303.207500", "152305.207500", "152307.207500", "152309.207500", "152311.207500", "152313.207500", "152315.207500", "152317.207500", "152319.207500", "152321.207500", "152323.207500", "152325.207500", "152327.207500", "152329.207500", "152331.207500", "152333.207500", "152335.207500", "152337.207500", "152339.207500", "152341.207500", "152343.207500", "152345.207500", "152347.207500", "152349.207500", "152351.207500", "152353.207500", "152355.207500", "152357.207500", "152359.207500", "152401.207500", "152403.207500", "152405.207500", "152407.207500", "152409.207500", "152411.207500", "152413.207500", "152415.207500", "152417.207500", "152419.207500", "152421.207500", "152423.207500", "152425.207500", "152427.207500", "152429.207500", "152431.207500", "152433.207500"],
      "ContentTime": ["151925.499000", "151926.994000", "151928.994000", "151930.995000", "151932.994000", "151934.994000", "151936.995000", "151938.995000", "151940.994000", "151942.995000", "151944.994000", "151946.994000", "151948.995000", "151950.995000", "151952.995000", "151954.995000", "151956.995000", "151958.994000", "152000.994000", "152002.995000", "152004.995000", "152006.994000", "152008.993000", "152010.995000", "152012.995000", "152014.995000", "152016.994000", "152018.994000", "152020.995000", "152022.994000", "152024.995000", "152026.993000", "152028.994000", "152030.995000", "152032.994000", "152034.994000", "152036.994000", "152038.994000", "152040.994000", "152042.995000", "152044.993000", "152046.994000", "152048.994000", "152050.995000", "152052.994000", "152054.995000", "152056.994000", "152058.995000", "152100.995000", "152102.994000", "152104.994000", "152106.994000", "152108.995000", "152110.995000", "152112.995000", "152114.994000", "152116.995000", "152118.994000", "152120.995000", "152122.995000", "152124.994000", "152126.995000", "152128.994000", "152130.994000", "152132.994000", "152134.994000", "152136.993000", "152138.994000", "152140.994000", "152142.994000", "152144.994000", "152146.994000", "152148.995000", "152150.995000", "152152.994000", "152154.993000", "152156.995000", "152158.994000", "152200.994000", "152202.994000", "152204.994000", "152206.994000", "152208.994000", "152210.994000", "152212.995000", "152214.995000", "152216.995000", "152218.995000", "152220.994000", "152222.994000", "152224.994000", "152226.994000", "152228.994000", "152230.995000", "152232.995000", "152234.995000", "152236.995000", "152238.995000", "152240.994000", "152242.994000", "152244.994000", "152246.994000", "152248.995000", "152250.995000", "152252.995000", "152254.995000", "152256.995000", "152258.995000", "152300.995000", "152302.995000", "152304.993000", "152306.995000", "152308.995000", "152310.994000", "152312.995000", "152314.995000", "152316.995000", "152318.995000", "152320.995000", "152322.994000", "152324.994000", "152327.007000", "152328.995000", "152330.995000", "152332.995000", "152334.995000", "152336.994000", "152338.993000", "152340.995000", "152342.995000", "152344.995000", "152346.995000", "152348.995000", "152350.994000", "152352.995000", "152354.994000", "152356.994000", "152358.995000", "152400.995000", "152402.995000", "152404.994000", "152406.994000", "152408.995000", "152410.995000", "152412.995000", "152414.994000", "152416.995000", "152418.995000", "152420.995000", "152422.995000", "152424.994000", "152426.994000", "152428.995000", "152430.995000", "152432.995000", "152434.756000"],
      "InstanceCreationTime": ["151925.499000", "151926.994000", "151928.994000", "151930.995000", "151932.994000", "151934.994000", "151936.995000", "151938.995000", "151940.994000", "151942.995000", "151944.994000", "151946.994000", "151948.995000", "151950.995000", "151952.995000", "151954.995000", "151956.995000", "151958.994000", "152000.994000", "152002.995000", "152004.995000", "152006.994000", "152008.993000", "152010.995000", "152012.995000", "152014.995000", "152016.994000", "152018.994000", "152020.995000", "152022.994000", "152024.995000", "152026.993000", "152028.994000", "152030.995000", "152032.994000", "152034.994000", "152036.994000", "152038.994000", "152040.994000", "152042.995000", "152044.993000", "152046.994000", "152048.994000", "152050.995000", "152052.994000", "152054.995000", "152056.994000", "152058.995000", "152100.995000", "152102.994000", "152104.994000", "152106.994000", "152108.995000", "152110.995000", "152112.995000", "152114.994000", "152116.995000", "152118.994000", "152120.995000", "152122.995000", "152124.994000", "152126.995000", "152128.994000", "152130.994000", "152132.994000", "152134.994000", "152136.993000", "152138.994000", "152140.994000", "152142.994000", "152144.994000", "152146.994000", "152148.995000", "152150.995000", "152152.994000", "152154.993000", "152156.995000", "152158.994000", "152200.994000", "152202.994000", "152204.994000", "152206.994000", "152208.994000", "152210.994000", "152212.995000", "152214.995000", "152216.995000", "152218.995000", "152220.994000", "152222.994000", "152224.994000", "152226.994000", "152228.994000", "152230.995000", "152232.995000", "152234.995000", "152236.995000", "152238.995000", "152240.994000", "152242.994000", "152244.994000", "152246.994000", "152248.995000", "152250.995000", "152252.995000", "152254.995000", "152256.995000", "152258.995000", "152300.995000", "152302.995000", "152304.993000", "152306.995000", "152308.995000", "152310.994000", "152312.995000", "152314.995000", "152316.995000", "152318.995000", "152320.995000", "152322.994000", "152324.994000", "152327.007000", "152328.995000", "152330.995000", "152332.995000", "152334.995000", "152336.994000", "152338.993000", "152340.995000", "152342.995000", "152344.995000", "152346.995000", "152348.995000", "152350.994000", "152352.995000", "152354.994000", "152356.994000", "152358.995000", "152400.995000", "152402.995000", "152404.994000", "152406.994000", "152408.995000", "152410.995000", "152412.995000", "152414.994000", "152416.995000", "152418.995000", "152420.995000", "152422.995000", "152424.994000", "152426.994000", "152428.995000", "152430.995000", "152432.995000", "152434.756000"],
      "InstanceNumber": [1, 2, 3, 4, 5, 6, 7, 8, 9, 10, 11, 12, 13, 14, 15, 16, 17, 18, 19, 20, 21, 22, 23, 24, 25, 26, 27, 28, 29, 30, 31, 32, 33, 34, 35, 36, 37, 38, 39, 40, 41, 42, 43, 44, 45, 46, 47, 48, 49, 50, 51, 52, 53, 54, 55, 56, 57, 58, 59, 60, 61, 62, 63, 64, 65, 66, 67, 68, 69, 70, 71, 72, 73, 74, 75, 76, 77, 78, 79, 80, 81, 82, 83, 84, 85, 86, 87, 88, 89, 90, 91, 92, 93, 94, 95, 96, 97, 98, 99, 100, 101, 102, 103, 104, 105, 106, 107, 108, 109, 110, 111, 112, 113, 114, 115, 116, 117, 118, 119, 120, 121, 122, 123, 124, 125, 126, 127, 128, 129, 130, 131, 132, 133, 134, 135, 136, 137, 138, 139, 140, 141, 142, 143, 144, 145, 146, 147, 148, 149, 150, 151, 152, 153, 154, 155, 156],
      "LargestImagePixelValue": [3210, 3088, 3072, 3103, 3053, 3093, 3071, 3116, 3061, 3085, 3120, 3035, 3121, 3066, 3080, 3134, 3083, 3116, 3073, 3111, 3044, 3114, 3081, 3118, 3084, 3091, 3082, 3085, 3054, 3113, 3060, 3102, 3086, 3059, 3091, 3073, 3079, 3045, 3090, 3057, 3094, 3118, 3046, 3037, 3083, 3061, 3105, 3070, 3139, 3078, 3101, 3048, 3083, 3045, 3129, 3072, 3091, 3055, 3085, 3126, 3070, 3077, 3058, 3080, 3118, 3084, 3133, 3138, 3058, 3099, 3014, 3067, 3111, 3066, 3117, 3031, 3062, 3079, 3095, 3117, 3055, 3121, 3051, 3069, 3139, 3068, 3128, 3076, 3096, 3041, 3085, 3119, 3058, 3097, 3039, 3090, 3124, 3080, 3097, 3036, 3124, 3094, 3101, 3094, 3057, 3103, 3041, 3098, 3030, 3082, 3015, 3064, 3075, 3044, 3108, 3079, 3054, 3087, 3027, 3077, 3030, 3075, 3036, 3060, 3031, 3069, 3060, 3054, 3050, 3089, 3060, 3054, 3049, 3061, 3086, 3090, 3092, 3040, 3072, 3078, 3057, 3048, 3064, 3084, 3046, 3044, 3079, 3059, 3077, 3057, 3040, 3069, 3105, 3078, 3072, 3082],
      "WindowCenter": [747.0, 746.0, 745.0, 745.0, 745.0, 746.0, 747.0, 746.0, 746.0, 745.0, 744.0, 744.0, 745.0, 744.0, 745.0, 746.0, 747.0, 747.0, 746.0, 746.0, 746.0, 746.0, 747.0, 746.0, 747.0, 747.0, 747.0, 746.0, 747.0, 747.0, 745.0, 745.0, 746.0, 745.0, 745.0, 744.0, 745.0, 745.0, 746.0, 745.0, 744.0, 744.0, 744.0, 744.0, 745.0, 745.0, 746.0, 746.0, 748.0, 746.0, 747.0, 745.0, 746.0, 746.0, 745.0, 745.0, 745.0, 744.0, 744.0, 744.0, 745.0, 745.0, 744.0, 745.0, 746.0, 746.0, 746.0, 746.0, 747.0, 746.0, 745.0, 744.0, 745.0, 745.0, 746.0, 744.0, 745.0, 746.0, 746.0, 746.0, 746.0, 745.0, 745.0, 745.0, 746.0, 746.0, 748.0, 747.0, 746.0, 745.0, 745.0, 746.0, 747.0, 746.0, 745.0, 745.0, 745.0, 746.0, 747.0, 746.0, 746.0, 745.0, 745.0, 745.0, 745.0, 747.0, 747.0, 746.0, 745.0, 744.0, 744.0, 744.0, 744.0, 744.0, 744.0, 744.0, 745.0, 745.0, 745.0, 746.0, 745.0, 745.0, 745.0, 744.0, 744.0, 745.0, 744.0, 744.0, 745.0, 746.0, 746.0, 745.0, 746.0, 745.0, 746.0, 745.0, 746.0, 746.0, 746.0, 745.0, 746.0, 746.0, 746.0, 747.0, 746.0, 745.0, 746.0, 746.0, 746.0, 745.0, 745.0, 747.0, 747.0, 747.0, 746.0, 745.0],
      "WindowWidth": [1618.0, 1613.0, 1611.0, 1612.0, 1612.0, 1615.0, 1617.0, 1615.0, 1614.0, 1611.0, 1610.0, 1608.0, 1613.0, 1610.0, 1612.0, 1615.0, 1616.0, 1617.0, 1615.0, 1615.0, 1614.0, 1616.0, 1616.0, 1616.0, 1617.0, 1618.0, 1616.0, 1616.0, 1616.0, 1617.0, 1613.0, 1613.0, 1615.0, 1611.0, 1612.0, 1610.0, 1611.0, 1611.0, 1614.0, 1610.0, 1609.0, 1608.0, 1607.0, 1609.0, 1613.0, 1612.0, 1615.0, 1616.0, 1619.0, 1615.0, 1616.0, 1612.0, 1614.0, 1614.0, 1613.0, 1611.0, 1612.0, 1610.0, 1609.0, 1610.0, 1611.0, 1611.0, 1610.0, 1610.0, 1614.0, 1614.0, 1614.0, 1614.0, 1616.0, 1616.0, 1612.0, 1610.0, 1611.0, 1611.0, 1615.0, 1610.0, 1611.0, 1613.0, 1614.0, 1615.0, 1615.0, 1613.0, 1611.0, 1611.0, 1615.0, 1615.0, 1619.0, 1616.0, 1614.0, 1612.0, 1611.0, 1615.0, 1617.0, 1615.0, 1612.0, 1612.0, 1613.0, 1614.0, 1616.0, 1613.0, 1614.0, 1611.0, 1611.0, 1612.0, 1612.0, 1617.0, 1618.0, 1614.0, 1612.0, 1610.0, 1609.0, 1610.0, 1610.0, 1608.0, 1609.0, 1608.0, 1610.0, 1612.0, 1612.0, 1613.0, 1611.0, 1612.0, 1611.0, 1609.0, 1610.0, 1610.0, 1608.0, 1610.0, 1612.0, 1613.0, 1614.0, 1612.0, 1614.0, 1613.0, 1614.0, 1613.0, 1616.0, 1614.0, 1613.0, 1612.0, 1614.0, 1616.0, 1616.0, 1617.0, 1616.0, 1613.0, 1616.0, 1616.0, 1615.0, 1613.0, 1613.0, 1616.0, 1618.0, 1616.0, 1613.0, 1612.0]
    },
    "slices": {}
  }
}