{
  "AcquisitionMatrixPE": 100,
  "AcquisitionNumber": 1,
  "AcquisitionTime": "14:21:57.895000",
  "BandwidthPerPixelPhaseEncode": 18.519,
  "BaseResolution": 100,
  "BodyPartExamined": "BRAIN",
  "CoilCombinationMethod": "Sum of Squares",
  "ConsistencyInfo": "N4_VE11C_LATEST_20160120",
  "ConversionSoftware": "dcm2niix",
  "ConversionSoftwareVersion": "v1.0.20211006",
  "DerivedVendorReportedEchoSpacing": 0.000539986,
  "DeviceSerialNumber": "166078",
  "DwellTime": 2.1e-06,
  "EchoTime": 0.034,
  "EchoTrainLength": 100,
  "EffectiveEchoSpacing": 0.000539986,
  "FlipAngle": 90,
  "ImageOrientationPatientDICOM": [1, 0, 0, 0, 0.983885, -0.178802],
  "ImageOrientationText": "Tra>Cor(-10.3)",
  "ImageType": [
    "ORIGINAL",
    "PRIMARY",
    "M",
    "ND",
    "MOSAIC"
],
  "ImagingFrequency": 123.258,
  "InPlanePhaseEncodingDirectionDICOM": "COL",
  "InstitutionAddress": "Street StreetNo,Bei Jing,District,CN,ZIP",
  "InstitutionName": "BeiJing Normal University",
  "InstitutionalDepartmentName": "Department",
  "MRAcquisitionType": "2D",
  "MagneticFieldStrength": 3,
  "Manufacturer": "Siemens",
  "ManufacturersModelName": "Prisma",
  "Modality": "MR",
  "MultibandAccelerationFactor": 3,
  "PartialFourier": 1,
  "PatientPosition": "HFS",
  "PercentPhaseFOV": 100,
  "PercentSampling": 100,
  "PhaseEncodingDirection": "j-",
  "PhaseEncodingSteps": 100,
  "PhaseResolution": 1,
  "PixelBandwidth": 2380,
  "ProcedureStepDescription": "BNU_P2018_64CH^Zhen.ZongLei",
  "ProtocolName": "bold_100x100_s3_2x2x2_static_156",
  "PulseSequenceDetails": "%SiemensSeq%\\ep2d_bold",
  "ReceiveCoilActiveElements": "HC1-7;NC1",
  "ReceiveCoilName": "HeadNeck_64",
  "ReconMatrixPE": 100,
  "RefLinesPE": 32,
  "RepetitionTime": 2,
  "SAR": 0.0722742,
  "ScanOptions": "FS",
  "ScanningSequence": "EP",
  "SequenceName": "*epfid2d1_100",
  "SequenceVariant": "SK",
  "SeriesDescription": "bold_100x100_s3_2x2x2_static_156",
  "SeriesNumber": 3,
  "ShimSetting": [-5451, -11517, -1255, 409, 30, -306, -194, 26],
  "SliceThickness": 2,
  "SliceTiming": [1.485, 0, 0.99, 0.0825, 1.0725, 0.165, 1.155, 0.2475, 1.2375, 0.33, 1.32, 0.4125, 1.4025, 0.5775, 1.5675, 0.66, 1.65, 0.7425, 1.7325, 0.825, 1.815, 0.9075, 1.8975, 0.495, 1.485, 0, 0.99, 0.0825, 1.0725, 0.165, 1.155, 0.2475, 1.2375, 0.33, 1.32, 0.4125, 1.4025, 0.5775, 1.5675, 0.66, 1.65, 0.7425, 1.7325, 0.825, 1.815, 0.9075, 1.8975, 0.495, 1.485, 0, 0.99, 0.0825, 1.0725, 0.165, 1.155, 0.2475, 1.2375, 0.33, 1.32, 0.4125, 1.4025, 0.5775, 1.5675, 0.66, 1.65, 0.7425, 1.7325, 0.825, 1.815, 0.9075, 1.8975, 0.495],
  "SoftwareVersions": "syngo MR E11",
  "SpacingBetweenSlices": 2,
  "StationName": "AWP166078",
  "TaskName": "action",
  "TotalReadoutTime": 0.0534586,
  "TxRefAmp": 207.948,
  "dcmmeta_affine": [
    [-2.0, 0.0, 0.0, 101.3559341430664],
    [0.0, 1.9677700996398926, -0.357604444026947, -80.33110046386719],
    [0.0, 0.357604444026947, 1.9677700996398926, -76.04673767089844],
    [0.0, 0.0, 0.0, 1.0]
],
  "dcmmeta_reorient_transform": [
    [0.0, -1.0, 0.0, 99.0],
    [1.0, 0.0, 0.0, 0.0],
    [0.0, 0.0, 1.0, 0.0],
    [0.0, 0.0, 0.0, 1.0]
],
  "dcmmeta_shape": [100, 100, 72, 156],
  "dcmmeta_slice_dim": 2,
  "dcmmeta_version": 0.6,
  "global": {
    "const": {
      "AcquisitionMatrix": [100, 0, 0, 100],
      "AngioFlag": "N",
      "BitsAllocated": 16,
      "BitsStored": 12,
      "BodyPartExamined": "BRAIN",
      "Columns": 900,
      "EchoNumbers": 1,
      "EchoTime": 34.0,
      "EchoTrainLength": 100,
      "FlipAngle": 90.0,
      "HighBit": 11,
      "ImageOrientationPatient": [1.0, 0.0, 0.0, 0.0, 0.98388503666185, -0.178802222114],
      "ImagePositionPatient": [-901.35593223572, -901.58616312262, 102.39787957182],
      "ImageType": [
        "ORIGINAL",
        "PRIMARY",
        "M",
        "ND",
        "MOSAIC"
],
      "ImagedNucleus": "1H",
      "ImagingFrequency": 123.257741,
      "InPlanePhaseEncodingDirection": "COL",
      "MRAcquisitionType": "2D",
      "MagneticFieldStrength": 3.0,
      "Manufacturer": "SIEMENS",
      "ManufacturerModelName": "Prisma",
      "Modality": "MR",
      "NumberOfAverages": 1.0,
      "NumberOfPhaseEncodingSteps": 100,
      "PercentPhaseFieldOfView": 100.0,
      "PercentSampling": 100.0,
      "PerformedProcedureStepStartTime": "141859.498000",
      "PhotometricInterpretation": "MONOCHROME2",
      "PixelBandwidth": 2380.0,
      "PixelRepresentation": 0,
      "PixelSpacing": [2.0, 2.0],
      "ProtocolName": "bold_100x100_s3_2x2x2_static_156",
      "RepetitionTime": 2000.0,
      "Rows": 900,
      "SAR": 0.07227419260634,
      "SamplesPerPixel": 1,
      "ScanOptions": "FS",
      "ScanningSequence": "EP",
      "SequenceName": "*epfid2d1_100",
      "SequenceVariant": "SK",
      "SeriesDescription": "bold_100x100_s3_2x2x2_static_156",
      "SeriesNumber": 3,
      "SeriesTime": "142201.186000",
      "SliceLocation": -60.457867896974,
      "SliceThickness": 2.0,
      "SmallestImagePixelValue": 0,
      "SoftwareVersions": "syngo MR E11",
      "SpacingBetweenSlices": 1.9999999770499,
      "SpecificCharacterSet": "ISO_IR 100",
      "StudyID": "1",
      "StudyTime": "141859.413000",
      "TransmitCoilName": "Body",
      "VariableFlipAngleFlag": "N",
      "WindowCenterWidthExplanation": "Algo1",
      "dBdt": 0.0},
    "slices": {}
  },
  "time": {
    "samples": {
      "AcquisitionNumber": [1, 2, 3, 4, 5, 6, 7, 8, 9, 10, 11, 12, 13, 14, 15, 16, 17, 18, 19, 20, 21, 22, 23, 24, 25, 26, 27, 28, 29, 30, 31, 32, 33, 34, 35, 36, 37, 38, 39, 40, 41, 42, 43, 44, 45, 46, 47, 48, 49, 50, 51, 52, 53, 54, 55, 56, 57, 58, 59, 60, 61, 62, 63, 64, 65, 66, 67, 68, 69, 70, 71, 72, 73, 74, 75, 76, 77, 78, 79, 80, 81, 82, 83, 84, 85, 86, 87, 88, 89, 90, 91, 92, 93, 94, 95, 96, 97, 98, 99, 100, 101, 102, 103, 104, 105, 106, 107, 108, 109, 110, 111, 112, 113, 114, 115, 116, 117, 118, 119, 120, 121, 122, 123, 124, 125, 126, 127, 128, 129, 130, 131, 132, 133, 134, 135, 136, 137, 138, 139, 140, 141, 142, 143, 144, 145, 146, 147, 148, 149, 150, 151, 152, 153, 154, 155, 156],
      "AcquisitionTime": ["142157.895000", "142159.895000", "142201.895000", "142203.895000", "142205.895000", "142207.895000", "142209.895000", "142211.895000", "142213.895000", "142215.895000", "142217.895000", "142219.895000", "142221.895000", "142223.895000", "142225.895000", "142227.895000", "142229.895000", "142231.895000", "142233.895000", "142235.895000", "142237.895000", "142239.895000", "142241.895000", "142243.895000", "142245.895000", "142247.895000", "142249.895000", "142251.895000", "142253.895000", "142255.895000", "142257.895000", "142259.895000", "142301.895000", "142303.895000", "142305.895000", "142307.895000", "142309.895000", "142311.895000", "142313.895000", "142315.895000", "142317.895000", "142319.895000", "142321.895000", "142323.895000", "142325.895000", "142327.895000", "142329.895000", "142331.895000", "142333.895000", "142335.895000", "142337.895000", "142339.895000", "142341.895000", "142343.895000", "142345.895000", "142347.895000", "142349.895000", "142351.895000", "142353.895000", "142355.895000", "142357.895000", "142359.895000", "142401.895000", "142403.895000", "142405.895000", "142407.895000", "142409.895000", "142411.895000", "142413.895000", "142415.895000", "142417.895000", "142419.895000", "142421.895000", "142423.895000", "142425.895000", "142427.895000", "142429.895000", "142431.895000", "142433.895000", "142435.895000", "142437.895000", "142439.895000", "142441.895000", "142443.895000", "142445.895000", "142447.895000", "142449.895000", "142451.895000", "142453.895000", "142455.895000", "142457.895000", "142459.895000", "142501.895000", "142503.895000", "142505.895000", "142507.895000", "142509.895000", "142511.895000", "142513.895000", "142515.895000", "142517.895000", "142519.895000", "142521.895000", "142523.895000", "142525.895000", "142527.895000", "142529.895000", "142531.895000", "142533.895000", "142535.895000", "142537.895000", "142539.895000", "142541.895000", "142543.895000", "142545.895000", "142547.895000", "142549.895000", "142551.895000", "142553.895000", "142555.895000", "142557.895000", "142559.895000", "142601.895000", "142603.895000", "142605.895000", "142607.895000", "142609.895000", "142611.895000", "142613.895000", "142615.895000", "142617.895000", "142619.895000", "142621.895000", "142623.895000", "142625.895000", "142627.895000", "142629.895000", "142631.895000", "142633.895000", "142635.895000", "142637.895000", "142639.895000", "142641.895000", "142643.895000", "142645.895000", "142647.895000", "142649.895000", "142651.895000", "142653.895000", "142655.895000", "142657.895000", "142659.895000", "142701.895000", "142703.895000", "142705.895000", "142707.895000"],
      "ContentTime": ["142201.190000", "142202.686000", "142204.186000", "142206.184000", "142208.184000", "142210.184000", "142212.185000", "142214.185000", "142216.186000", "142218.185000", "142220.186000", "142222.185000", "142224.185000", "142226.184000", "142228.184000", "142230.185000", "142232.186000", "142234.186000", "142236.186000", "142238.186000", "142240.186000", "142242.185000", "142244.185000", "142246.186000", "142248.185000", "142250.186000", "142252.185000", "142254.185000", "142256.186000", "142258.185000", "142300.185000", "142302.184000", "142304.685000", "142306.185000", "142308.186000", "142310.686000", "142312.186000", "142314.185000", "142316.184000", "142318.185000", "142320.185000", "142322.186000", "142324.185000", "142326.186000", "142328.185000", "142330.186000", "142332.186000", "142334.185000", "142336.184000", "142338.184000", "142340.685000", "142342.186000", "142344.185000", "142346.686000", "142348.186000", "142350.185000", "142352.184000", "142354.185000", "142356.185000", "142358.185000", "142400.185000", "142402.185000", "142404.686000", "142406.186000", "142408.184000", "142410.185000", "142412.185000", "142414.185000", "142416.186000", "142418.185000", "142420.185000", "142422.185000", "142424.186000", "142426.184000", "142428.685000", "142430.185000", "142432.186000", "142434.186000", "142436.185000", "142438.185000", "142440.186000", "142442.185000", "142444.185000", "142446.685000", "142448.185000", "142450.186000", "142452.686000", "142454.186000", "142456.185000", "142458.185000", "142500.185000", "142502.684000", "142504.185000", "142506.186000", "142508.186000", "142510.186000", "142512.185000", "142514.185000", "142516.185000", "142518.185000", "142520.184000", "142522.185000", "142524.185000", "142526.186000", "142528.185000", "142530.186000", "142532.185000", "142534.185000", "142536.184000", "142538.185000", "142540.185000", "142542.186000", "142544.186000", "142546.185000", "142548.686000", "142550.186000", "142552.185000", "142554.185000", "142556.185000", "142558.184000", "142600.185000", "142602.185000", "142604.185000", "142606.186000", "142608.186000", "142610.186000", "142612.185000", "142614.184000", "142616.185000", "142618.185000", "142620.185000", "142622.185000", "142624.185000", "142626.185000", "142628.184000", "142630.184000", "142632.185000", "142634.685000", "142636.186000", "142638.186000", "142640.186000", "142642.186000", "142644.185000", "142646.184000", "142648.185000", "142650.184000", "142652.186000", "142654.186000", "142656.186000", "142658.186000", "142700.186000", "142702.185000", "142704.185000", "142706.184000", "142708.185000", "142710.061000"],
      "InstanceCreationTime": ["142201.190000", "142202.686000", "142204.186000", "142206.184000", "142208.184000", "142210.184000", "142212.185000", "142214.185000", "142216.186000", "142218.185000", "142220.186000", "142222.185000", "142224.185000", "142226.184000", "142228.184000", "142230.185000", "142232.186000", "142234.186000", "142236.186000", "142238.186000", "142240.186000", "142242.185000", "142244.185000", "142246.186000", "142248.185000", "142250.186000", "142252.185000", "142254.185000", "142256.186000", "142258.185000", "142300.185000", "142302.184000", "142304.685000", "142306.185000", "142308.186000", "142310.686000", "142312.186000", "142314.185000", "142316.184000", "142318.185000", "142320.185000", "142322.186000", "142324.185000", "142326.186000", "142328.185000", "142330.186000", "142332.186000", "142334.185000", "142336.184000", "142338.184000", "142340.685000", "142342.186000", "142344.185000", "142346.686000", "142348.186000", "142350.185000", "142352.184000", "142354.185000", "142356.185000", "142358.185000", "142400.185000", "142402.185000", "142404.686000", "142406.186000", "142408.184000", "142410.185000", "142412.185000", "142414.185000", "142416.186000", "142418.185000", "142420.185000", "142422.185000", "142424.186000", "142426.184000", "142428.685000", "142430.185000", "142432.186000", "142434.186000", "142436.185000", "142438.185000", "142440.186000", "142442.185000", "142444.185000", "142446.685000", "142448.185000", "142450.186000", "142452.686000", "142454.186000", "142456.185000", "142458.185000", "142500.185000", "142502.684000", "142504.185000", "142506.186000", "142508.186000", "142510.186000", "142512.185000", "142514.185000", "142516.185000", "142518.185000", "142520.184000", "142522.185000", "142524.185000", "142526.186000", "142528.185000", "142530.186000", "142532.185000", "142534.185000", "142536.184000", "142538.185000", "142540.185000", "142542.186000", "142544.186000", "142546.185000", "142548.686000", "142550.186000", "142552.185000", "142554.185000", "142556.185000", "142558.184000", "142600.185000", "142602.185000", "142604.185000", "142606.186000", "142608.186000", "142610.186000", "142612.185000", "142614.184000", "142616.185000", "142618.185000", "142620.185000", "142622.185000", "142624.185000", "142626.185000", "142628.184000", "142630.184000", "142632.185000", "142634.685000", "142636.186000", "142638.186000", "142640.186000", "142642.186000", "142644.185000", "142646.184000", "142648.185000", "142650.184000", "142652.186000", "142654.186000", "142656.186000", "142658.186000", "142700.186000", "142702.185000", "142704.185000", "142706.184000", "142708.185000", "142710.061000"],
      "InstanceNumber": [1, 2, 3, 4, 5, 6, 7, 8, 9, 10, 11, 12, 13, 14, 15, 16, 17, 18, 19, 20, 21, 22, 23, 24, 25, 26, 27, 28, 29, 30, 31, 32, 33, 34, 35, 36, 37, 38, 39, 40, 41, 42, 43, 44, 45, 46, 47, 48, 49, 50, 51, 52, 53, 54, 55, 56, 57, 58, 59, 60, 61, 62, 63, 64, 65, 66, 67, 68, 69, 70, 71, 72, 73, 74, 75, 76, 77, 78, 79, 80, 81, 82, 83, 84, 85, 86, 87, 88, 89, 90, 91, 92, 93, 94, 95, 96, 97, 98, 99, 100, 101, 102, 103, 104, 105, 106, 107, 108, 109, 110, 111, 112, 113, 114, 115, 116, 117, 118, 119, 120, 121, 122, 123, 124, 125, 126, 127, 128, 129, 130, 131, 132, 133, 134, 135, 136, 137, 138, 139, 140, 141, 142, 143, 144, 145, 146, 147, 148, 149, 150, 151, 152, 153, 154, 155, 156],
      "LargestImagePixelValue": [2963, 2970, 2978, 2926, 2961, 2920, 2939, 2971, 2962, 2953, 2954, 2900, 2960, 2933, 2953, 2943, 2981, 2954, 2979, 2981, 2945, 2987, 2996, 2974, 2964, 2957, 2955, 2992, 2941, 2941, 2955, 2936, 2977, 2926, 2947, 2957, 2948, 2943, 2965, 2931, 2958, 2985, 2932, 2969, 2948, 2952, 2944, 2910, 2925, 2914, 2960, 2943, 2929, 2939, 2933, 2938, 2919, 2952, 2949, 2932, 2930, 2951, 2969, 2921, 2969, 2949, 2902, 2904, 2933, 2951, 2922, 2929, 2916, 2926, 2920, 2949, 2950, 2924, 2920, 2932, 2910, 2906, 2911, 2916, 2933, 2922, 2898, 2920, 2925, 2908, 2886, 2923, 2932, 2922, 2906, 2932, 2917, 2913, 2935, 2917, 2884, 2918, 2917, 2918, 2906, 2921, 2914, 2944, 2932, 2931, 2926, 2910, 2917, 2901, 2888, 2928, 2927, 2924, 2894, 2896, 2902, 2917, 2933, 2920, 2917, 2896, 2923, 2913, 2904, 2929, 2929, 2924, 2916, 2926, 2907, 2932, 2918, 2918, 2895, 2906, 2932, 2903, 2919, 2943, 2908, 2895, 2911, 2902, 2923, 2940, 2921, 2942, 2907, 2898, 2955, 2921],
      "WindowCenter": [736.0, 736.0, 737.0, 737.0, 736.0, 735.0, 736.0, 737.0, 738.0, 738.0, 738.0, 737.0, 738.0, 737.0, 738.0, 736.0, 738.0, 737.0, 737.0, 737.0, 738.0, 738.0, 738.0, 737.0, 737.0, 736.0, 738.0, 737.0, 736.0, 736.0, 735.0, 736.0, 738.0, 737.0, 736.0, 737.0, 737.0, 737.0, 737.0, 735.0, 736.0, 737.0, 736.0, 736.0, 737.0, 737.0, 737.0, 735.0, 736.0, 736.0, 737.0, 736.0, 736.0, 735.0, 734.0, 735.0, 736.0, 736.0, 736.0, 736.0, 737.0, 737.0, 736.0, 735.0, 737.0, 735.0, 734.0, 735.0, 737.0, 736.0, 735.0, 735.0, 735.0, 735.0, 736.0, 735.0, 736.0, 735.0, 735.0, 735.0, 736.0, 735.0, 737.0, 737.0, 736.0, 735.0, 735.0, 735.0, 736.0, 735.0, 733.0, 734.0, 737.0, 736.0, 736.0, 736.0, 736.0, 735.0, 735.0, 734.0, 736.0, 735.0, 734.0, 734.0, 736.0, 735.0, 735.0, 734.0, 736.0, 736.0, 736.0, 735.0, 735.0, 734.0, 732.0, 734.0, 736.0, 735.0, 735.0, 734.0, 735.0, 734.0, 735.0, 734.0, 735.0, 733.0, 733.0, 733.0, 735.0, 735.0, 735.0, 735.0, 735.0, 735.0, 736.0, 735.0, 734.0, 733.0, 733.0, 735.0, 736.0, 734.0, 735.0, 735.0, 734.0, 734.0, 735.0, 735.0, 735.0, 733.0, 733.0, 734.0, 735.0, 734.0, 734.0, 735.0],
      "WindowWidth": [1590.0, 1588.0, 1592.0, 1591.0, 1589.0, 1585.0, 1589.0, 1591.0, 1595.0, 1596.0, 1596.0, 1592.0, 1594.0, 1593.0, 1595.0, 1591.0, 1594.0, 1593.0, 1591.0, 1591.0, 1595.0, 1596.0, 1596.0, 1593.0, 1593.0, 1591.0, 1593.0, 1592.0, 1591.0, 1590.0, 1587.0, 1589.0, 1594.0, 1591.0, 1591.0, 1591.0, 1593.0, 1592.0, 1592.0, 1588.0, 1590.0, 1593.0, 1588.0, 1589.0, 1593.0, 1591.0, 1591.0, 1588.0, 1590.0, 1589.0, 1591.0, 1590.0, 1590.0, 1587.0, 1582.0, 1586.0, 1588.0, 1588.0, 1590.0, 1588.0, 1592.0, 1592.0, 1591.0, 1587.0, 1591.0, 1585.0, 1583.0, 1585.0, 1592.0, 1590.0, 1587.0, 1585.0, 1587.0, 1586.0, 1588.0, 1587.0, 1589.0, 1586.0, 1585.0, 1587.0, 1589.0, 1587.0, 1592.0, 1591.0, 1589.0, 1587.0, 1587.0, 1586.0, 1588.0, 1586.0, 1581.0, 1585.0, 1592.0, 1590.0, 1589.0, 1588.0, 1588.0, 1585.0, 1587.0, 1584.0, 1588.0, 1586.0, 1582.0, 1583.0, 1588.0, 1586.0, 1586.0, 1584.0, 1588.0, 1590.0, 1588.0, 1586.0, 1587.0, 1583.0, 1579.0, 1582.0, 1589.0, 1588.0, 1586.0, 1584.0, 1586.0, 1583.0, 1585.0, 1585.0, 1587.0, 1581.0, 1580.0, 1582.0, 1586.0, 1587.0, 1586.0, 1586.0, 1587.0, 1588.0, 1588.0, 1585.0, 1583.0, 1580.0, 1581.0, 1585.0, 1589.0, 1584.0, 1587.0, 1587.0, 1585.0, 1582.0, 1587.0, 1587.0, 1586.0, 1581.0, 1581.0, 1584.0, 1585.0, 1584.0, 1584.0, 1586.0]
    },
    "slices": {}
  }
}