{
  "AcquisitionMatrixPE": 100,
  "AcquisitionNumber": 1,
  "AcquisitionTime": "14:16:52.800000",
  "BandwidthPerPixelPhaseEncode": 18.519,
  "BaseResolution": 100,
  "BodyPartExamined": "BRAIN",
  "CoilCombinationMethod": "Sum of Squares",
  "ConsistencyInfo": "N4_VE11C_LATEST_20160120",
  "ConversionSoftware": "dcm2niix",
  "ConversionSoftwareVersion": "v1.0.20211006",
  "DerivedVendorReportedEchoSpacing": 0.000539986,
  "DeviceSerialNumber": "166078",
  "DwellTime": 2.1e-06,
  "EchoTime": 0.034,
  "EchoTrainLength": 100,
  "EffectiveEchoSpacing": 0.000539986,
  "FlipAngle": 90,
  "ImageOrientationPatientDICOM": [0.992782, 0.0329896, 0.115305, -4.90892e-09, 0.961424, -0.275071],
  "ImageOrientationText": "Tra>Cor(-16.0)>Sag(6.9)",
  "ImageType": [
    "ORIGINAL",
    "PRIMARY",
    "M",
    "ND",
    "MOSAIC"
],
  "ImagingFrequency": 123.258,
  "InPlanePhaseEncodingDirectionDICOM": "COL",
  "InstitutionAddress": "Street StreetNo,Bei Jing,District,CN,ZIP",
  "InstitutionName": "BeiJing Normal University",
  "InstitutionalDepartmentName": "Department",
  "MRAcquisitionType": "2D",
  "MagneticFieldStrength": 3,
  "Manufacturer": "Siemens",
  "ManufacturersModelName": "Prisma",
  "Modality": "MR",
  "MultibandAccelerationFactor": 3,
  "PartialFourier": 1,
  "PatientPosition": "HFS",
  "PercentPhaseFOV": 100,
  "PercentSampling": 100,
  "PhaseEncodingDirection": "j-",
  "PhaseEncodingSteps": 100,
  "PhaseResolution": 1,
  "PixelBandwidth": 2380,
  "ProcedureStepDescription": "BNU_P2018_64CH^Zhen.ZongLei",
  "ProtocolName": "bold_100x100_s3_2x2x2_static_156",
  "PulseSequenceDetails": "%SiemensSeq%\\ep2d_bold",
  "ReceiveCoilActiveElements": "HC1-7;NC1",
  "ReceiveCoilName": "HeadNeck_64",
  "ReconMatrixPE": 100,
  "RefLinesPE": 32,
  "RepetitionTime": 2,
  "SAR": 0.0673559,
  "ScanOptions": "FS",
  "ScanningSequence": "EP",
  "SequenceName": "*epfid2d1_100",
  "SequenceVariant": "SK",
  "SeriesDescription": "bold_100x100_s3_2x2x2_static_156",
  "SeriesNumber": 16,
  "ShimSetting": [-5436, -11395, -1356, 581, -48, -434, -206, -7],
  "SliceThickness": 2,
  "SliceTiming": [1.485, 0, 0.99, 0.0825, 1.0725, 0.165, 1.155, 0.2475, 1.2375, 0.33, 1.32, 0.4125, 1.4025, 0.5775, 1.5675, 0.66, 1.65, 0.7425, 1.7325, 0.825, 1.815, 0.9075, 1.8975, 0.495, 1.485, 0, 0.99, 0.0825, 1.0725, 0.165, 1.155, 0.2475, 1.2375, 0.33, 1.32, 0.4125, 1.4025, 0.5775, 1.5675, 0.66, 1.65, 0.7425, 1.7325, 0.825, 1.815, 0.9075, 1.8975, 0.495, 1.485, 0, 0.99, 0.0825, 1.0725, 0.165, 1.155, 0.2475, 1.2375, 0.33, 1.32, 0.4125, 1.4025, 0.5775, 1.5675, 0.66, 1.65, 0.7425, 1.7325, 0.825, 1.815, 0.9075, 1.8975, 0.495],
  "SoftwareVersions": "syngo MR E11",
  "SpacingBetweenSlices": 2,
  "StationName": "AWP166078",
  "TaskName": "action",
  "TotalReadoutTime": 0.0534586,
  "TxRefAmp": 214.747,
  "dcmmeta_affine": [
    [-1.9855643510818481, -9.81784964437793e-09, 0.2398625612258911, 88.4902572631836],
    [-0.06597921252250671, 1.922847867012024, -0.5461709499359131, -62.96708679199219],
    [0.23060961067676544, 0.5501417517662048, 1.9089691638946533, -122.26056671142578],
    [0.0, 0.0, 0.0, 1.0]
],
  "dcmmeta_reorient_transform": [
    [0.0, -1.0, 0.0, 99.0],
    [1.0, 0.0, 0.0, 0.0],
    [0.0, 0.0, 1.0, 0.0],
    [0.0, 0.0, 0.0, 1.0]
],
  "dcmmeta_shape": [100, 100, 72, 156],
  "dcmmeta_slice_dim": 2,
  "dcmmeta_version": 0.6,
  "global": {
    "const": {
      "AcquisitionMatrix": [100, 0, 0, 100],
      "AngioFlag": "N",
      "BitsAllocated": 16,
      "BitsStored": 12,
      "BodyPartExamined": "BRAIN",
      "Columns": 900,
      "EchoNumbers": 1,
      "EchoTime": 34.0,
      "EchoTrainLength": 100,
      "FlipAngle": 90.0,
      "HighBit": 11,
      "ImageOrientationPatient": [0.99278219541508, 0.0329896076854, 0.11530480584768, -4.908925e-09, 0.96142395050133, -0.2750708770525],
      "ImagePositionPatient": [-882.716005681, -922.92570120839, 60.016324130716],
      "ImageType": [
        "ORIGINAL",
        "PRIMARY",
        "M",
        "ND",
        "MOSAIC"
],
      "ImagedNucleus": "1H",
      "ImagingFrequency": 123.257797,
      "InPlanePhaseEncodingDirection": "COL",
      "MRAcquisitionType": "2D",
      "MagneticFieldStrength": 3.0,
      "Manufacturer": "SIEMENS",
      "ManufacturerModelName": "Prisma",
      "Modality": "MR",
      "NumberOfAverages": 1.0,
      "NumberOfPhaseEncodingSteps": 100,
      "PercentPhaseFieldOfView": 100.0,
      "PercentSampling": 100.0,
      "PerformedProcedureStepStartTime": "125828.269000",
      "PhotometricInterpretation": "MONOCHROME2",
      "PixelBandwidth": 2380.0,
      "PixelRepresentation": 0,
      "PixelSpacing": [2.0, 2.0],
      "ProtocolName": "bold_100x100_s3_2x2x2_static_156",
      "RepetitionTime": 2000.0,
      "Rows": 900,
      "SAR": 0.06735592549513,
      "SamplesPerPixel": 1,
      "ScanOptions": "FS",
      "ScanningSequence": "EP",
      "SequenceName": "*epfid2d1_100",
      "SequenceVariant": "SK",
      "SeriesDescription": "bold_100x100_s3_2x2x2_static_156",
      "SeriesNumber": 16,
      "SeriesTime": "141655.863000",
      "SliceLocation": -88.887679242493,
      "SliceThickness": 2.0,
      "SmallestImagePixelValue": 0,
      "SoftwareVersions": "syngo MR E11",
      "SpacingBetweenSlices": 2.0000000325568,
      "SpecificCharacterSet": "ISO_IR 100",
      "StudyID": "1",
      "StudyTime": "125828.187000",
      "TransmitCoilName": "Body",
      "VariableFlipAngleFlag": "N",
      "WindowCenterWidthExplanation": "Algo1",
      "dBdt": 0.0},
    "slices": {}
  },
  "time": {
    "samples": {
      "AcquisitionNumber": [1, 2, 3, 4, 5, 6, 7, 8, 9, 10, 11, 12, 13, 14, 15, 16, 17, 18, 19, 20, 21, 22, 23, 24, 25, 26, 27, 28, 29, 30, 31, 32, 33, 34, 35, 36, 37, 38, 39, 40, 41, 42, 43, 44, 45, 46, 47, 48, 49, 50, 51, 52, 53, 54, 55, 56, 57, 58, 59, 60, 61, 62, 63, 64, 65, 66, 67, 68, 69, 70, 71, 72, 73, 74, 75, 76, 77, 78, 79, 80, 81, 82, 83, 84, 85, 86, 87, 88, 89, 90, 91, 92, 93, 94, 95, 96, 97, 98, 99, 100, 101, 102, 103, 104, 105, 106, 107, 108, 109, 110, 111, 112, 113, 114, 115, 116, 117, 118, 119, 120, 121, 122, 123, 124, 125, 126, 127, 128, 129, 130, 131, 132, 133, 134, 135, 136, 137, 138, 139, 140, 141, 142, 143, 144, 145, 146, 147, 148, 149, 150, 151, 152, 153, 154, 155, 156],
      "AcquisitionTime": ["141652.800000", "141654.800000", "141656.800000", "141658.800000", "141700.800000", "141702.800000", "141704.800000", "141706.800000", "141708.800000", "141710.800000", "141712.800000", "141714.800000", "141716.800000", "141718.800000", "141720.800000", "141722.800000", "141724.800000", "141726.800000", "141728.800000", "141730.800000", "141732.800000", "141734.800000", "141736.800000", "141738.800000", "141740.800000", "141742.800000", "141744.800000", "141746.800000", "141748.800000", "141750.800000", "141752.800000", "141754.800000", "141756.800000", "141758.800000", "141800.800000", "141802.800000", "141804.800000", "141806.800000", "141808.800000", "141810.800000", "141812.800000", "141814.800000", "141816.800000", "141818.800000", "141820.800000", "141822.800000", "141824.800000", "141826.800000", "141828.800000", "141830.800000", "141832.800000", "141834.800000", "141836.800000", "141838.800000", "141840.800000", "141842.800000", "141844.800000", "141846.800000", "141848.800000", "141850.800000", "141852.800000", "141854.800000", "141856.800000", "141858.800000", "141900.800000", "141902.800000", "141904.800000", "141906.800000", "141908.800000", "141910.800000", "141912.800000", "141914.800000", "141916.800000", "141918.800000", "141920.800000", "141922.800000", "141924.800000", "141926.800000", "141928.800000", "141930.800000", "141932.800000", "141934.800000", "141936.800000", "141938.800000", "141940.800000", "141942.800000", "141944.800000", "141946.800000", "141948.800000", "141950.800000", "141952.800000", "141954.800000", "141956.800000", "141958.800000", "142000.800000", "142002.800000", "142004.800000", "142006.800000", "142008.800000", "142010.800000", "142012.800000", "142014.800000", "142016.800000", "142018.800000", "142020.800000", "142022.800000", "142024.800000", "142026.800000", "142028.800000", "142030.800000", "142032.800000", "142034.800000", "142036.800000", "142038.800000", "142040.800000", "142042.800000", "142044.800000", "142046.800000", "142048.800000", "142050.800000", "142052.800000", "142054.800000", "142056.800000", "142058.800000", "142100.800000", "142102.800000", "142104.800000", "142106.800000", "142108.800000", "142110.800000", "142112.800000", "142114.800000", "142116.800000", "142118.800000", "142120.800000", "142122.800000", "142124.800000", "142126.800000", "142128.800000", "142130.800000", "142132.800000", "142134.800000", "142136.800000", "142138.800000", "142140.800000", "142142.800000", "142144.800000", "142146.800000", "142148.800000", "142150.800000", "142152.800000", "142154.800000", "142156.800000", "142158.800000", "142200.800000", "142202.800000"],
      "ContentTime": ["141655.867000", "141657.362000", "141659.363000", "141701.363000", "141703.363000", "141705.364000", "141707.363000", "141709.364000", "141711.362000", "141713.362000", "141715.362000", "141717.363000", "141719.362000", "141721.363000", "141723.363000", "141725.364000", "141727.364000", "141729.363000", "141731.362000", "141733.362000", "141735.362000", "141737.363000", "141739.363000", "141741.364000", "141743.364000", "141745.363000", "141747.363000", "141749.362000", "141751.363000", "141753.363000", "141755.362000", "141757.363000", "141759.363000", "141801.363000", "141803.363000", "141805.362000", "141807.363000", "141809.363000", "141811.363000", "141813.362000", "141815.364000", "141817.363000", "141819.363000", "141821.363000", "141823.363000", "141825.362000", "141827.362000", "141829.362000", "141831.362000", "141833.363000", "141835.363000", "141837.364000", "141839.363000", "141841.363000", "141843.362000", "141845.362000", "141847.363000", "141849.363000", "141851.363000", "141853.364000", "141855.362000", "141857.363000", "141859.363000", "141901.362000", "141903.363000", "141905.363000", "141907.363000", "141909.364000", "141911.364000", "141913.362000", "141915.363000", "141917.363000", "141919.363000", "141921.362000", "141923.363000", "141925.364000", "141927.363000", "141929.364000", "141931.362000", "141933.363000", "141935.362000", "141937.363000", "141939.363000", "141941.362000", "141943.364000", "141945.364000", "141947.364000", "141949.363000", "141951.363000", "141953.362000", "141955.362000", "141957.363000", "141959.363000", "142001.363000", "142003.364000", "142005.363000", "142007.362000", "142009.363000", "142011.363000", "142013.363000", "142015.362000", "142017.363000", "142019.364000", "142021.364000", "142023.363000", "142025.362000", "142027.363000", "142029.362000", "142031.362000", "142033.363000", "142035.364000", "142037.364000", "142039.364000", "142041.363000", "142043.363000", "142045.362000", "142047.362000", "142049.363000", "142051.362000", "142053.364000", "142055.363000", "142057.364000", "142059.362000", "142101.363000", "142103.363000", "142105.363000", "142107.363000", "142109.362000", "142111.364000", "142113.364000", "142115.363000", "142117.363000", "142119.363000", "142121.362000", "142123.363000", "142125.363000", "142127.363000", "142129.364000", "142131.364000", "142133.363000", "142135.363000", "142137.363000", "142139.363000", "142141.363000", "142143.362000", "142145.364000", "142147.363000", "142149.364000", "142151.363000", "142153.363000", "142155.363000", "142157.363000", "142159.363000", "142201.363000", "142203.364000", "142205.035000"],
      "InstanceCreationTime": ["141655.867000", "141657.362000", "141659.363000", "141701.363000", "141703.363000", "141705.364000", "141707.363000", "141709.364000", "141711.362000", "141713.362000", "141715.362000", "141717.363000", "141719.362000", "141721.363000", "141723.363000", "141725.364000", "141727.364000", "141729.363000", "141731.362000", "141733.362000", "141735.362000", "141737.363000", "141739.363000", "141741.364000", "141743.364000", "141745.363000", "141747.363000", "141749.362000", "141751.363000", "141753.363000", "141755.362000", "141757.363000", "141759.363000", "141801.363000", "141803.363000", "141805.362000", "141807.363000", "141809.363000", "141811.363000", "141813.362000", "141815.364000", "141817.363000", "141819.363000", "141821.363000", "141823.363000", "141825.362000", "141827.362000", "141829.362000", "141831.362000", "141833.363000", "141835.363000", "141837.364000", "141839.363000", "141841.363000", "141843.362000", "141845.362000", "141847.363000", "141849.363000", "141851.363000", "141853.364000", "141855.362000", "141857.363000", "141859.363000", "141901.362000", "141903.363000", "141905.363000", "141907.363000", "141909.364000", "141911.364000", "141913.362000", "141915.363000", "141917.363000", "141919.363000", "141921.362000", "141923.363000", "141925.364000", "141927.363000", "141929.364000", "141931.362000", "141933.363000", "141935.362000", "141937.363000", "141939.363000", "141941.362000", "141943.364000", "141945.364000", "141947.364000", "141949.363000", "141951.363000", "141953.362000", "141955.362000", "141957.363000", "141959.363000", "142001.363000", "142003.364000", "142005.363000", "142007.362000", "142009.363000", "142011.363000", "142013.363000", "142015.362000", "142017.363000", "142019.364000", "142021.364000", "142023.363000", "142025.362000", "142027.363000", "142029.362000", "142031.362000", "142033.363000", "142035.364000", "142037.364000", "142039.364000", "142041.363000", "142043.363000", "142045.362000", "142047.362000", "142049.363000", "142051.362000", "142053.364000", "142055.363000", "142057.364000", "142059.362000", "142101.363000", "142103.363000", "142105.363000", "142107.363000", "142109.362000", "142111.364000", "142113.364000", "142115.363000", "142117.363000", "142119.363000", "142121.362000", "142123.363000", "142125.363000", "142127.363000", "142129.364000", "142131.364000", "142133.363000", "142135.363000", "142137.363000", "142139.363000", "142141.363000", "142143.362000", "142145.364000", "142147.363000", "142149.364000", "142151.363000", "142153.363000", "142155.363000", "142157.363000", "142159.363000", "142201.363000", "142203.364000", "142205.035000"],
      "InstanceNumber": [1, 2, 3, 4, 5, 6, 7, 8, 9, 10, 11, 12, 13, 14, 15, 16, 17, 18, 19, 20, 21, 22, 23, 24, 25, 26, 27, 28, 29, 30, 31, 32, 33, 34, 35, 36, 37, 38, 39, 40, 41, 42, 43, 44, 45, 46, 47, 48, 49, 50, 51, 52, 53, 54, 55, 56, 57, 58, 59, 60, 61, 62, 63, 64, 65, 66, 67, 68, 69, 70, 71, 72, 73, 74, 75, 76, 77, 78, 79, 80, 81, 82, 83, 84, 85, 86, 87, 88, 89, 90, 91, 92, 93, 94, 95, 96, 97, 98, 99, 100, 101, 102, 103, 104, 105, 106, 107, 108, 109, 110, 111, 112, 113, 114, 115, 116, 117, 118, 119, 120, 121, 122, 123, 124, 125, 126, 127, 128, 129, 130, 131, 132, 133, 134, 135, 136, 137, 138, 139, 140, 141, 142, 143, 144, 145, 146, 147, 148, 149, 150, 151, 152, 153, 154, 155, 156],
      "LargestImagePixelValue": [2753, 2736, 2759, 2722, 2738, 2776, 2755, 2751, 2747, 2767, 2776, 2753, 2746, 2743, 2748, 2730, 2857, 2780, 2746, 2750, 2773, 2746, 2750, 2744, 2750, 2745, 2740, 2754, 2740, 2731, 2707, 2752, 2813, 2753, 2778, 2755, 2762, 2742, 2734, 2741, 2755, 2766, 2740, 2717, 2751, 2775, 2747, 2785, 2746, 2812, 2742, 2819, 2830, 2809, 2725, 2788, 2796, 2802, 2838, 2825, 2802, 2800, 2817, 2855, 2748, 2705, 2696, 2729, 2737, 2766, 2753, 2763, 2771, 2814, 2774, 2735, 2745, 2785, 2788, 2802, 2788, 2771, 2741, 2785, 2771, 2779, 2725, 2734, 2764, 2741, 2740, 2779, 2750, 2750, 2726, 2689, 2731, 2756, 2751, 2747, 2757, 2742, 2742, 2753, 2739, 2744, 2737, 2723, 2747, 2746, 2763, 2754, 2796, 2771, 2720, 2728, 2790, 2768, 2768, 2745, 2810, 2777, 2737, 2776, 2731, 2760, 2809, 2774, 2730, 2735, 2738, 2727, 2760, 2716, 2701, 2727, 2717, 2773, 2786, 2753, 2787, 2818, 2758, 2815, 2821, 2814, 2792, 2730, 2736, 2814, 2846, 2825, 2817, 2803, 2817, 2791],
      "WindowCenter": [755.0, 754.0, 754.0, 753.0, 752.0, 753.0, 753.0, 753.0, 753.0, 754.0, 754.0, 753.0, 753.0, 754.0, 756.0, 756.0, 756.0, 754.0, 754.0, 754.0, 755.0, 754.0, 754.0, 754.0, 754.0, 755.0, 754.0, 753.0, 753.0, 752.0, 752.0, 752.0, 752.0, 752.0, 753.0, 753.0, 754.0, 752.0, 752.0, 753.0, 753.0, 752.0, 750.0, 750.0, 751.0, 752.0, 753.0, 754.0, 753.0, 753.0, 752.0, 753.0, 755.0, 755.0, 752.0, 753.0, 753.0, 753.0, 755.0, 754.0, 754.0, 753.0, 753.0, 754.0, 753.0, 752.0, 751.0, 752.0, 753.0, 753.0, 753.0, 752.0, 752.0, 753.0, 752.0, 752.0, 751.0, 753.0, 753.0, 753.0, 751.0, 752.0, 752.0, 753.0, 753.0, 752.0, 752.0, 752.0, 752.0, 751.0, 751.0, 752.0, 753.0, 754.0, 752.0, 751.0, 752.0, 753.0, 754.0, 752.0, 752.0, 752.0, 751.0, 751.0, 753.0, 753.0, 752.0, 752.0, 753.0, 752.0, 753.0, 752.0, 754.0, 756.0, 753.0, 752.0, 754.0, 753.0, 753.0, 753.0, 752.0, 753.0, 752.0, 752.0, 751.0, 752.0, 752.0, 753.0, 752.0, 753.0, 751.0, 751.0, 751.0, 751.0, 751.0, 751.0, 750.0, 752.0, 753.0, 753.0, 752.0, 751.0, 752.0, 753.0, 754.0, 755.0, 754.0, 751.0, 751.0, 753.0, 754.0, 753.0, 753.0, 754.0, 756.0, 755.0],
      "WindowWidth": [1630.0, 1626.0, 1627.0, 1624.0, 1623.0, 1624.0, 1624.0, 1625.0, 1624.0, 1626.0, 1627.0, 1625.0, 1625.0, 1627.0, 1632.0, 1633.0, 1633.0, 1628.0, 1626.0, 1628.0, 1630.0, 1628.0, 1628.0, 1627.0, 1629.0, 1629.0, 1628.0, 1625.0, 1624.0, 1623.0, 1621.0, 1622.0, 1623.0, 1623.0, 1625.0, 1625.0, 1626.0, 1622.0, 1623.0, 1623.0, 1624.0, 1621.0, 1618.0, 1618.0, 1619.0, 1623.0, 1625.0, 1627.0, 1624.0, 1624.0, 1623.0, 1624.0, 1629.0, 1629.0, 1622.0, 1623.0, 1624.0, 1625.0, 1628.0, 1628.0, 1627.0, 1625.0, 1625.0, 1628.0, 1625.0, 1623.0, 1621.0, 1622.0, 1624.0, 1625.0, 1624.0, 1623.0, 1622.0, 1625.0, 1623.0, 1622.0, 1620.0, 1625.0, 1625.0, 1624.0, 1621.0, 1622.0, 1623.0, 1625.0, 1624.0, 1623.0, 1622.0, 1622.0, 1622.0, 1621.0, 1620.0, 1622.0, 1625.0, 1627.0, 1623.0, 1619.0, 1621.0, 1624.0, 1626.0, 1622.0, 1621.0, 1622.0, 1619.0, 1621.0, 1625.0, 1624.0, 1622.0, 1622.0, 1625.0, 1622.0, 1624.0, 1622.0, 1628.0, 1631.0, 1625.0, 1621.0, 1626.0, 1624.0, 1624.0, 1624.0, 1621.0, 1623.0, 1623.0, 1623.0, 1621.0, 1621.0, 1622.0, 1624.0, 1622.0, 1624.0, 1618.0, 1619.0, 1620.0, 1620.0, 1620.0, 1619.0, 1618.0, 1622.0, 1623.0, 1623.0, 1621.0, 1619.0, 1621.0, 1625.0, 1626.0, 1628.0, 1625.0, 1620.0, 1619.0, 1624.0, 1626.0, 1624.0, 1623.0, 1626.0, 1630.0, 1628.0]
    },
    "slices": {}
  }
}