{
  "AcquisitionMatrixPE": 100,
  "AcquisitionNumber": 1,
  "AcquisitionTime": "13:46:15.842500",
  "BandwidthPerPixelPhaseEncode": 18.519,
  "BaseResolution": 100,
  "BodyPartExamined": "BRAIN",
  "CoilCombinationMethod": "Sum of Squares",
  "ConsistencyInfo": "N4_VE11C_LATEST_20160120",
  "ConversionSoftware": "dcm2niix",
  "ConversionSoftwareVersion": "v1.0.20211006",
  "DerivedVendorReportedEchoSpacing": 0.000539986,
  "DeviceSerialNumber": "166078",
  "DwellTime": 2.1e-06,
  "EchoTime": 0.034,
  "EchoTrainLength": 100,
  "EffectiveEchoSpacing": 0.000539986,
  "FlipAngle": 90,
  "ImageOrientationPatientDICOM": [0.992782, 0.0329896, 0.115305, -4.90892e-09, 0.961424, -0.275071],
  "ImageOrientationText": "Tra>Cor(-16.0)>Sag(6.9)",
  "ImageType": [
    "ORIGINAL",
    "PRIMARY",
    "M",
    "ND",
    "MOSAIC"
],
  "ImagingFrequency": 123.258,
  "InPlanePhaseEncodingDirectionDICOM": "COL",
  "InstitutionAddress": "Street StreetNo,Bei Jing,District,CN,ZIP",
  "InstitutionName": "BeiJing Normal University",
  "InstitutionalDepartmentName": "Department",
  "MRAcquisitionType": "2D",
  "MagneticFieldStrength": 3,
  "Manufacturer": "Siemens",
  "ManufacturersModelName": "Prisma",
  "Modality": "MR",
  "MultibandAccelerationFactor": 3,
  "PartialFourier": 1,
  "PatientPosition": "HFS",
  "PercentPhaseFOV": 100,
  "PercentSampling": 100,
  "PhaseEncodingDirection": "j-",
  "PhaseEncodingSteps": 100,
  "PhaseResolution": 1,
  "PixelBandwidth": 2380,
  "ProcedureStepDescription": "BNU_P2018_64CH^Zhen.ZongLei",
  "ProtocolName": "bold_100x100_s3_2x2x2_static_156",
  "PulseSequenceDetails": "%SiemensSeq%\\ep2d_bold",
  "ReceiveCoilActiveElements": "HC1-7;NC1",
  "ReceiveCoilName": "HeadNeck_64",
  "ReconMatrixPE": 100,
  "RefLinesPE": 32,
  "RepetitionTime": 2,
  "SAR": 0.0673559,
  "ScanOptions": "FS",
  "ScanningSequence": "EP",
  "SequenceName": "*epfid2d1_100",
  "SequenceVariant": "SK",
  "SeriesDescription": "bold_100x100_s3_2x2x2_static_156",
  "SeriesNumber": 11,
  "ShimSetting": [-5436, -11395, -1356, 581, -48, -434, -206, -7],
  "SliceThickness": 2,
  "SliceTiming": [1.485, 0, 0.99, 0.0825, 1.0725, 0.165, 1.155, 0.2475, 1.2375, 0.33, 1.32, 0.4125, 1.4025, 0.5775, 1.5675, 0.66, 1.65, 0.7425, 1.7325, 0.825, 1.815, 0.9075, 1.8975, 0.495, 1.485, 0, 0.99, 0.0825, 1.0725, 0.165, 1.155, 0.2475, 1.2375, 0.33, 1.32, 0.4125, 1.4025, 0.5775, 1.5675, 0.66, 1.65, 0.7425, 1.7325, 0.825, 1.815, 0.9075, 1.8975, 0.495, 1.485, 0, 0.99, 0.0825, 1.0725, 0.165, 1.155, 0.2475, 1.2375, 0.33, 1.32, 0.4125, 1.4025, 0.5775, 1.5675, 0.66, 1.65, 0.7425, 1.7325, 0.825, 1.815, 0.9075, 1.8975, 0.495],
  "SoftwareVersions": "syngo MR E11",
  "SpacingBetweenSlices": 2,
  "StationName": "AWP166078",
  "TaskName": "action",
  "TotalReadoutTime": 0.0534586,
  "TxRefAmp": 214.747,
  "dcmmeta_affine": [
    [-1.9855643510818481, -9.81784964437793e-09, 0.2398625612258911, 88.4902572631836],
    [-0.06597921252250671, 1.922847867012024, -0.5461709499359131, -62.96708679199219],
    [0.23060961067676544, 0.5501417517662048, 1.9089691638946533, -122.26056671142578],
    [0.0, 0.0, 0.0, 1.0]
],
  "dcmmeta_reorient_transform": [
    [0.0, -1.0, 0.0, 99.0],
    [1.0, 0.0, 0.0, 0.0],
    [0.0, 0.0, 1.0, 0.0],
    [0.0, 0.0, 0.0, 1.0]
],
  "dcmmeta_shape": [100, 100, 72, 156],
  "dcmmeta_slice_dim": 2,
  "dcmmeta_version": 0.6,
  "global": {
    "const": {
      "AcquisitionMatrix": [100, 0, 0, 100],
      "AngioFlag": "N",
      "BitsAllocated": 16,
      "BitsStored": 12,
      "BodyPartExamined": "BRAIN",
      "Columns": 900,
      "EchoNumbers": 1,
      "EchoTime": 34.0,
      "EchoTrainLength": 100,
      "FlipAngle": 90.0,
      "HighBit": 11,
      "ImageOrientationPatient": [0.99278219541508, 0.0329896076854, 0.11530480584768, -4.908925e-09, 0.96142395050133, -0.2750708770525],
      "ImagePositionPatient": [-882.716005681, -922.92570120839, 60.016324130716],
      "ImageType": [
        "ORIGINAL",
        "PRIMARY",
        "M",
        "ND",
        "MOSAIC"
],
      "ImagedNucleus": "1H",
      "ImagingFrequency": 123.257785,
      "InPlanePhaseEncodingDirection": "COL",
      "MRAcquisitionType": "2D",
      "MagneticFieldStrength": 3.0,
      "Manufacturer": "SIEMENS",
      "ManufacturerModelName": "Prisma",
      "Modality": "MR",
      "NumberOfAverages": 1.0,
      "NumberOfPhaseEncodingSteps": 100,
      "PercentPhaseFieldOfView": 100.0,
      "PercentSampling": 100.0,
      "PerformedProcedureStepStartTime": "125828.269000",
      "PhotometricInterpretation": "MONOCHROME2",
      "PixelBandwidth": 2380.0,
      "PixelRepresentation": 0,
      "PixelSpacing": [2.0, 2.0],
      "ProtocolName": "bold_100x100_s3_2x2x2_static_156",
      "RepetitionTime": 2000.0,
      "Rows": 900,
      "SAR": 0.06735592549513,
      "SamplesPerPixel": 1,
      "ScanOptions": "FS",
      "ScanningSequence": "EP",
      "SequenceName": "*epfid2d1_100",
      "SequenceVariant": "SK",
      "SeriesDescription": "bold_100x100_s3_2x2x2_static_156",
      "SeriesNumber": 11,
      "SeriesTime": "134618.085000",
      "SliceLocation": -88.887679242493,
      "SliceThickness": 2.0,
      "SmallestImagePixelValue": 0,
      "SoftwareVersions": "syngo MR E11",
      "SpacingBetweenSlices": 2.0000000325568,
      "SpecificCharacterSet": "ISO_IR 100",
      "StudyID": "1",
      "StudyTime": "125828.187000",
      "TransmitCoilName": "Body",
      "VariableFlipAngleFlag": "N",
      "WindowCenterWidthExplanation": "Algo1",
      "dBdt": 0.0},
    "slices": {}
  },
  "time": {
    "samples": {
      "AcquisitionNumber": [1, 2, 3, 4, 5, 6, 7, 8, 9, 10, 11, 12, 13, 14, 15, 16, 17, 18, 19, 20, 21, 22, 23, 24, 25, 26, 27, 28, 29, 30, 31, 32, 33, 34, 35, 36, 37, 38, 39, 40, 41, 42, 43, 44, 45, 46, 47, 48, 49, 50, 51, 52, 53, 54, 55, 56, 57, 58, 59, 60, 61, 62, 63, 64, 65, 66, 67, 68, 69, 70, 71, 72, 73, 74, 75, 76, 77, 78, 79, 80, 81, 82, 83, 84, 85, 86, 87, 88, 89, 90, 91, 92, 93, 94, 95, 96, 97, 98, 99, 100, 101, 102, 103, 104, 105, 106, 107, 108, 109, 110, 111, 112, 113, 114, 115, 116, 117, 118, 119, 120, 121, 122, 123, 124, 125, 126, 127, 128, 129, 130, 131, 132, 133, 134, 135, 136, 137, 138, 139, 140, 141, 142, 143, 144, 145, 146, 147, 148, 149, 150, 151, 152, 153, 154, 155, 156],
      "AcquisitionTime": ["134615.842500", "134617.842500", "134619.842500", "134621.842500", "134623.842500", "134625.842500", "134627.842500", "134629.842500", "134631.842500", "134633.842500", "134635.842500", "134637.842500", "134639.842500", "134641.842500", "134643.842500", "134645.842500", "134647.842500", "134649.842500", "134651.842500", "134653.842500", "134655.842500", "134657.842500", "134659.842500", "134701.842500", "134703.842500", "134705.842500", "134707.842500", "134709.842500", "134711.842500", "134713.842500", "134715.842500", "134717.842500", "134719.842500", "134721.842500", "134723.842500", "134725.842500", "134727.842500", "134729.842500", "134731.842500", "134733.842500", "134735.842500", "134737.842500", "134739.842500", "134741.842500", "134743.842500", "134745.842500", "134747.842500", "134749.842500", "134751.842500", "134753.842500", "134755.842500", "134757.842500", "134759.842500", "134801.842500", "134803.842500", "134805.842500", "134807.842500", "134809.842500", "134811.842500", "134813.842500", "134815.842500", "134817.842500", "134819.842500", "134821.842500", "134823.842500", "134825.842500", "134827.842500", "134829.842500", "134831.842500", "134833.842500", "134835.842500", "134837.842500", "134839.842500", "134841.842500", "134843.842500", "134845.842500", "134847.842500", "134849.842500", "134851.842500", "134853.842500", "134855.842500", "134857.842500", "134859.842500", "134901.842500", "134903.842500", "134905.842500", "134907.842500", "134909.842500", "134911.842500", "134913.842500", "134915.842500", "134917.842500", "134919.842500", "134921.842500", "134923.842500", "134925.842500", "134927.842500", "134929.842500", "134931.842500", "134933.842500", "134935.842500", "134937.842500", "134939.842500", "134941.842500", "134943.842500", "134945.842500", "134947.842500", "134949.842500", "134951.842500", "134953.842500", "134955.842500", "134957.842500", "134959.842500", "135001.842500", "135003.842500", "135005.842500", "135007.842500", "135009.842500", "135011.842500", "135013.842500", "135015.842500", "135017.842500", "135019.842500", "135021.842500", "135023.842500", "135025.842500", "135027.842500", "135029.842500", "135031.842500", "135033.842500", "135035.842500", "135037.842500", "135039.842500", "135041.842500", "135043.842500", "135045.842500", "135047.842500", "135049.842500", "135051.842500", "135053.842500", "135055.842500", "135057.842500", "135059.842500", "135101.842500", "135103.842500", "135105.842500", "135107.842500", "135109.842500", "135111.842500", "135113.842500", "135115.842500", "135117.842500", "135119.842500", "135121.842500", "135123.842500", "135125.842500"],
      "ContentTime": ["134618.088000", "134619.583000", "134621.582000", "134623.583000", "134625.582000", "134627.582000", "134629.584000", "134631.583000", "134633.584000", "134635.584000", "134637.583000", "134639.582000", "134641.583000", "134643.583000", "134645.583000", "134647.584000", "134649.583000", "134651.584000", "134653.582000", "134655.583000", "134657.582000", "134659.582000", "134701.583000", "134703.582000", "134705.583000", "134707.583000", "134709.584000", "134711.583000", "134713.582000", "134715.582000", "134717.583000", "134719.582000", "134721.583000", "134723.584000", "134725.583000", "134727.584000", "134729.583000", "134731.583000", "134733.583000", "134735.583000", "134737.582000", "134739.584000", "134741.583000", "134743.583000", "134745.584000", "134747.583000", "134749.582000", "134751.582000", "134753.582000", "134755.583000", "134757.584000", "134759.584000", "134801.583000", "134803.583000", "134805.583000", "134807.582000", "134809.583000", "134811.583000", "134813.582000", "134815.584000", "134817.584000", "134819.583000", "134821.582000", "134823.583000", "134825.582000", "134827.582000", "134829.583000", "134831.582000", "134833.584000", "134835.584000", "134837.584000", "134839.582000", "134841.583000", "134843.582000", "134845.583000", "134847.583000", "134849.583000", "134851.584000", "134853.584000", "134855.584000", "134857.583000", "134859.583000", "134901.582000", "134903.583000", "134905.583000", "134907.583000", "134909.584000", "134911.583000", "134913.582000", "134915.583000", "134917.582000", "134919.582000", "134921.582000", "134923.582000", "134925.583000", "134927.584000", "134929.584000", "134931.582000", "134933.582000", "134935.583000", "134937.582000", "134939.583000", "134941.583000", "134943.583000", "134945.583000", "134947.583000", "134949.582000", "134951.582000", "134953.582000", "134955.583000", "134957.583000", "134959.583000", "135001.584000", "135003.583000", "135005.583000", "135007.583000", "135009.583000", "135011.583000", "135013.582000", "135015.583000", "135017.584000", "135019.584000", "135021.584000", "135023.583000", "135025.582000", "135027.582000", "135029.582000", "135031.582000", "135033.582000", "135035.583000", "135037.584000", "135039.583000", "135041.583000", "135043.582000", "135045.583000", "135047.583000", "135049.583000", "135051.583000", "135053.584000", "135055.584000", "135057.584000", "135059.583000", "135101.582000", "135103.582000", "135105.583000", "135107.582000", "135109.583000", "135111.584000", "135113.584000", "135115.584000", "135117.583000", "135119.583000", "135121.583000", "135123.582000", "135125.583000", "135127.488000"],
      "InstanceCreationTime": ["134618.088000", "134619.583000", "134621.582000", "134623.583000", "134625.582000", "134627.582000", "134629.584000", "134631.583000", "134633.584000", "134635.584000", "134637.583000", "134639.582000", "134641.583000", "134643.583000", "134645.583000", "134647.584000", "134649.583000", "134651.584000", "134653.582000", "134655.583000", "134657.582000", "134659.582000", "134701.583000", "134703.582000", "134705.583000", "134707.583000", "134709.584000", "134711.583000", "134713.582000", "134715.582000", "134717.583000", "134719.582000", "134721.583000", "134723.584000", "134725.583000", "134727.584000", "134729.583000", "134731.583000", "134733.583000", "134735.583000", "134737.582000", "134739.584000", "134741.583000", "134743.583000", "134745.584000", "134747.583000", "134749.582000", "134751.582000", "134753.582000", "134755.583000", "134757.584000", "134759.584000", "134801.583000", "134803.583000", "134805.583000", "134807.582000", "134809.583000", "134811.583000", "134813.582000", "134815.584000", "134817.584000", "134819.583000", "134821.582000", "134823.583000", "134825.582000", "134827.582000", "134829.583000", "134831.582000", "134833.584000", "134835.584000", "134837.584000", "134839.582000", "134841.583000", "134843.582000", "134845.583000", "134847.583000", "134849.583000", "134851.584000", "134853.584000", "134855.584000", "134857.583000", "134859.583000", "134901.582000", "134903.583000", "134905.583000", "134907.583000", "134909.584000", "134911.583000", "134913.582000", "134915.583000", "134917.582000", "134919.582000", "134921.582000", "134923.582000", "134925.583000", "134927.584000", "134929.584000", "134931.582000", "134933.582000", "134935.583000", "134937.582000", "134939.583000", "134941.583000", "134943.583000", "134945.583000", "134947.583000", "134949.582000", "134951.582000", "134953.582000", "134955.583000", "134957.583000", "134959.583000", "135001.584000", "135003.583000", "135005.583000", "135007.583000", "135009.583000", "135011.583000", "135013.582000", "135015.583000", "135017.584000", "135019.584000", "135021.584000", "135023.583000", "135025.582000", "135027.582000", "135029.582000", "135031.582000", "135033.582000", "135035.583000", "135037.584000", "135039.583000", "135041.583000", "135043.582000", "135045.583000", "135047.583000", "135049.583000", "135051.583000", "135053.584000", "135055.584000", "135057.584000", "135059.583000", "135101.582000", "135103.582000", "135105.583000", "135107.582000", "135109.583000", "135111.584000", "135113.584000", "135115.584000", "135117.583000", "135119.583000", "135121.583000", "135123.582000", "135125.583000", "135127.488000"],
      "InstanceNumber": [1, 2, 3, 4, 5, 6, 7, 8, 9, 10, 11, 12, 13, 14, 15, 16, 17, 18, 19, 20, 21, 22, 23, 24, 25, 26, 27, 28, 29, 30, 31, 32, 33, 34, 35, 36, 37, 38, 39, 40, 41, 42, 43, 44, 45, 46, 47, 48, 49, 50, 51, 52, 53, 54, 55, 56, 57, 58, 59, 60, 61, 62, 63, 64, 65, 66, 67, 68, 69, 70, 71, 72, 73, 74, 75, 76, 77, 78, 79, 80, 81, 82, 83, 84, 85, 86, 87, 88, 89, 90, 91, 92, 93, 94, 95, 96, 97, 98, 99, 100, 101, 102, 103, 104, 105, 106, 107, 108, 109, 110, 111, 112, 113, 114, 115, 116, 117, 118, 119, 120, 121, 122, 123, 124, 125, 126, 127, 128, 129, 130, 131, 132, 133, 134, 135, 136, 137, 138, 139, 140, 141, 142, 143, 144, 145, 146, 147, 148, 149, 150, 151, 152, 153, 154, 155, 156],
      "LargestImagePixelValue": [2818, 2688, 2777, 2820, 2718, 2750, 2628, 2792, 2707, 2805, 2785, 2697, 2783, 2826, 2783, 2750, 2721, 2693, 2810, 2744, 2788, 2783, 2765, 2769, 2722, 2683, 2714, 2705, 2671, 2739, 2752, 2695, 2733, 2734, 2796, 2794, 2764, 2755, 2705, 2750, 2803, 2790, 2677, 2743, 2773, 2752, 2756, 2763, 2720, 2757, 2742, 2802, 2729, 2807, 2736, 2744, 2731, 2698, 2807, 2743, 2624, 2768, 2762, 2741, 2668, 2716, 2756, 2744, 2742, 2687, 2724, 2713, 2710, 2715, 2669, 2737, 2748, 2718, 2747, 2755, 2763, 2719, 2655, 2648, 2670, 2659, 2616, 2669, 2770, 2737, 2736, 2755, 2721, 2772, 2696, 2810, 2735, 2777, 2732, 2653, 2706, 2779, 2715, 2709, 2608, 2791, 2745, 2811, 2773, 2731, 2734, 2719, 2732, 2687, 2723, 2661, 2705, 2724, 2758, 2780, 2666, 2763, 2716, 2689, 2722, 2656, 2730, 2694, 2622, 2800, 2760, 2658, 2775, 2776, 2744, 2755, 2682, 2690, 2698, 2689, 2796, 2710, 2714, 2732, 2694, 2703, 2678, 2683, 2717, 2744, 2689, 2641, 2719, 2726, 2682, 2641],
      "WindowCenter": [752.0, 749.0, 751.0, 752.0, 751.0, 752.0, 749.0, 752.0, 751.0, 753.0, 753.0, 751.0, 752.0, 753.0, 753.0, 752.0, 751.0, 749.0, 749.0, 749.0, 751.0, 751.0, 750.0, 750.0, 750.0, 749.0, 749.0, 748.0, 748.0, 749.0, 749.0, 749.0, 749.0, 749.0, 751.0, 751.0, 751.0, 749.0, 749.0, 749.0, 750.0, 750.0, 747.0, 749.0, 751.0, 750.0, 749.0, 749.0, 749.0, 750.0, 749.0, 751.0, 749.0, 748.0, 748.0, 748.0, 749.0, 748.0, 749.0, 749.0, 747.0, 749.0, 750.0, 749.0, 748.0, 751.0, 751.0, 749.0, 748.0, 748.0, 749.0, 749.0, 749.0, 750.0, 749.0, 750.0, 752.0, 752.0, 750.0, 749.0, 749.0, 749.0, 748.0, 749.0, 749.0, 748.0, 747.0, 749.0, 752.0, 750.0, 748.0, 748.0, 748.0, 749.0, 749.0, 751.0, 750.0, 752.0, 751.0, 749.0, 748.0, 751.0, 753.0, 751.0, 749.0, 751.0, 750.0, 752.0, 752.0, 752.0, 752.0, 753.0, 754.0, 751.0, 750.0, 748.0, 750.0, 750.0, 751.0, 750.0, 749.0, 752.0, 751.0, 750.0, 750.0, 748.0, 749.0, 750.0, 751.0, 753.0, 750.0, 748.0, 752.0, 754.0, 752.0, 751.0, 749.0, 749.0, 748.0, 748.0, 751.0, 750.0, 750.0, 751.0, 751.0, 751.0, 749.0, 750.0, 751.0, 753.0, 753.0, 750.0, 749.0, 748.0, 748.0, 749.0],
      "WindowWidth": [1619.0, 1612.0, 1618.0, 1620.0, 1618.0, 1620.0, 1614.0, 1621.0, 1619.0, 1624.0, 1622.0, 1620.0, 1621.0, 1624.0, 1622.0, 1620.0, 1618.0, 1614.0, 1614.0, 1613.0, 1617.0, 1619.0, 1616.0, 1616.0, 1615.0, 1614.0, 1612.0, 1611.0, 1610.0, 1612.0, 1614.0, 1612.0, 1614.0, 1614.0, 1618.0, 1618.0, 1617.0, 1614.0, 1612.0, 1614.0, 1615.0, 1614.0, 1609.0, 1613.0, 1618.0, 1616.0, 1613.0, 1614.0, 1613.0, 1615.0, 1613.0, 1617.0, 1612.0, 1610.0, 1610.0, 1611.0, 1612.0, 1611.0, 1612.0, 1613.0, 1609.0, 1614.0, 1614.0, 1612.0, 1610.0, 1617.0, 1618.0, 1612.0, 1611.0, 1610.0, 1613.0, 1612.0, 1615.0, 1615.0, 1613.0, 1614.0, 1620.0, 1621.0, 1616.0, 1612.0, 1612.0, 1614.0, 1611.0, 1613.0, 1614.0, 1611.0, 1610.0, 1613.0, 1619.0, 1615.0, 1610.0, 1610.0, 1611.0, 1614.0, 1614.0, 1618.0, 1616.0, 1620.0, 1617.0, 1612.0, 1611.0, 1619.0, 1622.0, 1619.0, 1612.0, 1618.0, 1616.0, 1620.0, 1620.0, 1622.0, 1621.0, 1623.0, 1625.0, 1618.0, 1614.0, 1610.0, 1615.0, 1616.0, 1617.0, 1615.0, 1613.0, 1620.0, 1617.0, 1615.0, 1615.0, 1612.0, 1613.0, 1615.0, 1617.0, 1621.0, 1615.0, 1610.0, 1620.0, 1625.0, 1621.0, 1617.0, 1612.0, 1612.0, 1611.0, 1609.0, 1617.0, 1616.0, 1615.0, 1619.0, 1618.0, 1618.0, 1614.0, 1615.0, 1619.0, 1622.0, 1622.0, 1614.0, 1613.0, 1611.0, 1611.0, 1614.0]
    },
    "slices": {}
  }
}