{
  "AcquisitionMatrixPE": 100,
  "AcquisitionNumber": 1,
  "AcquisitionTime": "14:04:26.395000",
  "BandwidthPerPixelPhaseEncode": 18.519,
  "BaseResolution": 100,
  "BodyPartExamined": "BRAIN",
  "CoilCombinationMethod": "Sum of Squares",
  "ConsistencyInfo": "N4_VE11C_LATEST_20160120",
  "ConversionSoftware": "dcm2niix",
  "ConversionSoftwareVersion": "v1.0.20211006",
  "DerivedVendorReportedEchoSpacing": 0.000539986,
  "DeviceSerialNumber": "166078",
  "DwellTime": 2.1e-06,
  "EchoTime": 0.034,
  "EchoTrainLength": 100,
  "EffectiveEchoSpacing": 0.000539986,
  "FlipAngle": 90,
  "ImageOrientationPatientDICOM": [0.992782, 0.0329896, 0.115305, -4.90892e-09, 0.961424, -0.275071],
  "ImageOrientationText": "Tra>Cor(-16.0)>Sag(6.9)",
  "ImageType": [
    "ORIGINAL",
    "PRIMARY",
    "M",
    "ND",
    "MOSAIC"
],
  "ImagingFrequency": 123.258,
  "InPlanePhaseEncodingDirectionDICOM": "COL",
  "InstitutionAddress": "Street StreetNo,Bei Jing,District,CN,ZIP",
  "InstitutionName": "BeiJing Normal University",
  "InstitutionalDepartmentName": "Department",
  "MRAcquisitionType": "2D",
  "MagneticFieldStrength": 3,
  "Manufacturer": "Siemens",
  "ManufacturersModelName": "Prisma",
  "Modality": "MR",
  "MultibandAccelerationFactor": 3,
  "PartialFourier": 1,
  "PatientPosition": "HFS",
  "PercentPhaseFOV": 100,
  "PercentSampling": 100,
  "PhaseEncodingDirection": "j-",
  "PhaseEncodingSteps": 100,
  "PhaseResolution": 1,
  "PixelBandwidth": 2380,
  "ProcedureStepDescription": "BNU_P2018_64CH^Zhen.ZongLei",
  "ProtocolName": "bold_100x100_s3_2x2x2_static_156",
  "PulseSequenceDetails": "%SiemensSeq%\\ep2d_bold",
  "ReceiveCoilActiveElements": "HC1-7;NC1",
  "ReceiveCoilName": "HeadNeck_64",
  "ReconMatrixPE": 100,
  "RefLinesPE": 32,
  "RepetitionTime": 2,
  "SAR": 0.0673559,
  "ScanOptions": "FS",
  "ScanningSequence": "EP",
  "SequenceName": "*epfid2d1_100",
  "SequenceVariant": "SK",
  "SeriesDescription": "bold_100x100_s3_2x2x2_static_156",
  "SeriesNumber": 14,
  "ShimSetting": [-5436, -11395, -1356, 581, -48, -434, -206, -7],
  "SliceThickness": 2,
  "SliceTiming": [1.485, 0, 0.99, 0.0825, 1.0725, 0.165, 1.155, 0.2475, 1.2375, 0.33, 1.32, 0.4125, 1.4025, 0.5775, 1.5675, 0.66, 1.65, 0.7425, 1.7325, 0.825, 1.815, 0.9075, 1.8975, 0.495, 1.485, 0, 0.99, 0.0825, 1.0725, 0.165, 1.155, 0.2475, 1.2375, 0.33, 1.32, 0.4125, 1.4025, 0.5775, 1.5675, 0.66, 1.65, 0.7425, 1.7325, 0.825, 1.815, 0.9075, 1.8975, 0.495, 1.485, 0, 0.99, 0.0825, 1.0725, 0.165, 1.155, 0.2475, 1.2375, 0.33, 1.32, 0.4125, 1.4025, 0.5775, 1.5675, 0.66, 1.65, 0.7425, 1.7325, 0.825, 1.815, 0.9075, 1.8975, 0.495],
  "SoftwareVersions": "syngo MR E11",
  "SpacingBetweenSlices": 2,
  "StationName": "AWP166078",
  "TaskName": "action",
  "TotalReadoutTime": 0.0534586,
  "TxRefAmp": 214.747,
  "dcmmeta_affine": [
    [-1.9855643510818481, -9.81784964437793e-09, 0.2398625612258911, 88.4902572631836],
    [-0.06597921252250671, 1.922847867012024, -0.5461709499359131, -62.96708679199219],
    [0.23060961067676544, 0.5501417517662048, 1.9089691638946533, -122.26056671142578],
    [0.0, 0.0, 0.0, 1.0]
],
  "dcmmeta_reorient_transform": [
    [0.0, -1.0, 0.0, 99.0],
    [1.0, 0.0, 0.0, 0.0],
    [0.0, 0.0, 1.0, 0.0],
    [0.0, 0.0, 0.0, 1.0]
],
  "dcmmeta_shape": [100, 100, 72, 156],
  "dcmmeta_slice_dim": 2,
  "dcmmeta_version": 0.6,
  "global": {
    "const": {
      "AcquisitionMatrix": [100, 0, 0, 100],
      "AngioFlag": "N",
      "BitsAllocated": 16,
      "BitsStored": 12,
      "BodyPartExamined": "BRAIN",
      "Columns": 900,
      "EchoNumbers": 1,
      "EchoTime": 34.0,
      "EchoTrainLength": 100,
      "FlipAngle": 90.0,
      "HighBit": 11,
      "ImageOrientationPatient": [0.99278219541508, 0.0329896076854, 0.11530480584768, -4.908925e-09, 0.96142395050133, -0.2750708770525],
      "ImagePositionPatient": [-882.716005681, -922.92570120839, 60.016324130716],
      "ImageType": [
        "ORIGINAL",
        "PRIMARY",
        "M",
        "ND",
        "MOSAIC"
],
      "ImagedNucleus": "1H",
      "ImagingFrequency": 123.257794,
      "InPlanePhaseEncodingDirection": "COL",
      "MRAcquisitionType": "2D",
      "MagneticFieldStrength": 3.0,
      "Manufacturer": "SIEMENS",
      "ManufacturerModelName": "Prisma",
      "Modality": "MR",
      "NumberOfAverages": 1.0,
      "NumberOfPhaseEncodingSteps": 100,
      "PercentPhaseFieldOfView": 100.0,
      "PercentSampling": 100.0,
      "PerformedProcedureStepStartTime": "125828.269000",
      "PhotometricInterpretation": "MONOCHROME2",
      "PixelBandwidth": 2380.0,
      "PixelRepresentation": 0,
      "PixelSpacing": [2.0, 2.0],
      "ProtocolName": "bold_100x100_s3_2x2x2_static_156",
      "RepetitionTime": 2000.0,
      "Rows": 900,
      "SAR": 0.06735592549513,
      "SamplesPerPixel": 1,
      "ScanOptions": "FS",
      "ScanningSequence": "EP",
      "SequenceName": "*epfid2d1_100",
      "SequenceVariant": "SK",
      "SeriesDescription": "bold_100x100_s3_2x2x2_static_156",
      "SeriesNumber": 14,
      "SeriesTime": "140428.842000",
      "SliceLocation": -88.887679242493,
      "SliceThickness": 2.0,
      "SmallestImagePixelValue": 0,
      "SoftwareVersions": "syngo MR E11",
      "SpacingBetweenSlices": 2.0000000325568,
      "SpecificCharacterSet": "ISO_IR 100",
      "StudyID": "1",
      "StudyTime": "125828.187000",
      "TransmitCoilName": "Body",
      "VariableFlipAngleFlag": "N",
      "WindowCenterWidthExplanation": "Algo1",
      "dBdt": 0.0},
    "slices": {}
  },
  "time": {
    "samples": {
      "AcquisitionNumber": [1, 2, 3, 4, 5, 6, 7, 8, 9, 10, 11, 12, 13, 14, 15, 16, 17, 18, 19, 20, 21, 22, 23, 24, 25, 26, 27, 28, 29, 30, 31, 32, 33, 34, 35, 36, 37, 38, 39, 40, 41, 42, 43, 44, 45, 46, 47, 48, 49, 50, 51, 52, 53, 54, 55, 56, 57, 58, 59, 60, 61, 62, 63, 64, 65, 66, 67, 68, 69, 70, 71, 72, 73, 74, 75, 76, 77, 78, 79, 80, 81, 82, 83, 84, 85, 86, 87, 88, 89, 90, 91, 92, 93, 94, 95, 96, 97, 98, 99, 100, 101, 102, 103, 104, 105, 106, 107, 108, 109, 110, 111, 112, 113, 114, 115, 116, 117, 118, 119, 120, 121, 122, 123, 124, 125, 126, 127, 128, 129, 130, 131, 132, 133, 134, 135, 136, 137, 138, 139, 140, 141, 142, 143, 144, 145, 146, 147, 148, 149, 150, 151, 152, 153, 154, 155, 156],
      "AcquisitionTime": ["140426.395000", "140428.395000", "140430.395000", "140432.395000", "140434.395000", "140436.395000", "140438.395000", "140440.395000", "140442.395000", "140444.395000", "140446.395000", "140448.395000", "140450.395000", "140452.395000", "140454.395000", "140456.395000", "140458.395000", "140500.395000", "140502.395000", "140504.395000", "140506.395000", "140508.395000", "140510.395000", "140512.395000", "140514.395000", "140516.395000", "140518.395000", "140520.395000", "140522.395000", "140524.395000", "140526.395000", "140528.395000", "140530.395000", "140532.395000", "140534.395000", "140536.395000", "140538.395000", "140540.395000", "140542.395000", "140544.395000", "140546.395000", "140548.395000", "140550.395000", "140552.395000", "140554.395000", "140556.395000", "140558.395000", "140600.395000", "140602.395000", "140604.395000", "140606.395000", "140608.395000", "140610.395000", "140612.395000", "140614.395000", "140616.395000", "140618.395000", "140620.395000", "140622.395000", "140624.395000", "140626.395000", "140628.395000", "140630.395000", "140632.395000", "140634.395000", "140636.395000", "140638.395000", "140640.395000", "140642.395000", "140644.395000", "140646.395000", "140648.395000", "140650.395000", "140652.395000", "140654.395000", "140656.395000", "140658.395000", "140700.395000", "140702.395000", "140704.395000", "140706.395000", "140708.395000", "140710.395000", "140712.395000", "140714.395000", "140716.395000", "140718.395000", "140720.395000", "140722.395000", "140724.395000", "140726.395000", "140728.395000", "140730.395000", "140732.395000", "140734.395000", "140736.395000", "140738.395000", "140740.395000", "140742.395000", "140744.395000", "140746.395000", "140748.395000", "140750.395000", "140752.395000", "140754.395000", "140756.395000", "140758.395000", "140800.395000", "140802.395000", "140804.395000", "140806.395000", "140808.395000", "140810.395000", "140812.395000", "140814.395000", "140816.395000", "140818.395000", "140820.395000", "140822.395000", "140824.395000", "140826.395000", "140828.395000", "140830.395000", "140832.395000", "140834.395000", "140836.395000", "140838.395000", "140840.395000", "140842.395000", "140844.395000", "140846.395000", "140848.395000", "140850.395000", "140852.395000", "140854.395000", "140856.395000", "140858.395000", "140900.395000", "140902.395000", "140904.395000", "140906.395000", "140908.395000", "140910.395000", "140912.395000", "140914.395000", "140916.395000", "140918.395000", "140920.395000", "140922.395000", "140924.395000", "140926.395000", "140928.395000", "140930.395000", "140932.395000", "140934.395000", "140936.395000"],
      "ContentTime": ["140428.846000", "140429.842000", "140431.841000", "140433.843000", "140435.842000", "140437.841000", "140439.842000", "140441.841000", "140443.842000", "140445.842000", "140447.841000", "140449.841000", "140451.842000", "140453.841000", "140455.841000", "140457.841000", "140459.841000", "140501.841000", "140503.841000", "140505.842000", "140507.842000", "140509.842000", "140511.841000", "140513.841000", "140515.841000", "140517.841000", "140519.841000", "140521.841000", "140523.842000", "140525.842000", "140527.841000", "140529.841000", "140531.842000", "140533.842000", "140535.841000", "140537.842000", "140539.841000", "140541.842000", "140543.843000", "140545.842000", "140547.841000", "140549.842000", "140551.841000", "140553.841000", "140555.842000", "140557.842000", "140559.842000", "140601.841000", "140603.842000", "140605.842000", "140607.842000", "140609.842000", "140611.841000", "140613.841000", "140615.841000", "140617.842000", "140619.841000", "140621.842000", "140623.841000", "140625.842000", "140627.842000", "140629.842000", "140631.842000", "140633.841000", "140635.841000", "140637.842000", "140639.842000", "140641.841000", "140643.842000", "140645.841000", "140647.841000", "140649.842000", "140651.842000", "140653.842000", "140655.841000", "140657.841000", "140659.842000", "140701.841000", "140703.841000", "140705.841000", "140707.841000", "140709.842000", "140711.842000", "140713.841000", "140715.841000", "140717.842000", "140719.841000", "140721.842000", "140723.841000", "140725.841000", "140727.841000", "140729.842000", "140731.842000", "140733.841000", "140735.841000", "140737.841000", "140739.842000", "140741.841000", "140743.841000", "140745.842000", "140747.841000", "140749.841000", "140751.841000", "140753.841000", "140755.841000", "140757.842000", "140759.841000", "140801.842000", "140803.842000", "140805.841000", "140807.842000", "140809.841000", "140811.842000", "140813.841000", "140815.842000", "140817.841000", "140819.842000", "140821.841000", "140823.841000", "140825.841000", "140827.842000", "140829.842000", "140831.842000", "140833.841000", "140835.841000", "140837.842000", "140839.842000", "140841.841000", "140843.841000", "140845.842000", "140847.841000", "140849.841000", "140851.842000", "140853.841000", "140855.842000", "140857.841000", "140859.841000", "140901.841000", "140903.842000", "140905.842000", "140907.841000", "140909.842000", "140911.842000", "140913.842000", "140915.841000", "140917.842000", "140919.842000", "140921.841000", "140923.842000", "140925.842000", "140927.841000", "140929.841000", "140931.841000", "140933.841000", "140935.841000", "140937.739000"],
      "InstanceCreationTime": ["140428.846000", "140429.842000", "140431.841000", "140433.843000", "140435.842000", "140437.841000", "140439.842000", "140441.841000", "140443.842000", "140445.842000", "140447.841000", "140449.841000", "140451.842000", "140453.841000", "140455.841000", "140457.841000", "140459.841000", "140501.841000", "140503.841000", "140505.842000", "140507.842000", "140509.842000", "140511.841000", "140513.841000", "140515.841000", "140517.841000", "140519.841000", "140521.841000", "140523.842000", "140525.842000", "140527.841000", "140529.841000", "140531.842000", "140533.842000", "140535.841000", "140537.842000", "140539.841000", "140541.842000", "140543.843000", "140545.842000", "140547.841000", "140549.842000", "140551.841000", "140553.841000", "140555.842000", "140557.842000", "140559.842000", "140601.841000", "140603.842000", "140605.842000", "140607.842000", "140609.842000", "140611.841000", "140613.841000", "140615.841000", "140617.842000", "140619.841000", "140621.842000", "140623.841000", "140625.842000", "140627.842000", "140629.842000", "140631.842000", "140633.841000", "140635.841000", "140637.842000", "140639.842000", "140641.841000", "140643.842000", "140645.841000", "140647.841000", "140649.842000", "140651.842000", "140653.842000", "140655.841000", "140657.841000", "140659.842000", "140701.841000", "140703.841000", "140705.841000", "140707.841000", "140709.842000", "140711.842000", "140713.841000", "140715.841000", "140717.842000", "140719.841000", "140721.842000", "140723.841000", "140725.841000", "140727.841000", "140729.842000", "140731.842000", "140733.841000", "140735.841000", "140737.841000", "140739.842000", "140741.841000", "140743.841000", "140745.842000", "140747.841000", "140749.841000", "140751.841000", "140753.841000", "140755.841000", "140757.842000", "140759.841000", "140801.842000", "140803.842000", "140805.841000", "140807.842000", "140809.841000", "140811.842000", "140813.841000", "140815.842000", "140817.841000", "140819.842000", "140821.841000", "140823.841000", "140825.841000", "140827.842000", "140829.842000", "140831.842000", "140833.841000", "140835.841000", "140837.842000", "140839.842000", "140841.841000", "140843.841000", "140845.842000", "140847.841000", "140849.841000", "140851.842000", "140853.841000", "140855.842000", "140857.841000", "140859.841000", "140901.841000", "140903.842000", "140905.842000", "140907.841000", "140909.842000", "140911.842000", "140913.842000", "140915.841000", "140917.842000", "140919.842000", "140921.841000", "140923.842000", "140925.842000", "140927.841000", "140929.841000", "140931.841000", "140933.841000", "140935.841000", "140937.739000"],
      "InstanceNumber": [1, 2, 3, 4, 5, 6, 7, 8, 9, 10, 11, 12, 13, 14, 15, 16, 17, 18, 19, 20, 21, 22, 23, 24, 25, 26, 27, 28, 29, 30, 31, 32, 33, 34, 35, 36, 37, 38, 39, 40, 41, 42, 43, 44, 45, 46, 47, 48, 49, 50, 51, 52, 53, 54, 55, 56, 57, 58, 59, 60, 61, 62, 63, 64, 65, 66, 67, 68, 69, 70, 71, 72, 73, 74, 75, 76, 77, 78, 79, 80, 81, 82, 83, 84, 85, 86, 87, 88, 89, 90, 91, 92, 93, 94, 95, 96, 97, 98, 99, 100, 101, 102, 103, 104, 105, 106, 107, 108, 109, 110, 111, 112, 113, 114, 115, 116, 117, 118, 119, 120, 121, 122, 123, 124, 125, 126, 127, 128, 129, 130, 131, 132, 133, 134, 135, 136, 137, 138, 139, 140, 141, 142, 143, 144, 145, 146, 147, 148, 149, 150, 151, 152, 153, 154, 155, 156],
      "LargestImagePixelValue": [2826, 2803, 2788, 2747, 2814, 2810, 2844, 2750, 2714, 2710, 2705, 2717, 2821, 2735, 2712, 2719, 2692, 2683, 2693, 2705, 2692, 2706, 2671, 2724, 2814, 2738, 2632, 2701, 2791, 2667, 2811, 2763, 2660, 2729, 2794, 2712, 2747, 2719, 2728, 2715, 2730, 2739, 2715, 2716, 2775, 2697, 2731, 2669, 2702, 2793, 2810, 2827, 2747, 2704, 2725, 2708, 2838, 2790, 2746, 2720, 2728, 2791, 2777, 2842, 2793, 2754, 2740, 2746, 2766, 2766, 2803, 2826, 2762, 2766, 2752, 2715, 2585, 2692, 2724, 2781, 2824, 2839, 2729, 2694, 2681, 2785, 2843, 2786, 2745, 2765, 2643, 2751, 2759, 2717, 2740, 2704, 2709, 2725, 2684, 2589, 2801, 2691, 2699, 2805, 2731, 2855, 2751, 2720, 2790, 2763, 2731, 2799, 2892, 2856, 2721, 2708, 2715, 2714, 2775, 2714, 2686, 2691, 2755, 2819, 2799, 2669, 2668, 2777, 2695, 2780, 2771, 2767, 2749, 2746, 2822, 2629, 2787, 2745, 2742, 2740, 2720, 2781, 2714, 2690, 2719, 2695, 2796, 2750, 2745, 2735, 2712, 2712, 2708, 2684, 2775, 2774],
      "WindowCenter": [756.0, 754.0, 754.0, 754.0, 755.0, 755.0, 755.0, 753.0, 753.0, 754.0, 753.0, 754.0, 754.0, 752.0, 752.0, 752.0, 752.0, 751.0, 750.0, 750.0, 751.0, 752.0, 751.0, 751.0, 752.0, 751.0, 750.0, 752.0, 754.0, 752.0, 754.0, 752.0, 751.0, 753.0, 755.0, 753.0, 752.0, 752.0, 752.0, 752.0, 753.0, 753.0, 751.0, 751.0, 752.0, 753.0, 753.0, 751.0, 751.0, 753.0, 754.0, 754.0, 752.0, 751.0, 751.0, 752.0, 755.0, 755.0, 753.0, 752.0, 752.0, 752.0, 752.0, 754.0, 753.0, 752.0, 752.0, 753.0, 753.0, 753.0, 754.0, 754.0, 752.0, 752.0, 753.0, 752.0, 749.0, 750.0, 751.0, 754.0, 757.0, 757.0, 753.0, 751.0, 751.0, 755.0, 757.0, 754.0, 751.0, 751.0, 749.0, 751.0, 752.0, 752.0, 753.0, 752.0, 752.0, 752.0, 751.0, 750.0, 754.0, 755.0, 754.0, 753.0, 752.0, 753.0, 752.0, 751.0, 753.0, 754.0, 755.0, 756.0, 759.0, 758.0, 754.0, 751.0, 750.0, 751.0, 754.0, 753.0, 751.0, 750.0, 751.0, 752.0, 753.0, 753.0, 752.0, 752.0, 750.0, 753.0, 755.0, 754.0, 753.0, 754.0, 757.0, 753.0, 753.0, 752.0, 753.0, 752.0, 751.0, 752.0, 752.0, 752.0, 752.0, 752.0, 752.0, 752.0, 753.0, 753.0, 751.0, 750.0, 749.0, 748.0, 750.0, 752.0],
      "WindowWidth": [1631.0, 1627.0, 1626.0, 1625.0, 1629.0, 1629.0, 1630.0, 1625.0, 1624.0, 1626.0, 1625.0, 1625.0, 1627.0, 1622.0, 1621.0, 1622.0, 1621.0, 1618.0, 1616.0, 1616.0, 1619.0, 1621.0, 1618.0, 1617.0, 1620.0, 1619.0, 1617.0, 1620.0, 1625.0, 1622.0, 1625.0, 1622.0, 1619.0, 1624.0, 1629.0, 1625.0, 1622.0, 1621.0, 1623.0, 1622.0, 1625.0, 1624.0, 1619.0, 1618.0, 1622.0, 1623.0, 1624.0, 1619.0, 1619.0, 1623.0, 1627.0, 1626.0, 1621.0, 1618.0, 1617.0, 1620.0, 1629.0, 1627.0, 1624.0, 1622.0, 1620.0, 1620.0, 1621.0, 1624.0, 1624.0, 1620.0, 1621.0, 1624.0, 1624.0, 1623.0, 1625.0, 1626.0, 1621.0, 1620.0, 1623.0, 1621.0, 1613.0, 1615.0, 1618.0, 1625.0, 1634.0, 1633.0, 1624.0, 1618.0, 1618.0, 1627.0, 1634.0, 1626.0, 1620.0, 1619.0, 1614.0, 1618.0, 1622.0, 1621.0, 1622.0, 1622.0, 1622.0, 1621.0, 1619.0, 1615.0, 1626.0, 1627.0, 1625.0, 1624.0, 1621.0, 1624.0, 1620.0, 1618.0, 1622.0, 1625.0, 1627.0, 1632.0, 1639.0, 1635.0, 1625.0, 1618.0, 1617.0, 1618.0, 1625.0, 1623.0, 1619.0, 1617.0, 1618.0, 1621.0, 1623.0, 1623.0, 1620.0, 1620.0, 1617.0, 1624.0, 1627.0, 1625.0, 1622.0, 1625.0, 1633.0, 1623.0, 1623.0, 1622.0, 1623.0, 1621.0, 1617.0, 1620.0, 1621.0, 1620.0, 1621.0, 1621.0, 1621.0, 1620.0, 1625.0, 1623.0, 1618.0, 1615.0, 1613.0, 1611.0, 1617.0, 1621.0]
    },
    "slices": {}
  }
}