{
  "AcquisitionMatrixPE": 100,
  "AcquisitionNumber": 1,
  "AcquisitionTime": "13:37:16.237500",
  "BandwidthPerPixelPhaseEncode": 18.519,
  "BaseResolution": 100,
  "BodyPartExamined": "BRAIN",
  "CoilCombinationMethod": "Sum of Squares",
  "ConsistencyInfo": "N4_VE11C_LATEST_20160120",
  "ConversionSoftware": "dcm2niix",
  "ConversionSoftwareVersion": "v1.0.20211006",
  "DerivedVendorReportedEchoSpacing": 0.000539986,
  "DeviceSerialNumber": "166078",
  "DwellTime": 2.1e-06,
  "EchoTime": 0.034,
  "EchoTrainLength": 100,
  "EffectiveEchoSpacing": 0.000539986,
  "FlipAngle": 90,
  "ImageOrientationPatientDICOM": [0.992782, 0.0329896, 0.115305, -4.90892e-09, 0.961424, -0.275071],
  "ImageOrientationText": "Tra>Cor(-16.0)>Sag(6.9)",
  "ImageType": [
    "ORIGINAL",
    "PRIMARY",
    "M",
    "ND",
    "MOSAIC"
],
  "ImagingFrequency": 123.258,
  "InPlanePhaseEncodingDirectionDICOM": "COL",
  "InstitutionAddress": "Street StreetNo,Bei Jing,District,CN,ZIP",
  "InstitutionName": "BeiJing Normal University",
  "InstitutionalDepartmentName": "Department",
  "MRAcquisitionType": "2D",
  "MagneticFieldStrength": 3,
  "Manufacturer": "Siemens",
  "ManufacturersModelName": "Prisma",
  "Modality": "MR",
  "MultibandAccelerationFactor": 3,
  "PartialFourier": 1,
  "PatientPosition": "HFS",
  "PercentPhaseFOV": 100,
  "PercentSampling": 100,
  "PhaseEncodingDirection": "j-",
  "PhaseEncodingSteps": 100,
  "PhaseResolution": 1,
  "PixelBandwidth": 2380,
  "ProcedureStepDescription": "BNU_P2018_64CH^Zhen.ZongLei",
  "ProtocolName": "bold_100x100_s3_2x2x2_static_156",
  "PulseSequenceDetails": "%SiemensSeq%\\ep2d_bold",
  "ReceiveCoilActiveElements": "HC1-7;NC1",
  "ReceiveCoilName": "HeadNeck_64",
  "ReconMatrixPE": 100,
  "RefLinesPE": 32,
  "RepetitionTime": 2,
  "SAR": 0.0673559,
  "ScanOptions": "FS",
  "ScanningSequence": "EP",
  "SequenceName": "*epfid2d1_100",
  "SequenceVariant": "SK",
  "SeriesDescription": "bold_100x100_s3_2x2x2_static_156",
  "SeriesNumber": 8,
  "ShimSetting": [-5436, -11395, -1356, 581, -48, -434, -206, -7],
  "SliceThickness": 2,
  "SliceTiming": [1.485, 0, 0.99, 0.0825, 1.0725, 0.165, 1.155, 0.2475, 1.2375, 0.33, 1.32, 0.4125, 1.4025, 0.5775, 1.5675, 0.66, 1.65, 0.7425, 1.7325, 0.825, 1.815, 0.9075, 1.8975, 0.495, 1.485, 0, 0.99, 0.0825, 1.0725, 0.165, 1.155, 0.2475, 1.2375, 0.33, 1.32, 0.4125, 1.4025, 0.5775, 1.5675, 0.66, 1.65, 0.7425, 1.7325, 0.825, 1.815, 0.9075, 1.8975, 0.495, 1.485, 0, 0.99, 0.0825, 1.0725, 0.165, 1.155, 0.2475, 1.2375, 0.33, 1.32, 0.4125, 1.4025, 0.5775, 1.5675, 0.66, 1.65, 0.7425, 1.7325, 0.825, 1.815, 0.9075, 1.8975, 0.495],
  "SoftwareVersions": "syngo MR E11",
  "SpacingBetweenSlices": 2,
  "StationName": "AWP166078",
  "TaskName": "action",
  "TotalReadoutTime": 0.0534586,
  "TxRefAmp": 214.747,
  "dcmmeta_affine": [
    [-1.9855643510818481, -9.81784964437793e-09, 0.2398625612258911, 88.4902572631836],
    [-0.06597921252250671, 1.922847867012024, -0.5461709499359131, -62.96708679199219],
    [0.23060961067676544, 0.5501417517662048, 1.9089691638946533, -122.26056671142578],
    [0.0, 0.0, 0.0, 1.0]
],
  "dcmmeta_reorient_transform": [
    [0.0, -1.0, 0.0, 99.0],
    [1.0, 0.0, 0.0, 0.0],
    [0.0, 0.0, 1.0, 0.0],
    [0.0, 0.0, 0.0, 1.0]
],
  "dcmmeta_shape": [100, 100, 72, 156],
  "dcmmeta_slice_dim": 2,
  "dcmmeta_version": 0.6,
  "global": {
    "const": {
      "AcquisitionMatrix": [100, 0, 0, 100],
      "AngioFlag": "N",
      "BitsAllocated": 16,
      "BitsStored": 12,
      "BodyPartExamined": "BRAIN",
      "Columns": 900,
      "EchoNumbers": 1,
      "EchoTime": 34.0,
      "EchoTrainLength": 100,
      "FlipAngle": 90.0,
      "HighBit": 11,
      "ImageOrientationPatient": [0.99278219541508, 0.0329896076854, 0.11530480584768, -4.908925e-09, 0.96142395050133, -0.2750708770525],
      "ImagePositionPatient": [-882.716005681, -922.92570120839, 60.016324130716],
      "ImageType": [
        "ORIGINAL",
        "PRIMARY",
        "M",
        "ND",
        "MOSAIC"
],
      "ImagedNucleus": "1H",
      "ImagingFrequency": 123.257788,
      "InPlanePhaseEncodingDirection": "COL",
      "MRAcquisitionType": "2D",
      "MagneticFieldStrength": 3.0,
      "Manufacturer": "SIEMENS",
      "ManufacturerModelName": "Prisma",
      "Modality": "MR",
      "NumberOfAverages": 1.0,
      "NumberOfPhaseEncodingSteps": 100,
      "PercentPhaseFieldOfView": 100.0,
      "PercentSampling": 100.0,
      "PerformedProcedureStepStartTime": "125828.269000",
      "PhotometricInterpretation": "MONOCHROME2",
      "PixelBandwidth": 2380.0,
      "PixelRepresentation": 0,
      "PixelSpacing": [2.0, 2.0],
      "ProtocolName": "bold_100x100_s3_2x2x2_static_156",
      "RepetitionTime": 2000.0,
      "Rows": 900,
      "SAR": 0.06735592549513,
      "SamplesPerPixel": 1,
      "ScanOptions": "FS",
      "ScanningSequence": "EP",
      "SequenceName": "*epfid2d1_100",
      "SequenceVariant": "SK",
      "SeriesDescription": "bold_100x100_s3_2x2x2_static_156",
      "SeriesNumber": 8,
      "SeriesTime": "133718.344000",
      "SliceLocation": -88.887679242493,
      "SliceThickness": 2.0,
      "SmallestImagePixelValue": 0,
      "SoftwareVersions": "syngo MR E11",
      "SpacingBetweenSlices": 2.0000000325568,
      "SpecificCharacterSet": "ISO_IR 100",
      "StudyID": "1",
      "StudyTime": "125828.187000",
      "TransmitCoilName": "Body",
      "VariableFlipAngleFlag": "N",
      "WindowCenterWidthExplanation": "Algo1",
      "dBdt": 0.0},
    "slices": {}
  },
  "time": {
    "samples": {
      "AcquisitionNumber": [1, 2, 3, 4, 5, 6, 7, 8, 9, 10, 11, 12, 13, 14, 15, 16, 17, 18, 19, 20, 21, 22, 23, 24, 25, 26, 27, 28, 29, 30, 31, 32, 33, 34, 35, 36, 37, 38, 39, 40, 41, 42, 43, 44, 45, 46, 47, 48, 49, 50, 51, 52, 53, 54, 55, 56, 57, 58, 59, 60, 61, 62, 63, 64, 65, 66, 67, 68, 69, 70, 71, 72, 73, 74, 75, 76, 77, 78, 79, 80, 81, 82, 83, 84, 85, 86, 87, 88, 89, 90, 91, 92, 93, 94, 95, 96, 97, 98, 99, 100, 101, 102, 103, 104, 105, 106, 107, 108, 109, 110, 111, 112, 113, 114, 115, 116, 117, 118, 119, 120, 121, 122, 123, 124, 125, 126, 127, 128, 129, 130, 131, 132, 133, 134, 135, 136, 137, 138, 139, 140, 141, 142, 143, 144, 145, 146, 147, 148, 149, 150, 151, 152, 153, 154, 155, 156],
      "AcquisitionTime": ["133716.237500", "133718.237500", "133720.237500", "133722.237500", "133724.237500", "133726.237500", "133728.237500", "133730.237500", "133732.237500", "133734.237500", "133736.237500", "133738.237500", "133740.237500", "133742.237500", "133744.237500", "133746.237500", "133748.237500", "133750.237500", "133752.237500", "133754.237500", "133756.237500", "133758.237500", "133800.237500", "133802.237500", "133804.237500", "133806.237500", "133808.237500", "133810.237500", "133812.237500", "133814.237500", "133816.237500", "133818.237500", "133820.237500", "133822.237500", "133824.237500", "133826.237500", "133828.237500", "133830.237500", "133832.237500", "133834.237500", "133836.237500", "133838.237500", "133840.237500", "133842.237500", "133844.237500", "133846.237500", "133848.237500", "133850.237500", "133852.237500", "133854.237500", "133856.237500", "133858.237500", "133900.237500", "133902.237500", "133904.237500", "133906.237500", "133908.237500", "133910.237500", "133912.237500", "133914.237500", "133916.237500", "133918.237500", "133920.237500", "133922.237500", "133924.237500", "133926.237500", "133928.237500", "133930.237500", "133932.237500", "133934.237500", "133936.237500", "133938.237500", "133940.237500", "133942.237500", "133944.237500", "133946.237500", "133948.237500", "133950.237500", "133952.237500", "133954.237500", "133956.237500", "133958.237500", "134000.237500", "134002.237500", "134004.237500", "134006.237500", "134008.237500", "134010.237500", "134012.237500", "134014.237500", "134016.237500", "134018.237500", "134020.237500", "134022.237500", "134024.237500", "134026.237500", "134028.237500", "134030.237500", "134032.237500", "134034.237500", "134036.237500", "134038.237500", "134040.237500", "134042.237500", "134044.237500", "134046.237500", "134048.237500", "134050.237500", "134052.237500", "134054.237500", "134056.237500", "134058.237500", "134100.237500", "134102.237500", "134104.237500", "134106.237500", "134108.237500", "134110.237500", "134112.237500", "134114.237500", "134116.237500", "134118.237500", "134120.237500", "134122.237500", "134124.237500", "134126.237500", "134128.237500", "134130.237500", "134132.237500", "134134.237500", "134136.237500", "134138.237500", "134140.237500", "134142.237500", "134144.237500", "134146.237500", "134148.237500", "134150.237500", "134152.237500", "134154.237500", "134156.237500", "134158.237500", "134200.237500", "134202.237500", "134204.237500", "134206.237500", "134208.237500", "134210.237500", "134212.237500", "134214.237500", "134216.237500", "134218.237500", "134220.237500", "134222.237500", "134224.237500", "134226.237500"],
      "ContentTime": ["133718.348000", "133719.844000", "133721.844000", "133723.843000", "133725.843000", "133727.843000", "133729.844000", "133731.844000", "133733.844000", "133735.844000", "133737.844000", "133739.843000", "133741.844000", "133743.843000", "133745.844000", "133747.844000", "133749.843000", "133751.844000", "133753.844000", "133755.844000", "133757.844000", "133759.844000", "133801.843000", "133803.843000", "133805.844000", "133807.844000", "133809.843000", "133811.843000", "133813.843000", "133815.844000", "133817.844000", "133819.843000", "133821.843000", "133823.844000", "133825.844000", "133827.844000", "133829.844000", "133831.844000", "133833.844000", "133835.844000", "133837.843000", "133839.843000", "133841.844000", "133843.843000", "133845.844000", "133847.843000", "133849.843000", "133851.844000", "133853.843000", "133855.844000", "133857.844000", "133859.844000", "133901.844000", "133903.844000", "133905.844000", "133907.844000", "133909.844000", "133911.844000", "133913.844000", "133915.843000", "133917.844000", "133919.844000", "133921.844000", "133923.843000", "133925.844000", "133927.844000", "133929.842000", "133931.844000", "133933.844000", "133935.844000", "133937.844000", "133939.844000", "133941.843000", "133943.844000", "133945.843000", "133947.844000", "133949.844000", "133951.844000", "133953.843000", "133955.844000", "133957.844000", "133959.844000", "134001.843000", "134003.844000", "134005.844000", "134007.843000", "134009.844000", "134011.843000", "134013.844000", "134015.844000", "134017.843000", "134019.843000", "134021.843000", "134023.844000", "134025.843000", "134027.843000", "134029.843000", "134031.844000", "134033.843000", "134035.843000", "134037.844000", "134039.842000", "134041.844000", "134043.844000", "134045.844000", "134047.844000", "134049.844000", "134051.844000", "134053.843000", "134055.844000", "134057.844000", "134059.843000", "134101.844000", "134103.843000", "134105.843000", "134107.844000", "134109.844000", "134111.844000", "134113.843000", "134115.843000", "134117.844000", "134119.844000", "134121.844000", "134123.844000", "134125.843000", "134127.844000", "134129.844000", "134131.844000", "134133.844000", "134135.843000", "134137.844000", "134139.843000", "134141.844000", "134143.844000", "134145.843000", "134147.844000", "134149.843000", "134151.843000", "134153.843000", "134155.844000", "134157.844000", "134159.844000", "134201.843000", "134203.844000", "134205.844000", "134207.844000", "134209.843000", "134211.844000", "134213.844000", "134215.844000", "134217.844000", "134219.844000", "134221.844000", "134223.843000", "134225.844000", "134227.530000"],
      "InstanceCreationTime": ["133718.348000", "133719.844000", "133721.844000", "133723.843000", "133725.843000", "133727.843000", "133729.844000", "133731.844000", "133733.844000", "133735.844000", "133737.844000", "133739.843000", "133741.844000", "133743.843000", "133745.844000", "133747.844000", "133749.843000", "133751.844000", "133753.844000", "133755.844000", "133757.844000", "133759.844000", "133801.843000", "133803.843000", "133805.844000", "133807.844000", "133809.843000", "133811.843000", "133813.843000", "133815.844000", "133817.844000", "133819.843000", "133821.843000", "133823.844000", "133825.844000", "133827.844000", "133829.844000", "133831.844000", "133833.844000", "133835.844000", "133837.843000", "133839.843000", "133841.844000", "133843.843000", "133845.844000", "133847.843000", "133849.843000", "133851.844000", "133853.843000", "133855.844000", "133857.844000", "133859.844000", "133901.844000", "133903.844000", "133905.844000", "133907.844000", "133909.844000", "133911.844000", "133913.844000", "133915.843000", "133917.844000", "133919.844000", "133921.844000", "133923.843000", "133925.844000", "133927.844000", "133929.842000", "133931.844000", "133933.844000", "133935.844000", "133937.844000", "133939.844000", "133941.843000", "133943.844000", "133945.843000", "133947.844000", "133949.844000", "133951.844000", "133953.843000", "133955.844000", "133957.844000", "133959.844000", "134001.843000", "134003.844000", "134005.844000", "134007.843000", "134009.844000", "134011.843000", "134013.844000", "134015.844000", "134017.843000", "134019.843000", "134021.843000", "134023.844000", "134025.843000", "134027.843000", "134029.843000", "134031.844000", "134033.843000", "134035.843000", "134037.844000", "134039.842000", "134041.844000", "134043.844000", "134045.844000", "134047.844000", "134049.844000", "134051.844000", "134053.843000", "134055.844000", "134057.844000", "134059.843000", "134101.844000", "134103.843000", "134105.843000", "134107.844000", "134109.844000", "134111.844000", "134113.843000", "134115.843000", "134117.844000", "134119.844000", "134121.844000", "134123.844000", "134125.843000", "134127.844000", "134129.844000", "134131.844000", "134133.844000", "134135.843000", "134137.844000", "134139.843000", "134141.844000", "134143.844000", "134145.843000", "134147.844000", "134149.843000", "134151.843000", "134153.843000", "134155.844000", "134157.844000", "134159.844000", "134201.843000", "134203.844000", "134205.844000", "134207.844000", "134209.843000", "134211.844000", "134213.844000", "134215.844000", "134217.844000", "134219.844000", "134221.844000", "134223.843000", "134225.844000", "134227.530000"],
      "InstanceNumber": [1, 2, 3, 4, 5, 6, 7, 8, 9, 10, 11, 12, 13, 14, 15, 16, 17, 18, 19, 20, 21, 22, 23, 24, 25, 26, 27, 28, 29, 30, 31, 32, 33, 34, 35, 36, 37, 38, 39, 40, 41, 42, 43, 44, 45, 46, 47, 48, 49, 50, 51, 52, 53, 54, 55, 56, 57, 58, 59, 60, 61, 62, 63, 64, 65, 66, 67, 68, 69, 70, 71, 72, 73, 74, 75, 76, 77, 78, 79, 80, 81, 82, 83, 84, 85, 86, 87, 88, 89, 90, 91, 92, 93, 94, 95, 96, 97, 98, 99, 100, 101, 102, 103, 104, 105, 106, 107, 108, 109, 110, 111, 112, 113, 114, 115, 116, 117, 118, 119, 120, 121, 122, 123, 124, 125, 126, 127, 128, 129, 130, 131, 132, 133, 134, 135, 136, 137, 138, 139, 140, 141, 142, 143, 144, 145, 146, 147, 148, 149, 150, 151, 152, 153, 154, 155, 156],
      "LargestImagePixelValue": [2611, 2791, 2668, 2665, 2705, 2639, 2671, 2717, 2615, 2632, 2701, 2608, 2621, 2638, 2626, 2738, 2782, 2647, 2623, 2641, 2603, 2647, 2681, 2610, 2772, 2622, 2627, 2738, 2647, 2620, 2637, 2591, 2656, 2602, 2633, 2646, 2640, 2605, 2606, 2652, 2614, 2620, 2713, 2746, 2627, 2622, 2630, 2675, 2624, 2628, 2616, 2756, 2603, 2613, 2629, 2695, 2634, 2654, 2713, 2655, 2626, 2683, 2657, 2621, 2615, 2599, 2634, 2620, 2631, 2690, 2732, 2707, 2697, 2695, 2670, 2640, 2740, 2684, 2655, 2710, 2706, 2617, 2761, 2738, 2717, 2695, 2721, 2736, 2751, 2677, 2673, 2755, 2718, 2709, 2678, 2651, 2778, 2761, 2712, 2721, 2726, 2717, 2846, 2789, 2747, 2749, 2701, 2676, 2705, 2685, 2722, 2767, 2786, 2722, 2717, 2672, 2640, 2765, 2690, 2716, 2761, 2709, 2768, 2792, 2759, 2723, 2670, 2781, 2729, 2746, 2744, 2748, 2721, 2739, 2716, 2790, 2756, 2689, 2728, 2772, 2746, 2791, 2742, 2786, 2798, 2764, 2737, 2747, 2659, 2778, 2700, 2740, 2771, 2710, 3001, 2785],
      "WindowCenter": [749.0, 751.0, 750.0, 749.0, 748.0, 747.0, 746.0, 748.0, 747.0, 748.0, 748.0, 748.0, 748.0, 749.0, 749.0, 751.0, 751.0, 749.0, 747.0, 748.0, 749.0, 749.0, 749.0, 748.0, 751.0, 748.0, 748.0, 750.0, 749.0, 748.0, 747.0, 746.0, 748.0, 747.0, 747.0, 746.0, 747.0, 747.0, 747.0, 748.0, 747.0, 748.0, 748.0, 749.0, 748.0, 748.0, 748.0, 748.0, 747.0, 748.0, 747.0, 750.0, 747.0, 747.0, 747.0, 747.0, 748.0, 748.0, 749.0, 747.0, 747.0, 748.0, 748.0, 748.0, 748.0, 748.0, 748.0, 748.0, 748.0, 749.0, 749.0, 749.0, 749.0, 749.0, 749.0, 748.0, 749.0, 747.0, 747.0, 749.0, 749.0, 747.0, 749.0, 749.0, 750.0, 748.0, 748.0, 748.0, 749.0, 748.0, 747.0, 748.0, 748.0, 748.0, 748.0, 748.0, 750.0, 749.0, 747.0, 749.0, 750.0, 750.0, 751.0, 751.0, 751.0, 751.0, 750.0, 748.0, 749.0, 749.0, 749.0, 749.0, 749.0, 749.0, 749.0, 747.0, 747.0, 750.0, 750.0, 749.0, 750.0, 750.0, 750.0, 753.0, 754.0, 752.0, 748.0, 749.0, 748.0, 749.0, 750.0, 749.0, 749.0, 750.0, 749.0, 750.0, 750.0, 749.0, 750.0, 751.0, 751.0, 751.0, 750.0, 752.0, 752.0, 749.0, 748.0, 748.0, 747.0, 750.0, 749.0, 749.0, 750.0, 749.0, 753.0, 749.0],
      "WindowWidth": [1612.0, 1617.0, 1615.0, 1614.0, 1611.0, 1608.0, 1607.0, 1610.0, 1609.0, 1611.0, 1612.0, 1610.0, 1611.0, 1615.0, 1615.0, 1618.0, 1619.0, 1613.0, 1609.0, 1610.0, 1613.0, 1614.0, 1613.0, 1610.0, 1618.0, 1612.0, 1610.0, 1616.0, 1614.0, 1612.0, 1610.0, 1607.0, 1611.0, 1609.0, 1608.0, 1607.0, 1608.0, 1609.0, 1610.0, 1612.0, 1610.0, 1611.0, 1612.0, 1612.0, 1610.0, 1612.0, 1613.0, 1612.0, 1609.0, 1610.0, 1609.0, 1616.0, 1610.0, 1609.0, 1608.0, 1609.0, 1610.0, 1611.0, 1613.0, 1610.0, 1609.0, 1612.0, 1611.0, 1610.0, 1612.0, 1610.0, 1611.0, 1610.0, 1611.0, 1613.0, 1614.0, 1612.0, 1614.0, 1615.0, 1614.0, 1612.0, 1613.0, 1609.0, 1608.0, 1615.0, 1615.0, 1610.0, 1612.0, 1614.0, 1615.0, 1612.0, 1611.0, 1611.0, 1613.0, 1611.0, 1608.0, 1611.0, 1611.0, 1612.0, 1610.0, 1611.0, 1615.0, 1613.0, 1609.0, 1614.0, 1615.0, 1616.0, 1619.0, 1618.0, 1619.0, 1619.0, 1615.0, 1611.0, 1614.0, 1613.0, 1614.0, 1613.0, 1614.0, 1612.0, 1612.0, 1609.0, 1608.0, 1616.0, 1615.0, 1614.0, 1614.0, 1614.0, 1616.0, 1623.0, 1626.0, 1620.0, 1611.0, 1612.0, 1611.0, 1614.0, 1615.0, 1613.0, 1613.0, 1615.0, 1614.0, 1616.0, 1615.0, 1613.0, 1617.0, 1618.0, 1617.0, 1618.0, 1615.0, 1620.0, 1620.0, 1613.0, 1611.0, 1612.0, 1609.0, 1615.0, 1613.0, 1613.0, 1616.0, 1613.0, 1621.0, 1612.0]
    },
    "slices": {}
  }
}