{
  "AcquisitionMatrixPE": 100,
  "AcquisitionNumber": 1,
  "AcquisitionTime": "13:06:25.662500",
  "BandwidthPerPixelPhaseEncode": 18.519,
  "BaseResolution": 100,
  "BodyPartExamined": "BRAIN",
  "CoilCombinationMethod": "Sum of Squares",
  "ConsistencyInfo": "N4_VE11C_LATEST_20160120",
  "ConversionSoftware": "dcm2niix",
  "ConversionSoftwareVersion": "v1.0.20211006",
  "DerivedVendorReportedEchoSpacing": 0.000539986,
  "DeviceSerialNumber": "166078",
  "DwellTime": 2.1e-06,
  "EchoTime": 0.034,
  "EchoTrainLength": 100,
  "EffectiveEchoSpacing": 0.000539986,
  "FlipAngle": 90,
  "ImageOrientationPatientDICOM": [0.992782, 0.0329896, 0.115305, -4.90892e-09, 0.961424, -0.275071],
  "ImageOrientationText": "Tra>Cor(-16.0)>Sag(6.9)",
  "ImageType": [
    "ORIGINAL",
    "PRIMARY",
    "M",
    "ND",
    "MOSAIC"
],
  "ImagingFrequency": 123.258,
  "InPlanePhaseEncodingDirectionDICOM": "COL",
  "InstitutionAddress": "Street StreetNo,Bei Jing,District,CN,ZIP",
  "InstitutionName": "BeiJing Normal University",
  "InstitutionalDepartmentName": "Department",
  "MRAcquisitionType": "2D",
  "MagneticFieldStrength": 3,
  "Manufacturer": "Siemens",
  "ManufacturersModelName": "Prisma",
  "Modality": "MR",
  "MultibandAccelerationFactor": 3,
  "PartialFourier": 1,
  "PatientPosition": "HFS",
  "PercentPhaseFOV": 100,
  "PercentSampling": 100,
  "PhaseEncodingDirection": "j-",
  "PhaseEncodingSteps": 100,
  "PhaseResolution": 1,
  "PixelBandwidth": 2380,
  "ProcedureStepDescription": "BNU_P2018_64CH^Zhen.ZongLei",
  "ProtocolName": "bold_100x100_s3_2x2x2_static_156",
  "PulseSequenceDetails": "%SiemensSeq%\\ep2d_bold",
  "ReceiveCoilActiveElements": "HC1-7;NC1",
  "ReceiveCoilName": "HeadNeck_64",
  "ReconMatrixPE": 100,
  "RefLinesPE": 32,
  "RepetitionTime": 2,
  "SAR": 0.0673559,
  "ScanOptions": "FS",
  "ScanningSequence": "EP",
  "SequenceName": "*epfid2d1_100",
  "SequenceVariant": "SK",
  "SeriesDescription": "bold_100x100_s3_2x2x2_static_156",
  "SeriesNumber": 3,
  "ShimSetting": [-5436, -11395, -1356, 581, -48, -434, -206, -7],
  "SliceThickness": 2,
  "SliceTiming": [1.485, 0, 0.99, 0.0825, 1.0725, 0.165, 1.155, 0.2475, 1.2375, 0.33, 1.32, 0.4125, 1.4025, 0.5775, 1.5675, 0.66, 1.65, 0.7425, 1.7325, 0.825, 1.815, 0.9075, 1.8975, 0.495, 1.485, 0, 0.99, 0.0825, 1.0725, 0.165, 1.155, 0.2475, 1.2375, 0.33, 1.32, 0.4125, 1.4025, 0.5775, 1.5675, 0.66, 1.65, 0.7425, 1.7325, 0.825, 1.815, 0.9075, 1.8975, 0.495, 1.485, 0, 0.99, 0.0825, 1.0725, 0.165, 1.155, 0.2475, 1.2375, 0.33, 1.32, 0.4125, 1.4025, 0.5775, 1.5675, 0.66, 1.65, 0.7425, 1.7325, 0.825, 1.815, 0.9075, 1.8975, 0.495],
  "SoftwareVersions": "syngo MR E11",
  "SpacingBetweenSlices": 2,
  "StationName": "AWP166078",
  "TaskName": "action",
  "TotalReadoutTime": 0.0534586,
  "TxRefAmp": 214.747,
  "dcmmeta_affine": [
    [-1.9855643510818481, -9.81784964437793e-09, 0.2398625612258911, 88.4902572631836],
    [-0.06597921252250671, 1.922847867012024, -0.5461709499359131, -62.96708679199219],
    [0.23060961067676544, 0.5501417517662048, 1.9089691638946533, -122.26056671142578],
    [0.0, 0.0, 0.0, 1.0]
],
  "dcmmeta_reorient_transform": [
    [0.0, -1.0, 0.0, 99.0],
    [1.0, 0.0, 0.0, 0.0],
    [0.0, 0.0, 1.0, 0.0],
    [0.0, 0.0, 0.0, 1.0]
],
  "dcmmeta_shape": [100, 100, 72, 156],
  "dcmmeta_slice_dim": 2,
  "dcmmeta_version": 0.6,
  "global": {
    "const": {
      "AcquisitionMatrix": [100, 0, 0, 100],
      "AngioFlag": "N",
      "BitsAllocated": 16,
      "BitsStored": 12,
      "BodyPartExamined": "BRAIN",
      "Columns": 900,
      "EchoNumbers": 1,
      "EchoTime": 34.0,
      "EchoTrainLength": 100,
      "FlipAngle": 90.0,
      "HighBit": 11,
      "ImageOrientationPatient": [0.99278219541508, 0.0329896076854, 0.11530480584768, -4.908925e-09, 0.96142395050133, -0.2750708770525],
      "ImagePositionPatient": [-882.716005681, -922.92570120839, 60.016324130716],
      "ImageType": [
        "ORIGINAL",
        "PRIMARY",
        "M",
        "ND",
        "MOSAIC"
],
      "ImagedNucleus": "1H",
      "ImagingFrequency": 123.257772,
      "InPlanePhaseEncodingDirection": "COL",
      "MRAcquisitionType": "2D",
      "MagneticFieldStrength": 3.0,
      "Manufacturer": "SIEMENS",
      "ManufacturerModelName": "Prisma",
      "Modality": "MR",
      "NumberOfAverages": 1.0,
      "NumberOfPhaseEncodingSteps": 100,
      "PercentPhaseFieldOfView": 100.0,
      "PercentSampling": 100.0,
      "PerformedProcedureStepStartTime": "125828.269000",
      "PhotometricInterpretation": "MONOCHROME2",
      "PixelBandwidth": 2380.0,
      "PixelRepresentation": 0,
      "PixelSpacing": [2.0, 2.0],
      "ProtocolName": "bold_100x100_s3_2x2x2_static_156",
      "RepetitionTime": 2000.0,
      "Rows": 900,
      "SAR": 0.06735592549513,
      "SamplesPerPixel": 1,
      "ScanOptions": "FS",
      "ScanningSequence": "EP",
      "SequenceName": "*epfid2d1_100",
      "SequenceVariant": "SK",
      "SeriesDescription": "bold_100x100_s3_2x2x2_static_156",
      "SeriesNumber": 3,
      "SeriesTime": "130628.073000",
      "SliceLocation": -88.887679242493,
      "SliceThickness": 2.0,
      "SmallestImagePixelValue": 0,
      "SoftwareVersions": "syngo MR E11",
      "SpacingBetweenSlices": 2.0000000325568,
      "SpecificCharacterSet": "ISO_IR 100",
      "StudyID": "1",
      "StudyTime": "125828.187000",
      "TransmitCoilName": "Body",
      "VariableFlipAngleFlag": "N",
      "WindowCenterWidthExplanation": "Algo1",
      "dBdt": 0.0},
    "slices": {}
  },
  "time": {
    "samples": {
      "AcquisitionNumber": [1, 2, 3, 4, 5, 6, 7, 8, 9, 10, 11, 12, 13, 14, 15, 16, 17, 18, 19, 20, 21, 22, 23, 24, 25, 26, 27, 28, 29, 30, 31, 32, 33, 34, 35, 36, 37, 38, 39, 40, 41, 42, 43, 44, 45, 46, 47, 48, 49, 50, 51, 52, 53, 54, 55, 56, 57, 58, 59, 60, 61, 62, 63, 64, 65, 66, 67, 68, 69, 70, 71, 72, 73, 74, 75, 76, 77, 78, 79, 80, 81, 82, 83, 84, 85, 86, 87, 88, 89, 90, 91, 92, 93, 94, 95, 96, 97, 98, 99, 100, 101, 102, 103, 104, 105, 106, 107, 108, 109, 110, 111, 112, 113, 114, 115, 116, 117, 118, 119, 120, 121, 122, 123, 124, 125, 126, 127, 128, 129, 130, 131, 132, 133, 134, 135, 136, 137, 138, 139, 140, 141, 142, 143, 144, 145, 146, 147, 148, 149, 150, 151, 152, 153, 154, 155, 156],
      "AcquisitionTime": ["130625.662500", "130627.662500", "130629.662500", "130631.662500", "130633.662500", "130635.662500", "130637.662500", "130639.662500", "130641.662500", "130643.662500", "130645.662500", "130647.662500", "130649.662500", "130651.662500", "130653.662500", "130655.662500", "130657.662500", "130659.662500", "130701.662500", "130703.662500", "130705.662500", "130707.662500", "130709.662500", "130711.662500", "130713.662500", "130715.662500", "130717.662500", "130719.662500", "130721.662500", "130723.662500", "130725.662500", "130727.662500", "130729.662500", "130731.662500", "130733.662500", "130735.662500", "130737.662500", "130739.662500", "130741.662500", "130743.662500", "130745.662500", "130747.662500", "130749.662500", "130751.662500", "130753.662500", "130755.662500", "130757.662500", "130759.662500", "130801.662500", "130803.662500", "130805.662500", "130807.662500", "130809.662500", "130811.662500", "130813.662500", "130815.662500", "130817.662500", "130819.662500", "130821.662500", "130823.662500", "130825.662500", "130827.662500", "130829.662500", "130831.662500", "130833.662500", "130835.662500", "130837.662500", "130839.662500", "130841.662500", "130843.662500", "130845.662500", "130847.662500", "130849.662500", "130851.662500", "130853.662500", "130855.662500", "130857.662500", "130859.662500", "130901.662500", "130903.662500", "130905.662500", "130907.662500", "130909.662500", "130911.662500", "130913.662500", "130915.662500", "130917.662500", "130919.662500", "130921.662500", "130923.662500", "130925.662500", "130927.662500", "130929.662500", "130931.662500", "130933.662500", "130935.662500", "130937.662500", "130939.662500", "130941.662500", "130943.662500", "130945.662500", "130947.662500", "130949.662500", "130951.662500", "130953.662500", "130955.662500", "130957.662500", "130959.662500", "131001.662500", "131003.662500", "131005.662500", "131007.662500", "131009.662500", "131011.662500", "131013.662500", "131015.662500", "131017.662500", "131019.662500", "131021.662500", "131023.662500", "131025.662500", "131027.662500", "131029.662500", "131031.662500", "131033.662500", "131035.662500", "131037.662500", "131039.662500", "131041.662500", "131043.662500", "131045.662500", "131047.662500", "131049.662500", "131051.662500", "131053.662500", "131055.662500", "131057.662500", "131059.662500", "131101.662500", "131103.662500", "131105.662500", "131107.662500", "131109.662500", "131111.662500", "131113.662500", "131115.662500", "131117.662500", "131119.662500", "131121.662500", "131123.662500", "131125.662500", "131127.662500", "131129.662500", "131131.662500", "131133.662500", "131135.662500"],
      "ContentTime": ["130628.077000", "130629.573000", "130631.573000", "130633.572000", "130635.573000", "130637.573000", "130639.573000", "130641.573000", "130643.573000", "130645.573000", "130647.573000", "130649.572000", "130651.572000", "130653.573000", "130655.573000", "130657.573000", "130659.572000", "130701.572000", "130703.573000", "130705.572000", "130707.572000", "130709.573000", "130711.572000", "130713.572000", "130715.573000", "130717.572000", "130719.572000", "130721.572000", "130723.571000", "130725.571000", "130727.572000", "130729.573000", "130731.572000", "130733.572000", "130735.572000", "130737.573000", "130739.573000", "130741.572000", "130743.071000", "130745.572000", "130747.573000", "130749.573000", "130751.573000", "130753.573000", "130755.572000", "130757.573000", "130759.572000", "130801.571000", "130803.573000", "130805.572000", "130807.572000", "130809.572000", "130811.573000", "130813.572000", "130815.571000", "130817.572000", "130819.573000", "130821.572000", "130823.572000", "130825.572000", "130827.573000", "130829.573000", "130831.573000", "130833.572000", "130835.572000", "130837.572000", "130839.573000", "130841.573000", "130843.572000", "130845.573000", "130847.573000", "130849.573000", "130851.572000", "130853.571000", "130855.573000", "130857.573000", "130859.572000", "130901.572000", "130903.573000", "130905.572000", "130907.073000", "130909.571000", "130911.572000", "130913.573000", "130915.573000", "130917.572000", "130919.572000", "130921.572000", "130923.573000", "130925.572000", "130927.572000", "130929.573000", "130931.573000", "130933.572000", "130935.573000", "130937.572000", "130939.573000", "130941.572000", "130943.571000", "130945.572000", "130947.573000", "130949.572000", "130951.573000", "130953.572000", "130955.572000", "130957.573000", "130959.573000", "131001.571000", "131003.571000", "131005.572000", "131007.573000", "131009.572000", "131011.573000", "131013.573000", "131015.572000", "131017.573000", "131019.572000", "131021.573000", "131023.573000", "131025.573000", "131027.573000", "131029.573000", "131031.573000", "131033.573000", "131035.572000", "131037.572000", "131039.573000", "131041.572000", "131043.573000", "131045.572000", "131047.573000", "131049.572000", "131051.573000", "131053.571000", "131055.572000", "131057.572000", "131059.573000", "131101.572000", "131103.573000", "131105.573000", "131107.573000", "131109.573000", "131111.572000", "131113.572000", "131115.573000", "131117.573000", "131119.572000", "131121.573000", "131123.572000", "131125.573000", "131127.573000", "131129.571000", "131131.572000", "131133.573000", "131135.572000", "131137.090000"],
      "InstanceCreationTime": ["130628.077000", "130629.573000", "130631.573000", "130633.572000", "130635.573000", "130637.573000", "130639.573000", "130641.573000", "130643.573000", "130645.573000", "130647.573000", "130649.572000", "130651.572000", "130653.573000", "130655.573000", "130657.573000", "130659.572000", "130701.572000", "130703.573000", "130705.572000", "130707.572000", "130709.573000", "130711.572000", "130713.572000", "130715.573000", "130717.572000", "130719.572000", "130721.572000", "130723.571000", "130725.571000", "130727.572000", "130729.573000", "130731.572000", "130733.572000", "130735.572000", "130737.573000", "130739.573000", "130741.572000", "130743.071000", "130745.572000", "130747.573000", "130749.573000", "130751.573000", "130753.573000", "130755.572000", "130757.573000", "130759.572000", "130801.571000", "130803.573000", "130805.572000", "130807.572000", "130809.572000", "130811.573000", "130813.572000", "130815.571000", "130817.572000", "130819.573000", "130821.572000", "130823.572000", "130825.572000", "130827.573000", "130829.573000", "130831.573000", "130833.572000", "130835.572000", "130837.572000", "130839.573000", "130841.573000", "130843.572000", "130845.573000", "130847.573000", "130849.573000", "130851.572000", "130853.571000", "130855.573000", "130857.573000", "130859.572000", "130901.572000", "130903.573000", "130905.572000", "130907.073000", "130909.571000", "130911.572000", "130913.573000", "130915.573000", "130917.572000", "130919.572000", "130921.572000", "130923.573000", "130925.572000", "130927.572000", "130929.573000", "130931.573000", "130933.572000", "130935.573000", "130937.572000", "130939.573000", "130941.572000", "130943.571000", "130945.572000", "130947.573000", "130949.572000", "130951.573000", "130953.572000", "130955.572000", "130957.573000", "130959.573000", "131001.571000", "131003.571000", "131005.572000", "131007.573000", "131009.572000", "131011.573000", "131013.573000", "131015.572000", "131017.573000", "131019.572000", "131021.573000", "131023.573000", "131025.573000", "131027.573000", "131029.573000", "131031.573000", "131033.573000", "131035.572000", "131037.572000", "131039.573000", "131041.572000", "131043.573000", "131045.572000", "131047.573000", "131049.572000", "131051.573000", "131053.571000", "131055.572000", "131057.572000", "131059.573000", "131101.572000", "131103.573000", "131105.573000", "131107.573000", "131109.573000", "131111.572000", "131113.572000", "131115.573000", "131117.573000", "131119.572000", "131121.573000", "131123.572000", "131125.573000", "131127.573000", "131129.571000", "131131.572000", "131133.573000", "131135.572000", "131137.090000"],
      "InstanceNumber": [1, 2, 3, 4, 5, 6, 7, 8, 9, 10, 11, 12, 13, 14, 15, 16, 17, 18, 19, 20, 21, 22, 23, 24, 25, 26, 27, 28, 29, 30, 31, 32, 33, 34, 35, 36, 37, 38, 39, 40, 41, 42, 43, 44, 45, 46, 47, 48, 49, 50, 51, 52, 53, 54, 55, 56, 57, 58, 59, 60, 61, 62, 63, 64, 65, 66, 67, 68, 69, 70, 71, 72, 73, 74, 75, 76, 77, 78, 79, 80, 81, 82, 83, 84, 85, 86, 87, 88, 89, 90, 91, 92, 93, 94, 95, 96, 97, 98, 99, 100, 101, 102, 103, 104, 105, 106, 107, 108, 109, 110, 111, 112, 113, 114, 115, 116, 117, 118, 119, 120, 121, 122, 123, 124, 125, 126, 127, 128, 129, 130, 131, 132, 133, 134, 135, 136, 137, 138, 139, 140, 141, 142, 143, 144, 145, 146, 147, 148, 149, 150, 151, 152, 153, 154, 155, 156],
      "LargestImagePixelValue": [2722, 2685, 2701, 2697, 2699, 2701, 2647, 2679, 2684, 2709, 2720, 2709, 2701, 2723, 2707, 2733, 2718, 2671, 2675, 2707, 2683, 2676, 2735, 2712, 2708, 2697, 2706, 2703, 2699, 2685, 2658, 2685, 2705, 2670, 2667, 2686, 2660, 2708, 2701, 2681, 2722, 2708, 2667, 2701, 2677, 2695, 2707, 2673, 2680, 2639, 2638, 2649, 2644, 2667, 2634, 2670, 2659, 2657, 2687, 2656, 2673, 2646, 2655, 2644, 2612, 2613, 2626, 2644, 2634, 2634, 2655, 2659, 2654, 2591, 2632, 2657, 2622, 2611, 2645, 2633, 2635, 2641, 2624, 2655, 2641, 2644, 2655, 2642, 2691, 2638, 2639, 2622, 2697, 2686, 2683, 2676, 2647, 2676, 2675, 2691, 2698, 2701, 2710, 2702, 2714, 2720, 2706, 2675, 2673, 2736, 2734, 2729, 2726, 2701, 2741, 2701, 2730, 2742, 2740, 2753, 2735, 2697, 2724, 2752, 2763, 2740, 2729, 2735, 2748, 2768, 2785, 2750, 2769, 2747, 2813, 2787, 2796, 2774, 2765, 2770, 2755, 2755, 2779, 2800, 2744, 2776, 2752, 2747, 2751, 2736, 2846, 2825, 2781, 2703, 2732, 2743],
      "WindowCenter": [737.0, 736.0, 736.0, 736.0, 734.0, 734.0, 733.0, 733.0, 734.0, 735.0, 735.0, 735.0, 735.0, 734.0, 734.0, 735.0, 735.0, 734.0, 734.0, 734.0, 734.0, 735.0, 735.0, 735.0, 734.0, 735.0, 735.0, 734.0, 734.0, 734.0, 733.0, 733.0, 734.0, 734.0, 733.0, 733.0, 733.0, 734.0, 734.0, 734.0, 735.0, 734.0, 734.0, 734.0, 734.0, 734.0, 734.0, 734.0, 734.0, 734.0, 733.0, 733.0, 734.0, 734.0, 733.0, 733.0, 733.0, 734.0, 734.0, 733.0, 734.0, 734.0, 734.0, 734.0, 734.0, 734.0, 733.0, 733.0, 733.0, 734.0, 734.0, 734.0, 735.0, 734.0, 735.0, 735.0, 734.0, 733.0, 732.0, 732.0, 733.0, 734.0, 734.0, 734.0, 733.0, 733.0, 734.0, 734.0, 735.0, 733.0, 732.0, 733.0, 735.0, 735.0, 734.0, 734.0, 733.0, 735.0, 735.0, 735.0, 735.0, 735.0, 735.0, 735.0, 735.0, 735.0, 735.0, 735.0, 736.0, 737.0, 737.0, 737.0, 736.0, 735.0, 735.0, 736.0, 737.0, 737.0, 737.0, 737.0, 736.0, 735.0, 736.0, 736.0, 736.0, 736.0, 736.0, 737.0, 736.0, 737.0, 737.0, 737.0, 737.0, 737.0, 739.0, 738.0, 739.0, 737.0, 736.0, 737.0, 736.0, 736.0, 737.0, 738.0, 737.0, 738.0, 737.0, 738.0, 738.0, 738.0, 739.0, 739.0, 738.0, 736.0, 736.0, 737.0],
      "WindowWidth": [1586.0, 1582.0, 1583.0, 1582.0, 1578.0, 1577.0, 1575.0, 1576.0, 1578.0, 1580.0, 1581.0, 1581.0, 1580.0, 1579.0, 1578.0, 1580.0, 1579.0, 1578.0, 1577.0, 1577.0, 1578.0, 1579.0, 1581.0, 1580.0, 1578.0, 1579.0, 1579.0, 1579.0, 1579.0, 1578.0, 1575.0, 1575.0, 1578.0, 1577.0, 1576.0, 1576.0, 1576.0, 1577.0, 1578.0, 1579.0, 1581.0, 1579.0, 1577.0, 1579.0, 1579.0, 1579.0, 1578.0, 1578.0, 1578.0, 1577.0, 1574.0, 1576.0, 1578.0, 1579.0, 1575.0, 1576.0, 1576.0, 1577.0, 1577.0, 1575.0, 1578.0, 1578.0, 1578.0, 1577.0, 1578.0, 1578.0, 1574.0, 1575.0, 1576.0, 1578.0, 1579.0, 1578.0, 1580.0, 1579.0, 1579.0, 1580.0, 1577.0, 1575.0, 1574.0, 1572.0, 1575.0, 1579.0, 1578.0, 1577.0, 1576.0, 1576.0, 1577.0, 1577.0, 1580.0, 1576.0, 1573.0, 1574.0, 1580.0, 1579.0, 1579.0, 1578.0, 1576.0, 1580.0, 1579.0, 1579.0, 1580.0, 1580.0, 1580.0, 1579.0, 1580.0, 1580.0, 1580.0, 1581.0, 1582.0, 1584.0, 1584.0, 1584.0, 1583.0, 1580.0, 1580.0, 1581.0, 1585.0, 1585.0, 1583.0, 1583.0, 1581.0, 1580.0, 1582.0, 1583.0, 1583.0, 1580.0, 1581.0, 1584.0, 1583.0, 1584.0, 1584.0, 1585.0, 1584.0, 1584.0, 1588.0, 1586.0, 1588.0, 1584.0, 1582.0, 1583.0, 1582.0, 1582.0, 1585.0, 1586.0, 1585.0, 1586.0, 1585.0, 1586.0, 1587.0, 1587.0, 1588.0, 1589.0, 1587.0, 1582.0, 1582.0, 1584.0]
    },
    "slices": {}
  }
}