{
  "AcquisitionMatrixPE": 100,
  "AcquisitionNumber": 1,
  "AcquisitionTime": "13:18:57.702500",
  "BandwidthPerPixelPhaseEncode": 18.519,
  "BaseResolution": 100,
  "BodyPartExamined": "BRAIN",
  "CoilCombinationMethod": "Sum of Squares",
  "ConsistencyInfo": "N4_VE11C_LATEST_20160120",
  "ConversionSoftware": "dcm2niix",
  "ConversionSoftwareVersion": "v1.0.20211006",
  "DerivedVendorReportedEchoSpacing": 0.000539986,
  "DeviceSerialNumber": "166078",
  "DwellTime": 2.1e-06,
  "EchoTime": 0.034,
  "EchoTrainLength": 100,
  "EffectiveEchoSpacing": 0.000539986,
  "FlipAngle": 90,
  "ImageOrientationPatientDICOM": [0.992782, 0.0329896, 0.115305, -4.90892e-09, 0.961424, -0.275071],
  "ImageOrientationText": "Tra>Cor(-16.0)>Sag(6.9)",
  "ImageType": [
    "ORIGINAL",
    "PRIMARY",
    "M",
    "ND",
    "MOSAIC"
],
  "ImagingFrequency": 123.258,
  "InPlanePhaseEncodingDirectionDICOM": "COL",
  "InstitutionAddress": "Street StreetNo,Bei Jing,District,CN,ZIP",
  "InstitutionName": "BeiJing Normal University",
  "InstitutionalDepartmentName": "Department",
  "MRAcquisitionType": "2D",
  "MagneticFieldStrength": 3,
  "Manufacturer": "Siemens",
  "ManufacturersModelName": "Prisma",
  "Modality": "MR",
  "MultibandAccelerationFactor": 3,
  "PartialFourier": 1,
  "PatientPosition": "HFS",
  "PercentPhaseFOV": 100,
  "PercentSampling": 100,
  "PhaseEncodingDirection": "j-",
  "PhaseEncodingSteps": 100,
  "PhaseResolution": 1,
  "PixelBandwidth": 2380,
  "ProcedureStepDescription": "BNU_P2018_64CH^Zhen.ZongLei",
  "ProtocolName": "bold_100x100_s3_2x2x2_static_156",
  "PulseSequenceDetails": "%SiemensSeq%\\ep2d_bold",
  "ReceiveCoilActiveElements": "HC1-7;NC1",
  "ReceiveCoilName": "HeadNeck_64",
  "ReconMatrixPE": 100,
  "RefLinesPE": 32,
  "RepetitionTime": 2,
  "SAR": 0.0673559,
  "ScanOptions": "FS",
  "ScanningSequence": "EP",
  "SequenceName": "*epfid2d1_100",
  "SequenceVariant": "SK",
  "SeriesDescription": "bold_100x100_s3_2x2x2_static_156",
  "SeriesNumber": 5,
  "ShimSetting": [-5436, -11395, -1356, 581, -48, -434, -206, -7],
  "SliceThickness": 2,
  "SliceTiming": [1.485, 0, 0.99, 0.0825, 1.0725, 0.165, 1.155, 0.2475, 1.2375, 0.33, 1.32, 0.4125, 1.4025, 0.5775, 1.5675, 0.66, 1.65, 0.7425, 1.7325, 0.825, 1.815, 0.9075, 1.8975, 0.495, 1.485, 0, 0.99, 0.0825, 1.0725, 0.165, 1.155, 0.2475, 1.2375, 0.33, 1.32, 0.4125, 1.4025, 0.5775, 1.5675, 0.66, 1.65, 0.7425, 1.7325, 0.825, 1.815, 0.9075, 1.8975, 0.495, 1.485, 0, 0.99, 0.0825, 1.0725, 0.165, 1.155, 0.2475, 1.2375, 0.33, 1.32, 0.4125, 1.4025, 0.5775, 1.5675, 0.66, 1.65, 0.7425, 1.7325, 0.825, 1.815, 0.9075, 1.8975, 0.495],
  "SoftwareVersions": "syngo MR E11",
  "SpacingBetweenSlices": 2,
  "StationName": "AWP166078",
  "TaskName": "action",
  "TotalReadoutTime": 0.0534586,
  "TxRefAmp": 214.747,
  "dcmmeta_affine": [
    [-1.9855643510818481, -9.81784964437793e-09, 0.2398625612258911, 88.4902572631836],
    [-0.06597921252250671, 1.922847867012024, -0.5461709499359131, -62.96708679199219],
    [0.23060961067676544, 0.5501417517662048, 1.9089691638946533, -122.26056671142578],
    [0.0, 0.0, 0.0, 1.0]
],
  "dcmmeta_reorient_transform": [
    [0.0, -1.0, 0.0, 99.0],
    [1.0, 0.0, 0.0, 0.0],
    [0.0, 0.0, 1.0, 0.0],
    [0.0, 0.0, 0.0, 1.0]
],
  "dcmmeta_shape": [100, 100, 72, 156],
  "dcmmeta_slice_dim": 2,
  "dcmmeta_version": 0.6,
  "global": {
    "const": {
      "AcquisitionMatrix": [100, 0, 0, 100],
      "AngioFlag": "N",
      "BitsAllocated": 16,
      "BitsStored": 12,
      "BodyPartExamined": "BRAIN",
      "Columns": 900,
      "EchoNumbers": 1,
      "EchoTime": 34.0,
      "EchoTrainLength": 100,
      "FlipAngle": 90.0,
      "HighBit": 11,
      "ImageOrientationPatient": [0.99278219541508, 0.0329896076854, 0.11530480584768, -4.908925e-09, 0.96142395050133, -0.2750708770525],
      "ImagePositionPatient": [-882.716005681, -922.92570120839, 60.016324130716],
      "ImageType": [
        "ORIGINAL",
        "PRIMARY",
        "M",
        "ND",
        "MOSAIC"
],
      "ImagedNucleus": "1H",
      "ImagingFrequency": 123.25778,
      "InPlanePhaseEncodingDirection": "COL",
      "MRAcquisitionType": "2D",
      "MagneticFieldStrength": 3.0,
      "Manufacturer": "SIEMENS",
      "ManufacturerModelName": "Prisma",
      "Modality": "MR",
      "NumberOfAverages": 1.0,
      "NumberOfPhaseEncodingSteps": 100,
      "PercentPhaseFieldOfView": 100.0,
      "PercentSampling": 100.0,
      "PerformedProcedureStepStartTime": "125828.269000",
      "PhotometricInterpretation": "MONOCHROME2",
      "PixelBandwidth": 2380.0,
      "PixelRepresentation": 0,
      "PixelSpacing": [2.0, 2.0],
      "ProtocolName": "bold_100x100_s3_2x2x2_static_156",
      "RepetitionTime": 2000.0,
      "Rows": 900,
      "SAR": 0.06735592549513,
      "SamplesPerPixel": 1,
      "ScanOptions": "FS",
      "ScanningSequence": "EP",
      "SequenceName": "*epfid2d1_100",
      "SequenceVariant": "SK",
      "SeriesDescription": "bold_100x100_s3_2x2x2_static_156",
      "SeriesNumber": 5,
      "SeriesTime": "131900.642000",
      "SliceLocation": -88.887679242493,
      "SliceThickness": 2.0,
      "SmallestImagePixelValue": 0,
      "SoftwareVersions": "syngo MR E11",
      "SpacingBetweenSlices": 2.0000000325568,
      "SpecificCharacterSet": "ISO_IR 100",
      "StudyID": "1",
      "StudyTime": "125828.187000",
      "TransmitCoilName": "Body",
      "VariableFlipAngleFlag": "N",
      "WindowCenterWidthExplanation": "Algo1",
      "dBdt": 0.0},
    "slices": {}
  },
  "time": {
    "samples": {
      "AcquisitionNumber": [1, 2, 3, 4, 5, 6, 7, 8, 9, 10, 11, 12, 13, 14, 15, 16, 17, 18, 19, 20, 21, 22, 23, 24, 25, 26, 27, 28, 29, 30, 31, 32, 33, 34, 35, 36, 37, 38, 39, 40, 41, 42, 43, 44, 45, 46, 47, 48, 49, 50, 51, 52, 53, 54, 55, 56, 57, 58, 59, 60, 61, 62, 63, 64, 65, 66, 67, 68, 69, 70, 71, 72, 73, 74, 75, 76, 77, 78, 79, 80, 81, 82, 83, 84, 85, 86, 87, 88, 89, 90, 91, 92, 93, 94, 95, 96, 97, 98, 99, 100, 101, 102, 103, 104, 105, 106, 107, 108, 109, 110, 111, 112, 113, 114, 115, 116, 117, 118, 119, 120, 121, 122, 123, 124, 125, 126, 127, 128, 129, 130, 131, 132, 133, 134, 135, 136, 137, 138, 139, 140, 141, 142, 143, 144, 145, 146, 147, 148, 149, 150, 151, 152, 153, 154, 155, 156],
      "AcquisitionTime": ["131857.702500", "131859.702500", "131901.702500", "131903.702500", "131905.702500", "131907.702500", "131909.702500", "131911.702500", "131913.702500", "131915.702500", "131917.702500", "131919.702500", "131921.702500", "131923.702500", "131925.702500", "131927.702500", "131929.702500", "131931.702500", "131933.702500", "131935.702500", "131937.702500", "131939.702500", "131941.702500", "131943.702500", "131945.702500", "131947.702500", "131949.702500", "131951.702500", "131953.702500", "131955.702500", "131957.702500", "131959.702500", "132001.702500", "132003.702500", "132005.702500", "132007.702500", "132009.702500", "132011.702500", "132013.702500", "132015.702500", "132017.702500", "132019.702500", "132021.702500", "132023.702500", "132025.702500", "132027.702500", "132029.702500", "132031.702500", "132033.702500", "132035.702500", "132037.702500", "132039.702500", "132041.702500", "132043.702500", "132045.702500", "132047.702500", "132049.702500", "132051.702500", "132053.702500", "132055.702500", "132057.702500", "132059.702500", "132101.702500", "132103.702500", "132105.702500", "132107.702500", "132109.702500", "132111.702500", "132113.702500", "132115.702500", "132117.702500", "132119.702500", "132121.702500", "132123.702500", "132125.702500", "132127.702500", "132129.702500", "132131.702500", "132133.702500", "132135.702500", "132137.702500", "132139.702500", "132141.702500", "132143.702500", "132145.702500", "132147.702500", "132149.702500", "132151.702500", "132153.702500", "132155.702500", "132157.702500", "132159.702500", "132201.702500", "132203.702500", "132205.702500", "132207.702500", "132209.702500", "132211.702500", "132213.702500", "132215.702500", "132217.702500", "132219.702500", "132221.702500", "132223.702500", "132225.702500", "132227.702500", "132229.702500", "132231.702500", "132233.702500", "132235.702500", "132237.702500", "132239.702500", "132241.702500", "132243.702500", "132245.702500", "132247.702500", "132249.702500", "132251.702500", "132253.702500", "132255.702500", "132257.702500", "132259.702500", "132301.702500", "132303.702500", "132305.702500", "132307.702500", "132309.702500", "132311.702500", "132313.702500", "132315.702500", "132317.702500", "132319.702500", "132321.702500", "132323.702500", "132325.702500", "132327.702500", "132329.702500", "132331.702500", "132333.702500", "132335.702500", "132337.702500", "132339.702500", "132341.702500", "132343.702500", "132345.702500", "132347.702500", "132349.702500", "132351.702500", "132353.702500", "132355.702500", "132357.702500", "132359.702500", "132401.702500", "132403.702500", "132405.702500", "132407.702500"],
      "ContentTime": ["131900.645000", "131902.141000", "131904.141000", "131906.141000", "131908.141000", "131910.141000", "131912.142000", "131914.142000", "131916.140000", "131918.140000", "131920.140000", "131922.141000", "131924.141000", "131926.141000", "131928.142000", "131930.142000", "131932.141000", "131934.140000", "131936.140000", "131938.140000", "131940.141000", "131942.141000", "131944.142000", "131946.141000", "131948.142000", "131950.141000", "131952.140000", "131954.140000", "131956.140000", "131958.140000", "132000.141000", "132002.141000", "132004.141000", "132006.141000", "132008.140000", "132010.141000", "132012.141000", "132014.140000", "132016.141000", "132018.142000", "132020.142000", "132022.142000", "132024.142000", "132026.141000", "132028.141000", "132030.141000", "132032.141000", "132034.142000", "132036.142000", "132038.142000", "132040.142000", "132042.142000", "132044.141000", "132046.141000", "132048.140000", "132050.141000", "132052.142000", "132054.142000", "132056.141000", "132058.142000", "132100.141000", "132102.141000", "132104.141000", "132106.141000", "132108.141000", "132110.142000", "132112.142000", "132114.142000", "132116.141000", "132118.141000", "132120.141000", "132122.140000", "132124.140000", "132126.142000", "132128.142000", "132130.142000", "132132.142000", "132134.142000", "132136.141000", "132138.141000", "132140.140000", "132142.141000", "132144.142000", "132146.142000", "132148.141000", "132150.142000", "132152.141000", "132154.140000", "132156.140000", "132158.141000", "132200.141000", "132202.141000", "132204.141000", "132206.142000", "132208.141000", "132210.142000", "132212.141000", "132214.141000", "132216.140000", "132218.141000", "132220.142000", "132222.142000", "132224.141000", "132226.142000", "132228.140000", "132230.141000", "132232.140000", "132234.141000", "132236.141000", "132238.142000", "132240.141000", "132242.141000", "132244.141000", "132246.141000", "132248.141000", "132250.141000", "132252.141000", "132254.141000", "132256.142000", "132258.142000", "132300.142000", "132302.142000", "132304.141000", "132306.140000", "132308.140000", "132310.141000", "132312.142000", "132314.141000", "132316.141000", "132318.142000", "132320.142000", "132322.140000", "132324.140000", "132326.141000", "132328.141000", "132330.142000", "132332.142000", "132334.142000", "132336.142000", "132338.141000", "132340.141000", "132342.141000", "132344.141000", "132346.142000", "132348.142000", "132350.142000", "132352.141000", "132354.142000", "132356.140000", "132358.141000", "132400.140000", "132402.141000", "132404.142000", "132406.141000", "132408.142000", "132409.810000"],
      "InstanceCreationTime": ["131900.645000", "131902.141000", "131904.141000", "131906.141000", "131908.141000", "131910.141000", "131912.142000", "131914.142000", "131916.140000", "131918.140000", "131920.140000", "131922.141000", "131924.141000", "131926.141000", "131928.142000", "131930.142000", "131932.141000", "131934.140000", "131936.140000", "131938.140000", "131940.141000", "131942.141000", "131944.142000", "131946.141000", "131948.142000", "131950.141000", "131952.140000", "131954.140000", "131956.140000", "131958.140000", "132000.141000", "132002.141000", "132004.141000", "132006.141000", "132008.140000", "132010.141000", "132012.141000", "132014.140000", "132016.141000", "132018.142000", "132020.142000", "132022.142000", "132024.142000", "132026.141000", "132028.141000", "132030.141000", "132032.141000", "132034.142000", "132036.142000", "132038.142000", "132040.142000", "132042.142000", "132044.141000", "132046.141000", "132048.140000", "132050.141000", "132052.142000", "132054.142000", "132056.141000", "132058.142000", "132100.141000", "132102.141000", "132104.141000", "132106.141000", "132108.141000", "132110.142000", "132112.142000", "132114.142000", "132116.141000", "132118.141000", "132120.141000", "132122.140000", "132124.140000", "132126.142000", "132128.142000", "132130.142000", "132132.142000", "132134.142000", "132136.141000", "132138.141000", "132140.140000", "132142.141000", "132144.142000", "132146.142000", "132148.141000", "132150.142000", "132152.141000", "132154.140000", "132156.140000", "132158.141000", "132200.141000", "132202.141000", "132204.141000", "132206.142000", "132208.141000", "132210.142000", "132212.141000", "132214.141000", "132216.140000", "132218.141000", "132220.142000", "132222.142000", "132224.141000", "132226.142000", "132228.140000", "132230.141000", "132232.140000", "132234.141000", "132236.141000", "132238.142000", "132240.141000", "132242.141000", "132244.141000", "132246.141000", "132248.141000", "132250.141000", "132252.141000", "132254.141000", "132256.142000", "132258.142000", "132300.142000", "132302.142000", "132304.141000", "132306.140000", "132308.140000", "132310.141000", "132312.142000", "132314.141000", "132316.141000", "132318.142000", "132320.142000", "132322.140000", "132324.140000", "132326.141000", "132328.141000", "132330.142000", "132332.142000", "132334.142000", "132336.142000", "132338.141000", "132340.141000", "132342.141000", "132344.141000", "132346.142000", "132348.142000", "132350.142000", "132352.141000", "132354.142000", "132356.140000", "132358.141000", "132400.140000", "132402.141000", "132404.142000", "132406.141000", "132408.142000", "132409.810000"],
      "InstanceNumber": [1, 2, 3, 4, 5, 6, 7, 8, 9, 10, 11, 12, 13, 14, 15, 16, 17, 18, 19, 20, 21, 22, 23, 24, 25, 26, 27, 28, 29, 30, 31, 32, 33, 34, 35, 36, 37, 38, 39, 40, 41, 42, 43, 44, 45, 46, 47, 48, 49, 50, 51, 52, 53, 54, 55, 56, 57, 58, 59, 60, 61, 62, 63, 64, 65, 66, 67, 68, 69, 70, 71, 72, 73, 74, 75, 76, 77, 78, 79, 80, 81, 82, 83, 84, 85, 86, 87, 88, 89, 90, 91, 92, 93, 94, 95, 96, 97, 98, 99, 100, 101, 102, 103, 104, 105, 106, 107, 108, 109, 110, 111, 112, 113, 114, 115, 116, 117, 118, 119, 120, 121, 122, 123, 124, 125, 126, 127, 128, 129, 130, 131, 132, 133, 134, 135, 136, 137, 138, 139, 140, 141, 142, 143, 144, 145, 146, 147, 148, 149, 150, 151, 152, 153, 154, 155, 156],
      "LargestImagePixelValue": [2784, 2707, 2770, 2728, 2789, 2778, 2756, 2760, 2770, 2767, 2753, 2774, 2777, 2787, 2763, 2754, 2799, 2801, 2791, 2784, 2785, 2807, 2853, 2833, 2817, 2825, 2796, 2800, 2790, 2803, 2781, 2811, 2776, 2774, 2822, 2786, 2753, 2800, 2791, 2780, 2802, 2798, 2798, 2766, 2825, 2778, 2755, 2792, 2827, 2806, 2796, 2804, 2799, 2787, 2767, 2790, 2817, 2805, 2809, 2841, 2827, 2826, 2845, 2859, 2840, 2837, 2826, 2830, 2807, 2793, 2773, 2844, 2843, 2806, 2832, 2840, 2852, 2822, 2798, 2796, 2797, 2844, 2826, 2868, 2833, 2796, 2823, 2825, 2850, 2860, 2788, 2804, 2791, 2859, 2805, 2785, 2845, 2781, 2788, 2819, 2794, 2785, 2750, 2787, 2802, 2818, 2788, 2834, 2801, 2815, 2839, 2820, 2810, 2828, 2769, 2779, 2817, 2788, 2786, 2795, 2766, 2820, 2793, 2775, 2786, 2743, 2743, 2771, 2761, 2775, 2775, 2756, 2760, 2773, 2777, 2777, 2734, 2761, 2744, 2713, 2752, 2711, 2724, 2774, 2739, 2729, 2685, 2730, 2722, 2696, 2706, 2689, 2733, 2694, 2674, 2667],
      "WindowCenter": [748.0, 744.0, 746.0, 744.0, 744.0, 744.0, 742.0, 741.0, 742.0, 743.0, 743.0, 744.0, 745.0, 746.0, 746.0, 746.0, 748.0, 749.0, 748.0, 747.0, 747.0, 749.0, 751.0, 750.0, 749.0, 749.0, 748.0, 748.0, 748.0, 749.0, 748.0, 747.0, 747.0, 747.0, 747.0, 746.0, 746.0, 747.0, 748.0, 747.0, 747.0, 748.0, 747.0, 746.0, 748.0, 748.0, 747.0, 747.0, 748.0, 748.0, 748.0, 748.0, 747.0, 747.0, 746.0, 747.0, 747.0, 747.0, 747.0, 748.0, 748.0, 748.0, 748.0, 749.0, 750.0, 750.0, 749.0, 748.0, 747.0, 747.0, 747.0, 748.0, 748.0, 747.0, 748.0, 748.0, 748.0, 747.0, 746.0, 746.0, 747.0, 748.0, 747.0, 748.0, 748.0, 747.0, 748.0, 748.0, 748.0, 748.0, 747.0, 747.0, 746.0, 746.0, 746.0, 747.0, 748.0, 746.0, 745.0, 746.0, 746.0, 745.0, 745.0, 746.0, 747.0, 747.0, 747.0, 747.0, 747.0, 746.0, 746.0, 746.0, 746.0, 747.0, 745.0, 745.0, 747.0, 747.0, 747.0, 747.0, 747.0, 748.0, 748.0, 747.0, 746.0, 746.0, 745.0, 746.0, 747.0, 747.0, 748.0, 747.0, 747.0, 747.0, 747.0, 748.0, 747.0, 747.0, 747.0, 747.0, 748.0, 747.0, 745.0, 745.0, 745.0, 745.0, 744.0, 746.0, 747.0, 746.0, 745.0, 745.0, 746.0, 745.0, 744.0, 744.0],
      "WindowWidth": [1611.0, 1602.0, 1605.0, 1601.0, 1602.0, 1601.0, 1596.0, 1594.0, 1598.0, 1599.0, 1600.0, 1603.0, 1604.0, 1606.0, 1606.0, 1607.0, 1611.0, 1614.0, 1611.0, 1608.0, 1610.0, 1615.0, 1619.0, 1615.0, 1613.0, 1613.0, 1613.0, 1612.0, 1612.0, 1613.0, 1612.0, 1610.0, 1608.0, 1609.0, 1610.0, 1608.0, 1607.0, 1610.0, 1611.0, 1609.0, 1610.0, 1612.0, 1610.0, 1607.0, 1611.0, 1612.0, 1610.0, 1610.0, 1611.0, 1611.0, 1611.0, 1611.0, 1610.0, 1608.0, 1606.0, 1608.0, 1610.0, 1608.0, 1609.0, 1612.0, 1611.0, 1611.0, 1612.0, 1615.0, 1616.0, 1616.0, 1613.0, 1611.0, 1609.0, 1610.0, 1609.0, 1611.0, 1611.0, 1609.0, 1611.0, 1611.0, 1611.0, 1609.0, 1607.0, 1607.0, 1608.0, 1611.0, 1610.0, 1612.0, 1612.0, 1610.0, 1611.0, 1611.0, 1611.0, 1611.0, 1608.0, 1607.0, 1605.0, 1605.0, 1606.0, 1609.0, 1610.0, 1605.0, 1604.0, 1605.0, 1606.0, 1605.0, 1604.0, 1606.0, 1608.0, 1609.0, 1609.0, 1610.0, 1608.0, 1606.0, 1606.0, 1607.0, 1607.0, 1608.0, 1604.0, 1604.0, 1608.0, 1608.0, 1608.0, 1609.0, 1609.0, 1611.0, 1611.0, 1609.0, 1607.0, 1605.0, 1604.0, 1606.0, 1608.0, 1609.0, 1610.0, 1609.0, 1608.0, 1608.0, 1609.0, 1610.0, 1609.0, 1610.0, 1607.0, 1609.0, 1612.0, 1608.0, 1603.0, 1604.0, 1604.0, 1603.0, 1602.0, 1605.0, 1608.0, 1606.0, 1603.0, 1604.0, 1606.0, 1603.0, 1602.0, 1602.0]
    },
    "slices": {}
  }
}