{
  "AcquisitionMatrixPE": 100,
  "AcquisitionNumber": 1,
  "AcquisitionTime": "13:24:58.475000",
  "BandwidthPerPixelPhaseEncode": 18.519,
  "BaseResolution": 100,
  "BodyPartExamined": "BRAIN",
  "CoilCombinationMethod": "Sum of Squares",
  "ConsistencyInfo": "N4_VE11C_LATEST_20160120",
  "ConversionSoftware": "dcm2niix",
  "ConversionSoftwareVersion": "v1.0.20211006",
  "DerivedVendorReportedEchoSpacing": 0.000539986,
  "DeviceSerialNumber": "166078",
  "DwellTime": 2.1e-06,
  "EchoTime": 0.034,
  "EchoTrainLength": 100,
  "EffectiveEchoSpacing": 0.000539986,
  "FlipAngle": 90,
  "ImageOrientationPatientDICOM": [0.992782, 0.0329896, 0.115305, -4.90892e-09, 0.961424, -0.275071],
  "ImageOrientationText": "Tra>Cor(-16.0)>Sag(6.9)",
  "ImageType": [
    "ORIGINAL",
    "PRIMARY",
    "M",
    "ND",
    "MOSAIC"
],
  "ImagingFrequency": 123.258,
  "InPlanePhaseEncodingDirectionDICOM": "COL",
  "InstitutionAddress": "Street StreetNo,Bei Jing,District,CN,ZIP",
  "InstitutionName": "BeiJing Normal University",
  "InstitutionalDepartmentName": "Department",
  "MRAcquisitionType": "2D",
  "MagneticFieldStrength": 3,
  "Manufacturer": "Siemens",
  "ManufacturersModelName": "Prisma",
  "Modality": "MR",
  "MultibandAccelerationFactor": 3,
  "PartialFourier": 1,
  "PatientPosition": "HFS",
  "PercentPhaseFOV": 100,
  "PercentSampling": 100,
  "PhaseEncodingDirection": "j-",
  "PhaseEncodingSteps": 100,
  "PhaseResolution": 1,
  "PixelBandwidth": 2380,
  "ProcedureStepDescription": "BNU_P2018_64CH^Zhen.ZongLei",
  "ProtocolName": "bold_100x100_s3_2x2x2_static_156",
  "PulseSequenceDetails": "%SiemensSeq%\\ep2d_bold",
  "ReceiveCoilActiveElements": "HC1-7;NC1",
  "ReceiveCoilName": "HeadNeck_64",
  "ReconMatrixPE": 100,
  "RefLinesPE": 32,
  "RepetitionTime": 2,
  "SAR": 0.0673559,
  "ScanOptions": "FS",
  "ScanningSequence": "EP",
  "SequenceName": "*epfid2d1_100",
  "SequenceVariant": "SK",
  "SeriesDescription": "bold_100x100_s3_2x2x2_static_156",
  "SeriesNumber": 6,
  "ShimSetting": [-5436, -11395, -1356, 581, -48, -434, -206, -7],
  "SliceThickness": 2,
  "SliceTiming": [1.485, 0, 0.99, 0.0825, 1.0725, 0.165, 1.155, 0.2475, 1.2375, 0.33, 1.32, 0.4125, 1.4025, 0.5775, 1.5675, 0.66, 1.65, 0.7425, 1.7325, 0.825, 1.815, 0.9075, 1.8975, 0.495, 1.485, 0, 0.99, 0.0825, 1.0725, 0.165, 1.155, 0.2475, 1.2375, 0.33, 1.32, 0.4125, 1.4025, 0.5775, 1.5675, 0.66, 1.65, 0.7425, 1.7325, 0.825, 1.815, 0.9075, 1.8975, 0.495, 1.485, 0, 0.99, 0.0825, 1.0725, 0.165, 1.155, 0.2475, 1.2375, 0.33, 1.32, 0.4125, 1.4025, 0.5775, 1.5675, 0.66, 1.65, 0.7425, 1.7325, 0.825, 1.815, 0.9075, 1.8975, 0.495],
  "SoftwareVersions": "syngo MR E11",
  "SpacingBetweenSlices": 2,
  "StationName": "AWP166078",
  "TaskName": "action",
  "TotalReadoutTime": 0.0534586,
  "TxRefAmp": 214.747,
  "dcmmeta_affine": [
    [-1.9855643510818481, -9.81784964437793e-09, 0.2398625612258911, 88.4902572631836],
    [-0.06597921252250671, 1.922847867012024, -0.5461709499359131, -62.96708679199219],
    [0.23060961067676544, 0.5501417517662048, 1.9089691638946533, -122.26056671142578],
    [0.0, 0.0, 0.0, 1.0]
],
  "dcmmeta_reorient_transform": [
    [0.0, -1.0, 0.0, 99.0],
    [1.0, 0.0, 0.0, 0.0],
    [0.0, 0.0, 1.0, 0.0],
    [0.0, 0.0, 0.0, 1.0]
],
  "dcmmeta_shape": [100, 100, 72, 156],
  "dcmmeta_slice_dim": 2,
  "dcmmeta_version": 0.6,
  "global": {
    "const": {
      "AcquisitionMatrix": [100, 0, 0, 100],
      "AngioFlag": "N",
      "BitsAllocated": 16,
      "BitsStored": 12,
      "BodyPartExamined": "BRAIN",
      "Columns": 900,
      "EchoNumbers": 1,
      "EchoTime": 34.0,
      "EchoTrainLength": 100,
      "FlipAngle": 90.0,
      "HighBit": 11,
      "ImageOrientationPatient": [0.99278219541508, 0.0329896076854, 0.11530480584768, -4.908925e-09, 0.96142395050133, -0.2750708770525],
      "ImagePositionPatient": [-882.716005681, -922.92570120839, 60.016324130716],
      "ImageType": [
        "ORIGINAL",
        "PRIMARY",
        "M",
        "ND",
        "MOSAIC"
],
      "ImagedNucleus": "1H",
      "ImagingFrequency": 123.257783,
      "InPlanePhaseEncodingDirection": "COL",
      "MRAcquisitionType": "2D",
      "MagneticFieldStrength": 3.0,
      "Manufacturer": "SIEMENS",
      "ManufacturerModelName": "Prisma",
      "Modality": "MR",
      "NumberOfAverages": 1.0,
      "NumberOfPhaseEncodingSteps": 100,
      "PercentPhaseFieldOfView": 100.0,
      "PercentSampling": 100.0,
      "PerformedProcedureStepStartTime": "125828.269000",
      "PhotometricInterpretation": "MONOCHROME2",
      "PixelBandwidth": 2380.0,
      "PixelRepresentation": 0,
      "PixelSpacing": [2.0, 2.0],
      "ProtocolName": "bold_100x100_s3_2x2x2_static_156",
      "RepetitionTime": 2000.0,
      "Rows": 900,
      "SAR": 0.06735592549513,
      "SamplesPerPixel": 1,
      "ScanOptions": "FS",
      "ScanningSequence": "EP",
      "SequenceName": "*epfid2d1_100",
      "SequenceVariant": "SK",
      "SeriesDescription": "bold_100x100_s3_2x2x2_static_156",
      "SeriesNumber": 6,
      "SeriesTime": "132501.095000",
      "SliceLocation": -88.887679242493,
      "SliceThickness": 2.0,
      "SmallestImagePixelValue": 0,
      "SoftwareVersions": "syngo MR E11",
      "SpacingBetweenSlices": 2.0000000325568,
      "SpecificCharacterSet": "ISO_IR 100",
      "StudyID": "1",
      "StudyTime": "125828.187000",
      "TransmitCoilName": "Body",
      "VariableFlipAngleFlag": "N",
      "WindowCenterWidthExplanation": "Algo1",
      "dBdt": 0.0},
    "slices": {}
  },
  "time": {
    "samples": {
      "AcquisitionNumber": [1, 2, 3, 4, 5, 6, 7, 8, 9, 10, 11, 12, 13, 14, 15, 16, 17, 18, 19, 20, 21, 22, 23, 24, 25, 26, 27, 28, 29, 30, 31, 32, 33, 34, 35, 36, 37, 38, 39, 40, 41, 42, 43, 44, 45, 46, 47, 48, 49, 50, 51, 52, 53, 54, 55, 56, 57, 58, 59, 60, 61, 62, 63, 64, 65, 66, 67, 68, 69, 70, 71, 72, 73, 74, 75, 76, 77, 78, 79, 80, 81, 82, 83, 84, 85, 86, 87, 88, 89, 90, 91, 92, 93, 94, 95, 96, 97, 98, 99, 100, 101, 102, 103, 104, 105, 106, 107, 108, 109, 110, 111, 112, 113, 114, 115, 116, 117, 118, 119, 120, 121, 122, 123, 124, 125, 126, 127, 128, 129, 130, 131, 132, 133, 134, 135, 136, 137, 138, 139, 140, 141, 142, 143, 144, 145, 146, 147, 148, 149, 150, 151, 152, 153, 154, 155, 156],
      "AcquisitionTime": ["132458.475000", "132500.475000", "132502.475000", "132504.475000", "132506.475000", "132508.475000", "132510.475000", "132512.475000", "132514.475000", "132516.475000", "132518.475000", "132520.475000", "132522.475000", "132524.475000", "132526.475000", "132528.475000", "132530.475000", "132532.475000", "132534.475000", "132536.475000", "132538.475000", "132540.475000", "132542.475000", "132544.475000", "132546.475000", "132548.475000", "132550.475000", "132552.475000", "132554.475000", "132556.475000", "132558.475000", "132600.475000", "132602.475000", "132604.475000", "132606.475000", "132608.475000", "132610.475000", "132612.475000", "132614.475000", "132616.475000", "132618.475000", "132620.475000", "132622.475000", "132624.475000", "132626.475000", "132628.475000", "132630.475000", "132632.475000", "132634.475000", "132636.475000", "132638.475000", "132640.475000", "132642.475000", "132644.475000", "132646.475000", "132648.475000", "132650.475000", "132652.475000", "132654.475000", "132656.475000", "132658.475000", "132700.475000", "132702.475000", "132704.475000", "132706.475000", "132708.475000", "132710.475000", "132712.475000", "132714.475000", "132716.475000", "132718.475000", "132720.475000", "132722.475000", "132724.475000", "132726.475000", "132728.475000", "132730.475000", "132732.475000", "132734.475000", "132736.475000", "132738.475000", "132740.475000", "132742.475000", "132744.475000", "132746.475000", "132748.475000", "132750.475000", "132752.475000", "132754.475000", "132756.475000", "132758.475000", "132800.475000", "132802.475000", "132804.475000", "132806.475000", "132808.475000", "132810.475000", "132812.475000", "132814.475000", "132816.475000", "132818.475000", "132820.475000", "132822.475000", "132824.475000", "132826.475000", "132828.475000", "132830.475000", "132832.475000", "132834.475000", "132836.475000", "132838.475000", "132840.475000", "132842.475000", "132844.475000", "132846.475000", "132848.475000", "132850.475000", "132852.475000", "132854.475000", "132856.475000", "132858.475000", "132900.475000", "132902.475000", "132904.475000", "132906.475000", "132908.475000", "132910.475000", "132912.475000", "132914.475000", "132916.475000", "132918.475000", "132920.475000", "132922.475000", "132924.475000", "132926.475000", "132928.475000", "132930.475000", "132932.475000", "132934.475000", "132936.475000", "132938.475000", "132940.475000", "132942.475000", "132944.475000", "132946.475000", "132948.475000", "132950.475000", "132952.475000", "132954.475000", "132956.475000", "132958.475000", "133000.475000", "133002.475000", "133004.475000", "133006.475000", "133008.475000"],
      "ContentTime": ["132501.098000", "132502.573000", "132505.072000", "132506.572000", "132509.072000", "132510.572000", "132512.572000", "132515.073000", "132516.573000", "132518.573000", "132520.573000", "132522.572000", "132524.572000", "132526.573000", "132528.573000", "132530.572000", "132532.573000", "132534.573000", "132536.574000", "132538.574000", "132541.072000", "132542.573000", "132544.572000", "132546.572000", "132548.574000", "132550.573000", "132553.074000", "132555.074000", "132556.573000", "132558.572000", "132600.573000", "132603.072000", "132604.572000", "132606.573000", "132608.573000", "132610.574000", "132612.574000", "132614.572000", "132616.573000", "132618.572000", "132620.573000", "132622.572000", "132624.573000", "132626.574000", "132628.574000", "132630.574000", "132632.572000", "132635.073000", "132636.572000", "132638.573000", "132641.073000", "132642.574000", "132645.073000", "132646.574000", "132648.573000", "132650.573000", "132652.572000", "132654.572000", "132656.572000", "132658.573000", "132700.573000", "132702.573000", "132704.574000", "132706.573000", "132708.572000", "132711.073000", "132712.572000", "132714.572000", "132716.574000", "132719.074000", "132720.573000", "132722.574000", "132724.572000", "132727.072000", "132729.073000", "132730.572000", "132732.573000", "132734.574000", "132736.574000", "132738.573000", "132740.574000", "132742.572000", "132744.573000", "132746.573000", "132748.573000", "132750.573000", "132752.573000", "132754.574000", "132756.573000", "132758.574000", "132800.572000", "132802.573000", "132804.572000", "132806.572000", "132808.573000", "132810.573000", "132813.073000", "132814.573000", "132816.573000", "132818.573000", "132820.572000", "132823.072000", "132824.572000", "132826.574000", "132828.573000", "132830.574000", "132832.573000", "132835.072000", "132837.073000", "132839.072000", "132841.072000", "132842.572000", "132844.573000", "132846.574000", "132848.574000", "132850.573000", "132852.573000", "132854.573000", "132856.573000", "132858.573000", "132900.573000", "132902.574000", "132904.574000", "132907.073000", "132908.573000", "132910.572000", "132912.572000", "132914.572000", "132917.073000", "132918.574000", "132920.574000", "132922.574000", "132924.574000", "132927.073000", "132928.573000", "132931.073000", "132932.573000", "132935.073000", "132936.574000", "132939.073000", "132940.573000", "132943.073000", "132944.573000", "132946.573000", "132948.573000", "132950.573000", "132952.573000", "132954.573000", "132956.573000", "132958.573000", "133000.573000", "133002.572000", "133004.572000", "133006.573000", "133008.572000", "133010.493000"],
      "InstanceCreationTime": ["132501.098000", "132502.573000", "132505.072000", "132506.572000", "132509.072000", "132510.572000", "132512.572000", "132515.073000", "132516.573000", "132518.573000", "132520.573000", "132522.572000", "132524.572000", "132526.573000", "132528.573000", "132530.572000", "132532.573000", "132534.573000", "132536.574000", "132538.574000", "132541.072000", "132542.573000", "132544.572000", "132546.572000", "132548.574000", "132550.573000", "132553.074000", "132555.074000", "132556.573000", "132558.572000", "132600.573000", "132603.072000", "132604.572000", "132606.573000", "132608.573000", "132610.574000", "132612.574000", "132614.572000", "132616.573000", "132618.572000", "132620.573000", "132622.572000", "132624.573000", "132626.574000", "132628.574000", "132630.574000", "132632.572000", "132635.073000", "132636.572000", "132638.573000", "132641.073000", "132642.574000", "132645.073000", "132646.574000", "132648.573000", "132650.573000", "132652.572000", "132654.572000", "132656.572000", "132658.573000", "132700.573000", "132702.573000", "132704.574000", "132706.573000", "132708.572000", "132711.073000", "132712.572000", "132714.572000", "132716.574000", "132719.074000", "132720.573000", "132722.574000", "132724.572000", "132727.072000", "132729.073000", "132730.572000", "132732.573000", "132734.574000", "132736.574000", "132738.573000", "132740.574000", "132742.572000", "132744.573000", "132746.573000", "132748.573000", "132750.573000", "132752.573000", "132754.574000", "132756.573000", "132758.574000", "132800.572000", "132802.573000", "132804.572000", "132806.572000", "132808.573000", "132810.573000", "132813.073000", "132814.573000", "132816.573000", "132818.573000", "132820.572000", "132823.072000", "132824.572000", "132826.574000", "132828.573000", "132830.574000", "132832.573000", "132835.072000", "132837.073000", "132839.072000", "132841.072000", "132842.572000", "132844.573000", "132846.574000", "132848.574000", "132850.573000", "132852.573000", "132854.573000", "132856.573000", "132858.573000", "132900.573000", "132902.574000", "132904.574000", "132907.073000", "132908.573000", "132910.572000", "132912.572000", "132914.572000", "132917.073000", "132918.574000", "132920.574000", "132922.574000", "132924.574000", "132927.073000", "132928.573000", "132931.073000", "132932.573000", "132935.073000", "132936.574000", "132939.073000", "132940.573000", "132943.073000", "132944.573000", "132946.573000", "132948.573000", "132950.573000", "132952.573000", "132954.573000", "132956.573000", "132958.573000", "133000.573000", "133002.572000", "133004.572000", "133006.573000", "133008.572000", "133010.493000"],
      "InstanceNumber": [1, 2, 3, 4, 5, 6, 7, 8, 9, 10, 11, 12, 13, 14, 15, 16, 17, 18, 19, 20, 21, 22, 23, 24, 25, 26, 27, 28, 29, 30, 31, 32, 33, 34, 35, 36, 37, 38, 39, 40, 41, 42, 43, 44, 45, 46, 47, 48, 49, 50, 51, 52, 53, 54, 55, 56, 57, 58, 59, 60, 61, 62, 63, 64, 65, 66, 67, 68, 69, 70, 71, 72, 73, 74, 75, 76, 77, 78, 79, 80, 81, 82, 83, 84, 85, 86, 87, 88, 89, 90, 91, 92, 93, 94, 95, 96, 97, 98, 99, 100, 101, 102, 103, 104, 105, 106, 107, 108, 109, 110, 111, 112, 113, 114, 115, 116, 117, 118, 119, 120, 121, 122, 123, 124, 125, 126, 127, 128, 129, 130, 131, 132, 133, 134, 135, 136, 137, 138, 139, 140, 141, 142, 143, 144, 145, 146, 147, 148, 149, 150, 151, 152, 153, 154, 155, 156],
      "LargestImagePixelValue": [2700, 2713, 2702, 2674, 2698, 2689, 2697, 2728, 2750, 2716, 2713, 2738, 2710, 2676, 2719, 2730, 2712, 2701, 2717, 2696, 2658, 2712, 2715, 2707, 2714, 2704, 2697, 2694, 2678, 2691, 2699, 2677, 2703, 2691, 2713, 2717, 2765, 2729, 2767, 2722, 2756, 2745, 2751, 2734, 2754, 2739, 2760, 2758, 2807, 2779, 2796, 2782, 2773, 2767, 2756, 2750, 2757, 2746, 2730, 2757, 2726, 2748, 2732, 2755, 2741, 2764, 2784, 2777, 2730, 2727, 2762, 2771, 2753, 2765, 2754, 2733, 2746, 2723, 2759, 2757, 2725, 2735, 2739, 2761, 2778, 2762, 2751, 2783, 2775, 2747, 2776, 2739, 2754, 2783, 2770, 2743, 2761, 2758, 2777, 2775, 2709, 2737, 2723, 2724, 2740, 2757, 2733, 2722, 2757, 3199, 2716, 2721, 2714, 2752, 2734, 2723, 2736, 2749, 2752, 2767, 2783, 2801, 2751, 2710, 2738, 2748, 2729, 2718, 2784, 2783, 2726, 2759, 2718, 2687, 2682, 2668, 2671, 2703, 2675, 2673, 2686, 2690, 2655, 2680, 2664, 2652, 2703, 2674, 2693, 2637, 2657, 2638, 2637, 2605, 2684, 2643],
      "WindowCenter": [749.0, 749.0, 748.0, 748.0, 748.0, 748.0, 750.0, 751.0, 752.0, 750.0, 750.0, 751.0, 751.0, 749.0, 749.0, 750.0, 749.0, 749.0, 749.0, 748.0, 748.0, 750.0, 749.0, 748.0, 748.0, 748.0, 746.0, 746.0, 747.0, 747.0, 746.0, 746.0, 747.0, 748.0, 748.0, 748.0, 749.0, 749.0, 749.0, 748.0, 748.0, 747.0, 747.0, 747.0, 747.0, 748.0, 749.0, 750.0, 751.0, 751.0, 750.0, 750.0, 750.0, 749.0, 749.0, 750.0, 750.0, 749.0, 747.0, 748.0, 748.0, 748.0, 749.0, 749.0, 749.0, 750.0, 750.0, 750.0, 750.0, 749.0, 749.0, 749.0, 750.0, 749.0, 749.0, 748.0, 749.0, 748.0, 748.0, 748.0, 748.0, 748.0, 748.0, 748.0, 749.0, 749.0, 750.0, 750.0, 749.0, 748.0, 749.0, 749.0, 749.0, 748.0, 748.0, 748.0, 749.0, 749.0, 750.0, 750.0, 749.0, 749.0, 748.0, 749.0, 750.0, 749.0, 749.0, 749.0, 749.0, 755.0, 749.0, 749.0, 749.0, 749.0, 748.0, 749.0, 749.0, 749.0, 750.0, 750.0, 749.0, 751.0, 751.0, 749.0, 748.0, 749.0, 749.0, 749.0, 750.0, 749.0, 748.0, 748.0, 748.0, 748.0, 748.0, 747.0, 748.0, 749.0, 747.0, 747.0, 748.0, 749.0, 749.0, 749.0, 749.0, 749.0, 749.0, 748.0, 748.0, 747.0, 747.0, 747.0, 748.0, 747.0, 748.0, 747.0],
      "WindowWidth": [1615.0, 1615.0, 1612.0, 1611.0, 1611.0, 1612.0, 1617.0, 1619.0, 1620.0, 1617.0, 1615.0, 1618.0, 1618.0, 1614.0, 1615.0, 1616.0, 1615.0, 1614.0, 1613.0, 1612.0, 1612.0, 1615.0, 1614.0, 1611.0, 1611.0, 1611.0, 1607.0, 1607.0, 1608.0, 1608.0, 1606.0, 1606.0, 1609.0, 1611.0, 1612.0, 1612.0, 1614.0, 1615.0, 1615.0, 1611.0, 1612.0, 1609.0, 1608.0, 1608.0, 1610.0, 1612.0, 1613.0, 1617.0, 1618.0, 1619.0, 1617.0, 1617.0, 1616.0, 1614.0, 1614.0, 1615.0, 1615.0, 1613.0, 1610.0, 1610.0, 1611.0, 1612.0, 1612.0, 1614.0, 1615.0, 1615.0, 1616.0, 1616.0, 1617.0, 1614.0, 1613.0, 1613.0, 1615.0, 1615.0, 1614.0, 1612.0, 1612.0, 1611.0, 1610.0, 1610.0, 1610.0, 1610.0, 1610.0, 1612.0, 1613.0, 1615.0, 1615.0, 1615.0, 1613.0, 1612.0, 1613.0, 1612.0, 1613.0, 1611.0, 1610.0, 1610.0, 1614.0, 1614.0, 1615.0, 1616.0, 1612.0, 1613.0, 1611.0, 1614.0, 1615.0, 1614.0, 1613.0, 1613.0, 1614.0, 1627.0, 1612.0, 1613.0, 1612.0, 1613.0, 1611.0, 1613.0, 1614.0, 1615.0, 1615.0, 1615.0, 1614.0, 1618.0, 1617.0, 1613.0, 1611.0, 1613.0, 1613.0, 1612.0, 1614.0, 1613.0, 1610.0, 1612.0, 1612.0, 1612.0, 1611.0, 1610.0, 1611.0, 1612.0, 1609.0, 1610.0, 1612.0, 1614.0, 1613.0, 1613.0, 1613.0, 1613.0, 1614.0, 1611.0, 1612.0, 1607.0, 1608.0, 1608.0, 1611.0, 1608.0, 1610.0, 1608.0]
    },
    "slices": {}
  }
}