{
  "AcquisitionMatrixPE": 100,
  "AcquisitionNumber": 1,
  "AcquisitionTime": "13:31:3.340000",
  "BandwidthPerPixelPhaseEncode": 18.519,
  "BaseResolution": 100,
  "BodyPartExamined": "BRAIN",
  "CoilCombinationMethod": "Sum of Squares",
  "ConsistencyInfo": "N4_VE11C_LATEST_20160120",
  "ConversionSoftware": "dcm2niix",
  "ConversionSoftwareVersion": "v1.0.20211006",
  "DerivedVendorReportedEchoSpacing": 0.000539986,
  "DeviceSerialNumber": "166078",
  "DwellTime": 2.1e-06,
  "EchoTime": 0.034,
  "EchoTrainLength": 100,
  "EffectiveEchoSpacing": 0.000539986,
  "FlipAngle": 90,
  "ImageOrientationPatientDICOM": [0.992782, 0.0329896, 0.115305, -4.90892e-09, 0.961424, -0.275071],
  "ImageOrientationText": "Tra>Cor(-16.0)>Sag(6.9)",
  "ImageType": [
    "ORIGINAL",
    "PRIMARY",
    "M",
    "ND",
    "MOSAIC"
],
  "ImagingFrequency": 123.258,
  "InPlanePhaseEncodingDirectionDICOM": "COL",
  "InstitutionAddress": "Street StreetNo,Bei Jing,District,CN,ZIP",
  "InstitutionName": "BeiJing Normal University",
  "InstitutionalDepartmentName": "Department",
  "MRAcquisitionType": "2D",
  "MagneticFieldStrength": 3,
  "Manufacturer": "Siemens",
  "ManufacturersModelName": "Prisma",
  "Modality": "MR",
  "MultibandAccelerationFactor": 3,
  "PartialFourier": 1,
  "PatientPosition": "HFS",
  "PercentPhaseFOV": 100,
  "PercentSampling": 100,
  "PhaseEncodingDirection": "j-",
  "PhaseEncodingSteps": 100,
  "PhaseResolution": 1,
  "PixelBandwidth": 2380,
  "ProcedureStepDescription": "BNU_P2018_64CH^Zhen.ZongLei",
  "ProtocolName": "bold_100x100_s3_2x2x2_static_156",
  "PulseSequenceDetails": "%SiemensSeq%\\ep2d_bold",
  "ReceiveCoilActiveElements": "HC1-7;NC1",
  "ReceiveCoilName": "HeadNeck_64",
  "ReconMatrixPE": 100,
  "RefLinesPE": 32,
  "RepetitionTime": 2,
  "SAR": 0.0673559,
  "ScanOptions": "FS",
  "ScanningSequence": "EP",
  "SequenceName": "*epfid2d1_100",
  "SequenceVariant": "SK",
  "SeriesDescription": "bold_100x100_s3_2x2x2_static_156",
  "SeriesNumber": 7,
  "ShimSetting": [-5436, -11395, -1356, 581, -48, -434, -206, -7],
  "SliceThickness": 2,
  "SliceTiming": [1.485, 0, 0.99, 0.0825, 1.0725, 0.165, 1.155, 0.2475, 1.2375, 0.33, 1.32, 0.4125, 1.4025, 0.5775, 1.5675, 0.66, 1.65, 0.7425, 1.7325, 0.825, 1.815, 0.9075, 1.8975, 0.495, 1.485, 0, 0.99, 0.0825, 1.0725, 0.165, 1.155, 0.2475, 1.2375, 0.33, 1.32, 0.4125, 1.4025, 0.5775, 1.5675, 0.66, 1.65, 0.7425, 1.7325, 0.825, 1.815, 0.9075, 1.8975, 0.495, 1.485, 0, 0.99, 0.0825, 1.0725, 0.165, 1.155, 0.2475, 1.2375, 0.33, 1.32, 0.4125, 1.4025, 0.5775, 1.5675, 0.66, 1.65, 0.7425, 1.7325, 0.825, 1.815, 0.9075, 1.8975, 0.495],
  "SoftwareVersions": "syngo MR E11",
  "SpacingBetweenSlices": 2,
  "StationName": "AWP166078",
  "TaskName": "action",
  "TotalReadoutTime": 0.0534586,
  "TxRefAmp": 214.747,
  "dcmmeta_affine": [
    [-1.9855643510818481, -9.81784964437793e-09, 0.2398625612258911, 88.4902572631836],
    [-0.06597921252250671, 1.922847867012024, -0.5461709499359131, -62.96708679199219],
    [0.23060961067676544, 0.5501417517662048, 1.9089691638946533, -122.26056671142578],
    [0.0, 0.0, 0.0, 1.0]
],
  "dcmmeta_reorient_transform": [
    [0.0, -1.0, 0.0, 99.0],
    [1.0, 0.0, 0.0, 0.0],
    [0.0, 0.0, 1.0, 0.0],
    [0.0, 0.0, 0.0, 1.0]
],
  "dcmmeta_shape": [100, 100, 72, 156],
  "dcmmeta_slice_dim": 2,
  "dcmmeta_version": 0.6,
  "global": {
    "const": {
      "AcquisitionMatrix": [100, 0, 0, 100],
      "AngioFlag": "N",
      "BitsAllocated": 16,
      "BitsStored": 12,
      "BodyPartExamined": "BRAIN",
      "Columns": 900,
      "EchoNumbers": 1,
      "EchoTime": 34.0,
      "EchoTrainLength": 100,
      "FlipAngle": 90.0,
      "HighBit": 11,
      "ImageOrientationPatient": [0.99278219541508, 0.0329896076854, 0.11530480584768, -4.908925e-09, 0.96142395050133, -0.2750708770525],
      "ImagePositionPatient": [-882.716005681, -922.92570120839, 60.016324130716],
      "ImageType": [
        "ORIGINAL",
        "PRIMARY",
        "M",
        "ND",
        "MOSAIC"
],
      "ImagedNucleus": "1H",
      "ImagingFrequency": 123.257786,
      "InPlanePhaseEncodingDirection": "COL",
      "MRAcquisitionType": "2D",
      "MagneticFieldStrength": 3.0,
      "Manufacturer": "SIEMENS",
      "ManufacturerModelName": "Prisma",
      "Modality": "MR",
      "NumberOfAverages": 1.0,
      "NumberOfPhaseEncodingSteps": 100,
      "PercentPhaseFieldOfView": 100.0,
      "PercentSampling": 100.0,
      "PerformedProcedureStepStartTime": "125828.269000",
      "PhotometricInterpretation": "MONOCHROME2",
      "PixelBandwidth": 2380.0,
      "PixelRepresentation": 0,
      "PixelSpacing": [2.0, 2.0],
      "ProtocolName": "bold_100x100_s3_2x2x2_static_156",
      "RepetitionTime": 2000.0,
      "Rows": 900,
      "SAR": 0.06735592549513,
      "SamplesPerPixel": 1,
      "ScanOptions": "FS",
      "ScanningSequence": "EP",
      "SequenceName": "*epfid2d1_100",
      "SequenceVariant": "SK",
      "SeriesDescription": "bold_100x100_s3_2x2x2_static_156",
      "SeriesNumber": 7,
      "SeriesTime": "133105.834000",
      "SliceLocation": -88.887679242493,
      "SliceThickness": 2.0,
      "SmallestImagePixelValue": 0,
      "SoftwareVersions": "syngo MR E11",
      "SpacingBetweenSlices": 2.0000000325568,
      "SpecificCharacterSet": "ISO_IR 100",
      "StudyID": "1",
      "StudyTime": "125828.187000",
      "TransmitCoilName": "Body",
      "VariableFlipAngleFlag": "N",
      "WindowCenterWidthExplanation": "Algo1",
      "dBdt": 0.0},
    "slices": {}
  },
  "time": {
    "samples": {
      "AcquisitionNumber": [1, 2, 3, 4, 5, 6, 7, 8, 9, 10, 11, 12, 13, 14, 15, 16, 17, 18, 19, 20, 21, 22, 23, 24, 25, 26, 27, 28, 29, 30, 31, 32, 33, 34, 35, 36, 37, 38, 39, 40, 41, 42, 43, 44, 45, 46, 47, 48, 49, 50, 51, 52, 53, 54, 55, 56, 57, 58, 59, 60, 61, 62, 63, 64, 65, 66, 67, 68, 69, 70, 71, 72, 73, 74, 75, 76, 77, 78, 79, 80, 81, 82, 83, 84, 85, 86, 87, 88, 89, 90, 91, 92, 93, 94, 95, 96, 97, 98, 99, 100, 101, 102, 103, 104, 105, 106, 107, 108, 109, 110, 111, 112, 113, 114, 115, 116, 117, 118, 119, 120, 121, 122, 123, 124, 125, 126, 127, 128, 129, 130, 131, 132, 133, 134, 135, 136, 137, 138, 139, 140, 141, 142, 143, 144, 145, 146, 147, 148, 149, 150, 151, 152, 153, 154, 155, 156],
      "AcquisitionTime": ["133103.340000", "133105.340000", "133107.340000", "133109.340000", "133111.340000", "133113.340000", "133115.340000", "133117.340000", "133119.340000", "133121.340000", "133123.340000", "133125.340000", "133127.340000", "133129.340000", "133131.340000", "133133.340000", "133135.340000", "133137.340000", "133139.340000", "133141.340000", "133143.340000", "133145.340000", "133147.340000", "133149.340000", "133151.340000", "133153.340000", "133155.340000", "133157.340000", "133159.340000", "133201.340000", "133203.340000", "133205.340000", "133207.340000", "133209.340000", "133211.340000", "133213.340000", "133215.340000", "133217.340000", "133219.340000", "133221.340000", "133223.340000", "133225.340000", "133227.340000", "133229.340000", "133231.340000", "133233.340000", "133235.340000", "133237.340000", "133239.340000", "133241.340000", "133243.340000", "133245.340000", "133247.340000", "133249.340000", "133251.340000", "133253.340000", "133255.340000", "133257.340000", "133259.340000", "133301.340000", "133303.340000", "133305.340000", "133307.340000", "133309.340000", "133311.340000", "133313.340000", "133315.340000", "133317.340000", "133319.340000", "133321.340000", "133323.340000", "133325.340000", "133327.340000", "133329.340000", "133331.340000", "133333.340000", "133335.340000", "133337.340000", "133339.340000", "133341.340000", "133343.340000", "133345.340000", "133347.340000", "133349.340000", "133351.340000", "133353.340000", "133355.340000", "133357.340000", "133359.340000", "133401.340000", "133403.340000", "133405.340000", "133407.340000", "133409.340000", "133411.340000", "133413.340000", "133415.340000", "133417.340000", "133419.340000", "133421.340000", "133423.340000", "133425.340000", "133427.340000", "133429.340000", "133431.340000", "133433.340000", "133435.340000", "133437.340000", "133439.340000", "133441.340000", "133443.340000", "133445.340000", "133447.340000", "133449.340000", "133451.340000", "133453.340000", "133455.340000", "133457.340000", "133459.340000", "133501.340000", "133503.340000", "133505.340000", "133507.340000", "133509.340000", "133511.340000", "133513.340000", "133515.340000", "133517.340000", "133519.340000", "133521.340000", "133523.340000", "133525.340000", "133527.340000", "133529.340000", "133531.340000", "133533.340000", "133535.340000", "133537.340000", "133539.340000", "133541.340000", "133543.340000", "133545.340000", "133547.340000", "133549.340000", "133551.340000", "133553.340000", "133555.340000", "133557.340000", "133559.340000", "133601.340000", "133603.340000", "133605.340000", "133607.340000", "133609.340000", "133611.340000", "133613.340000"],
      "ContentTime": ["133105.838000", "133107.333000", "133109.333000", "133111.333000", "133113.333000", "133115.334000", "133117.333000", "133119.333000", "133121.334000", "133123.334000", "133125.334000", "133127.333000", "133129.334000", "133131.333000", "133133.334000", "133135.333000", "133137.334000", "133139.334000", "133141.333000", "133143.334000", "133145.333000", "133147.333000", "133149.334000", "133151.333000", "133153.333000", "133155.333000", "133157.335000", "133159.334000", "133201.334000", "133203.333000", "133205.334000", "133207.334000", "133209.334000", "133211.334000", "133213.334000", "133215.333000", "133217.333000", "133219.334000", "133221.334000", "133223.333000", "133225.333000", "133227.334000", "133229.333000", "133231.335000", "133233.334000", "133235.333000", "133237.333000", "133239.333000", "133241.334000", "133243.333000", "133245.333000", "133247.333000", "133249.334000", "133251.333000", "133253.334000", "133255.334000", "133257.333000", "133259.334000", "133301.333000", "133303.333000", "133305.335000", "133307.334000", "133309.333000", "133311.333000", "133313.333000", "133315.334000", "133317.334000", "133319.333000", "133321.334000", "133323.334000", "133325.333000", "133327.334000", "133329.333000", "133331.334000", "133333.333000", "133335.334000", "133337.333000", "133339.334000", "133341.335000", "133343.334000", "133345.334000", "133347.334000", "133349.334000", "133351.333000", "133353.333000", "133355.333000", "133357.334000", "133359.335000", "133401.334000", "133403.334000", "133405.333000", "133407.333000", "133409.333000", "133411.333000", "133413.334000", "133415.335000", "133417.334000", "133419.333000", "133421.334000", "133423.333000", "133425.333000", "133427.334000", "133429.334000", "133431.334000", "133433.335000", "133435.334000", "133437.334000", "133439.334000", "133441.334000", "133443.334000", "133445.333000", "133447.334000", "133449.334000", "133451.335000", "133453.333000", "133455.333000", "133457.333000", "133459.334000", "133501.333000", "133503.334000", "133505.333000", "133507.334000", "133509.336000", "133511.334000", "133513.333000", "133515.333000", "133517.333000", "133519.333000", "133521.333000", "133523.334000", "133525.334000", "133527.335000", "133529.348000", "133531.333000", "133533.333000", "133535.334000", "133537.334000", "133539.334000", "133541.334000", "133543.335000", "133545.334000", "133547.333000", "133549.333000", "133551.333000", "133553.334000", "133555.334000", "133557.334000", "133559.334000", "133601.334000", "133603.333000", "133605.334000", "133607.334000", "133609.334000", "133611.334000", "133613.334000", "133615.065000"],
      "InstanceCreationTime": ["133105.838000", "133107.333000", "133109.333000", "133111.333000", "133113.333000", "133115.334000", "133117.333000", "133119.333000", "133121.334000", "133123.334000", "133125.334000", "133127.333000", "133129.334000", "133131.333000", "133133.334000", "133135.333000", "133137.334000", "133139.334000", "133141.333000", "133143.334000", "133145.333000", "133147.333000", "133149.334000", "133151.333000", "133153.333000", "133155.333000", "133157.335000", "133159.334000", "133201.334000", "133203.333000", "133205.334000", "133207.334000", "133209.334000", "133211.334000", "133213.334000", "133215.333000", "133217.333000", "133219.334000", "133221.334000", "133223.333000", "133225.333000", "133227.334000", "133229.333000", "133231.335000", "133233.334000", "133235.333000", "133237.333000", "133239.333000", "133241.334000", "133243.333000", "133245.333000", "133247.333000", "133249.334000", "133251.333000", "133253.334000", "133255.334000", "133257.333000", "133259.334000", "133301.333000", "133303.333000", "133305.335000", "133307.334000", "133309.333000", "133311.333000", "133313.333000", "133315.334000", "133317.334000", "133319.333000", "133321.334000", "133323.334000", "133325.333000", "133327.334000", "133329.333000", "133331.334000", "133333.333000", "133335.334000", "133337.333000", "133339.334000", "133341.335000", "133343.334000", "133345.334000", "133347.334000", "133349.334000", "133351.333000", "133353.333000", "133355.333000", "133357.334000", "133359.335000", "133401.334000", "133403.334000", "133405.333000", "133407.333000", "133409.333000", "133411.333000", "133413.334000", "133415.335000", "133417.334000", "133419.333000", "133421.334000", "133423.333000", "133425.333000", "133427.334000", "133429.334000", "133431.334000", "133433.335000", "133435.334000", "133437.334000", "133439.334000", "133441.334000", "133443.334000", "133445.333000", "133447.334000", "133449.334000", "133451.335000", "133453.333000", "133455.333000", "133457.333000", "133459.334000", "133501.333000", "133503.334000", "133505.333000", "133507.334000", "133509.336000", "133511.334000", "133513.333000", "133515.333000", "133517.333000", "133519.333000", "133521.333000", "133523.334000", "133525.334000", "133527.335000", "133529.348000", "133531.333000", "133533.333000", "133535.334000", "133537.334000", "133539.334000", "133541.334000", "133543.335000", "133545.334000", "133547.333000", "133549.333000", "133551.333000", "133553.334000", "133555.334000", "133557.334000", "133559.334000", "133601.334000", "133603.333000", "133605.334000", "133607.334000", "133609.334000", "133611.334000", "133613.334000", "133615.065000"],
      "InstanceNumber": [1, 2, 3, 4, 5, 6, 7, 8, 9, 10, 11, 12, 13, 14, 15, 16, 17, 18, 19, 20, 21, 22, 23, 24, 25, 26, 27, 28, 29, 30, 31, 32, 33, 34, 35, 36, 37, 38, 39, 40, 41, 42, 43, 44, 45, 46, 47, 48, 49, 50, 51, 52, 53, 54, 55, 56, 57, 58, 59, 60, 61, 62, 63, 64, 65, 66, 67, 68, 69, 70, 71, 72, 73, 74, 75, 76, 77, 78, 79, 80, 81, 82, 83, 84, 85, 86, 87, 88, 89, 90, 91, 92, 93, 94, 95, 96, 97, 98, 99, 100, 101, 102, 103, 104, 105, 106, 107, 108, 109, 110, 111, 112, 113, 114, 115, 116, 117, 118, 119, 120, 121, 122, 123, 124, 125, 126, 127, 128, 129, 130, 131, 132, 133, 134, 135, 136, 137, 138, 139, 140, 141, 142, 143, 144, 145, 146, 147, 148, 149, 150, 151, 152, 153, 154, 155, 156],
      "LargestImagePixelValue": [2626, 2736, 2641, 2647, 2650, 2652, 2623, 2627, 2602, 2690, 2590, 2647, 2604, 2865, 2613, 2604, 2710, 2610, 2618, 2638, 2672, 2584, 2595, 2602, 2685, 2772, 2589, 2594, 2594, 2594, 2597, 2608, 2597, 2641, 2617, 2694, 2786, 2610, 2618, 2614, 2620, 2662, 2589, 2672, 2677, 2768, 2593, 2655, 2662, 2709, 2618, 2621, 2740, 2663, 2625, 2644, 2664, 2619, 2620, 2631, 2679, 2669, 2725, 2623, 2640, 2709, 2651, 2665, 2662, 2645, 2658, 2731, 2670, 2726, 2653, 2626, 2705, 2696, 2695, 2642, 2683, 2649, 2608, 2628, 2676, 2709, 2660, 2646, 2656, 2710, 2717, 2666, 2714, 2642, 2673, 2741, 2705, 2617, 2800, 2736, 2763, 2682, 2674, 2663, 2768, 2697, 2698, 2669, 2722, 2770, 2741, 2681, 2657, 2735, 2748, 2741, 2748, 2704, 2688, 2736, 2634, 2673, 2656, 2762, 2739, 2757, 2675, 2719, 2649, 2772, 2683, 2707, 2737, 2730, 2764, 2759, 2719, 2659, 2846, 2737, 2670, 2705, 2725, 2641, 2685, 2690, 2719, 2640, 2729, 2692, 2693, 2666, 2638, 2729, 2664, 2657],
      "WindowCenter": [749.0, 751.0, 750.0, 749.0, 747.0, 748.0, 749.0, 749.0, 747.0, 748.0, 747.0, 749.0, 749.0, 752.0, 748.0, 748.0, 749.0, 747.0, 748.0, 748.0, 748.0, 747.0, 747.0, 747.0, 748.0, 750.0, 747.0, 747.0, 748.0, 747.0, 746.0, 747.0, 747.0, 748.0, 748.0, 750.0, 750.0, 748.0, 748.0, 748.0, 747.0, 748.0, 747.0, 751.0, 752.0, 750.0, 746.0, 747.0, 748.0, 749.0, 748.0, 748.0, 749.0, 747.0, 747.0, 747.0, 748.0, 747.0, 747.0, 749.0, 751.0, 750.0, 748.0, 746.0, 747.0, 748.0, 747.0, 747.0, 749.0, 749.0, 748.0, 748.0, 748.0, 750.0, 749.0, 747.0, 748.0, 748.0, 748.0, 748.0, 748.0, 747.0, 746.0, 748.0, 750.0, 749.0, 747.0, 747.0, 748.0, 749.0, 749.0, 749.0, 750.0, 748.0, 748.0, 749.0, 750.0, 748.0, 749.0, 748.0, 749.0, 749.0, 749.0, 748.0, 748.0, 748.0, 748.0, 748.0, 749.0, 750.0, 751.0, 749.0, 748.0, 749.0, 750.0, 750.0, 750.0, 749.0, 750.0, 751.0, 749.0, 749.0, 749.0, 750.0, 748.0, 749.0, 748.0, 750.0, 749.0, 752.0, 752.0, 751.0, 753.0, 752.0, 754.0, 752.0, 749.0, 748.0, 750.0, 748.0, 747.0, 748.0, 749.0, 749.0, 750.0, 751.0, 750.0, 748.0, 750.0, 751.0, 750.0, 749.0, 748.0, 749.0, 748.0, 747.0],
      "WindowWidth": [1613.0, 1619.0, 1617.0, 1613.0, 1609.0, 1611.0, 1613.0, 1613.0, 1609.0, 1610.0, 1608.0, 1613.0, 1613.0, 1620.0, 1611.0, 1610.0, 1614.0, 1610.0, 1611.0, 1612.0, 1612.0, 1608.0, 1609.0, 1609.0, 1612.0, 1616.0, 1608.0, 1610.0, 1611.0, 1610.0, 1607.0, 1608.0, 1609.0, 1612.0, 1612.0, 1616.0, 1617.0, 1610.0, 1611.0, 1610.0, 1610.0, 1611.0, 1608.0, 1619.0, 1620.0, 1615.0, 1606.0, 1610.0, 1611.0, 1614.0, 1612.0, 1611.0, 1613.0, 1609.0, 1607.0, 1609.0, 1611.0, 1609.0, 1609.0, 1614.0, 1617.0, 1615.0, 1611.0, 1605.0, 1608.0, 1610.0, 1607.0, 1609.0, 1614.0, 1614.0, 1612.0, 1612.0, 1612.0, 1615.0, 1613.0, 1610.0, 1610.0, 1611.0, 1610.0, 1611.0, 1612.0, 1609.0, 1607.0, 1610.0, 1615.0, 1613.0, 1608.0, 1608.0, 1611.0, 1613.0, 1613.0, 1612.0, 1616.0, 1612.0, 1611.0, 1614.0, 1616.0, 1612.0, 1614.0, 1610.0, 1614.0, 1614.0, 1612.0, 1610.0, 1611.0, 1610.0, 1611.0, 1610.0, 1613.0, 1617.0, 1618.0, 1614.0, 1612.0, 1613.0, 1615.0, 1616.0, 1615.0, 1612.0, 1615.0, 1617.0, 1613.0, 1614.0, 1614.0, 1615.0, 1612.0, 1612.0, 1611.0, 1614.0, 1612.0, 1620.0, 1622.0, 1620.0, 1623.0, 1622.0, 1625.0, 1620.0, 1614.0, 1611.0, 1614.0, 1610.0, 1609.0, 1611.0, 1612.0, 1613.0, 1616.0, 1617.0, 1614.0, 1610.0, 1615.0, 1617.0, 1617.0, 1613.0, 1611.0, 1613.0, 1609.0, 1609.0]
    },
    "slices": {}
  }
}