{
  "AcquisitionMatrixPE": 100,
  "AcquisitionNumber": 1,
  "AcquisitionTime": "13:52:10.647500",
  "BandwidthPerPixelPhaseEncode": 18.519,
  "BaseResolution": 100,
  "BodyPartExamined": "BRAIN",
  "CoilCombinationMethod": "Sum of Squares",
  "ConsistencyInfo": "N4_VE11C_LATEST_20160120",
  "ConversionSoftware": "dcm2niix",
  "ConversionSoftwareVersion": "v1.0.20211006",
  "DerivedVendorReportedEchoSpacing": 0.000539986,
  "DeviceSerialNumber": "166078",
  "DwellTime": 2.1e-06,
  "EchoTime": 0.034,
  "EchoTrainLength": 100,
  "EffectiveEchoSpacing": 0.000539986,
  "FlipAngle": 90,
  "ImageOrientationPatientDICOM": [0.992782, 0.0329896, 0.115305, -4.90892e-09, 0.961424, -0.275071],
  "ImageOrientationText": "Tra>Cor(-16.0)>Sag(6.9)",
  "ImageType": [
    "ORIGINAL",
    "PRIMARY",
    "M",
    "ND",
    "MOSAIC"
],
  "ImagingFrequency": 123.258,
  "InPlanePhaseEncodingDirectionDICOM": "COL",
  "InstitutionAddress": "Street StreetNo,Bei Jing,District,CN,ZIP",
  "InstitutionName": "BeiJing Normal University",
  "InstitutionalDepartmentName": "Department",
  "MRAcquisitionType": "2D",
  "MagneticFieldStrength": 3,
  "Manufacturer": "Siemens",
  "ManufacturersModelName": "Prisma",
  "Modality": "MR",
  "MultibandAccelerationFactor": 3,
  "PartialFourier": 1,
  "PatientPosition": "HFS",
  "PercentPhaseFOV": 100,
  "PercentSampling": 100,
  "PhaseEncodingDirection": "j-",
  "PhaseEncodingSteps": 100,
  "PhaseResolution": 1,
  "PixelBandwidth": 2380,
  "ProcedureStepDescription": "BNU_P2018_64CH^Zhen.ZongLei",
  "ProtocolName": "bold_100x100_s3_2x2x2_static_156",
  "PulseSequenceDetails": "%SiemensSeq%\\ep2d_bold",
  "ReceiveCoilActiveElements": "HC1-7;NC1",
  "ReceiveCoilName": "HeadNeck_64",
  "ReconMatrixPE": 100,
  "RefLinesPE": 32,
  "RepetitionTime": 2,
  "SAR": 0.0673559,
  "ScanOptions": "FS",
  "ScanningSequence": "EP",
  "SequenceName": "*epfid2d1_100",
  "SequenceVariant": "SK",
  "SeriesDescription": "bold_100x100_s3_2x2x2_static_156",
  "SeriesNumber": 12,
  "ShimSetting": [-5436, -11395, -1356, 581, -48, -434, -206, -7],
  "SliceThickness": 2,
  "SliceTiming": [1.485, 0, 0.99, 0.0825, 1.0725, 0.165, 1.155, 0.2475, 1.2375, 0.33, 1.32, 0.4125, 1.4025, 0.5775, 1.5675, 0.66, 1.65, 0.7425, 1.7325, 0.825, 1.815, 0.9075, 1.8975, 0.495, 1.485, 0, 0.99, 0.0825, 1.0725, 0.165, 1.155, 0.2475, 1.2375, 0.33, 1.32, 0.4125, 1.4025, 0.5775, 1.5675, 0.66, 1.65, 0.7425, 1.7325, 0.825, 1.815, 0.9075, 1.8975, 0.495, 1.485, 0, 0.99, 0.0825, 1.0725, 0.165, 1.155, 0.2475, 1.2375, 0.33, 1.32, 0.4125, 1.4025, 0.5775, 1.5675, 0.66, 1.65, 0.7425, 1.7325, 0.825, 1.815, 0.9075, 1.8975, 0.495],
  "SoftwareVersions": "syngo MR E11",
  "SpacingBetweenSlices": 2,
  "StationName": "AWP166078",
  "TaskName": "action",
  "TotalReadoutTime": 0.0534586,
  "TxRefAmp": 214.747,
  "dcmmeta_affine": [
    [-1.9855643510818481, -9.81784964437793e-09, 0.2398625612258911, 88.4902572631836],
    [-0.06597921252250671, 1.922847867012024, -0.5461709499359131, -62.96708679199219],
    [0.23060961067676544, 0.5501417517662048, 1.9089691638946533, -122.26056671142578],
    [0.0, 0.0, 0.0, 1.0]
],
  "dcmmeta_reorient_transform": [
    [0.0, -1.0, 0.0, 99.0],
    [1.0, 0.0, 0.0, 0.0],
    [0.0, 0.0, 1.0, 0.0],
    [0.0, 0.0, 0.0, 1.0]
],
  "dcmmeta_shape": [100, 100, 72, 156],
  "dcmmeta_slice_dim": 2,
  "dcmmeta_version": 0.6,
  "global": {
    "const": {
      "AcquisitionMatrix": [100, 0, 0, 100],
      "AngioFlag": "N",
      "BitsAllocated": 16,
      "BitsStored": 12,
      "BodyPartExamined": "BRAIN",
      "Columns": 900,
      "EchoNumbers": 1,
      "EchoTime": 34.0,
      "EchoTrainLength": 100,
      "FlipAngle": 90.0,
      "HighBit": 11,
      "ImageOrientationPatient": [0.99278219541508, 0.0329896076854, 0.11530480584768, -4.908925e-09, 0.96142395050133, -0.2750708770525],
      "ImagePositionPatient": [-882.716005681, -922.92570120839, 60.016324130716],
      "ImageType": [
        "ORIGINAL",
        "PRIMARY",
        "M",
        "ND",
        "MOSAIC"
],
      "ImagedNucleus": "1H",
      "ImagingFrequency": 123.25779,
      "InPlanePhaseEncodingDirection": "COL",
      "MRAcquisitionType": "2D",
      "MagneticFieldStrength": 3.0,
      "Manufacturer": "SIEMENS",
      "ManufacturerModelName": "Prisma",
      "Modality": "MR",
      "NumberOfAverages": 1.0,
      "NumberOfPhaseEncodingSteps": 100,
      "PercentPhaseFieldOfView": 100.0,
      "PercentSampling": 100.0,
      "PerformedProcedureStepStartTime": "125828.269000",
      "PhotometricInterpretation": "MONOCHROME2",
      "PixelBandwidth": 2380.0,
      "PixelRepresentation": 0,
      "PixelSpacing": [2.0, 2.0],
      "ProtocolName": "bold_100x100_s3_2x2x2_static_156",
      "RepetitionTime": 2000.0,
      "Rows": 900,
      "SAR": 0.06735592549513,
      "SamplesPerPixel": 1,
      "ScanOptions": "FS",
      "ScanningSequence": "EP",
      "SequenceName": "*epfid2d1_100",
      "SequenceVariant": "SK",
      "SeriesDescription": "bold_100x100_s3_2x2x2_static_156",
      "SeriesNumber": 12,
      "SeriesTime": "135213.330000",
      "SliceLocation": -88.887679242493,
      "SliceThickness": 2.0,
      "SmallestImagePixelValue": 0,
      "SoftwareVersions": "syngo MR E11",
      "SpacingBetweenSlices": 2.0000000325568,
      "SpecificCharacterSet": "ISO_IR 100",
      "StudyID": "1",
      "StudyTime": "125828.187000",
      "TransmitCoilName": "Body",
      "VariableFlipAngleFlag": "N",
      "WindowCenterWidthExplanation": "Algo1",
      "dBdt": 0.0},
    "slices": {}
  },
  "time": {
    "samples": {
      "AcquisitionNumber": [1, 2, 3, 4, 5, 6, 7, 8, 9, 10, 11, 12, 13, 14, 15, 16, 17, 18, 19, 20, 21, 22, 23, 24, 25, 26, 27, 28, 29, 30, 31, 32, 33, 34, 35, 36, 37, 38, 39, 40, 41, 42, 43, 44, 45, 46, 47, 48, 49, 50, 51, 52, 53, 54, 55, 56, 57, 58, 59, 60, 61, 62, 63, 64, 65, 66, 67, 68, 69, 70, 71, 72, 73, 74, 75, 76, 77, 78, 79, 80, 81, 82, 83, 84, 85, 86, 87, 88, 89, 90, 91, 92, 93, 94, 95, 96, 97, 98, 99, 100, 101, 102, 103, 104, 105, 106, 107, 108, 109, 110, 111, 112, 113, 114, 115, 116, 117, 118, 119, 120, 121, 122, 123, 124, 125, 126, 127, 128, 129, 130, 131, 132, 133, 134, 135, 136, 137, 138, 139, 140, 141, 142, 143, 144, 145, 146, 147, 148, 149, 150, 151, 152, 153, 154, 155, 156],
      "AcquisitionTime": ["135210.647500", "135212.647500", "135214.647500", "135216.647500", "135218.647500", "135220.647500", "135222.647500", "135224.647500", "135226.647500", "135228.647500", "135230.647500", "135232.647500", "135234.647500", "135236.647500", "135238.647500", "135240.647500", "135242.647500", "135244.647500", "135246.647500", "135248.647500", "135250.647500", "135252.647500", "135254.647500", "135256.647500", "135258.647500", "135300.647500", "135302.647500", "135304.647500", "135306.647500", "135308.647500", "135310.647500", "135312.647500", "135314.647500", "135316.647500", "135318.647500", "135320.647500", "135322.647500", "135324.647500", "135326.647500", "135328.647500", "135330.647500", "135332.647500", "135334.647500", "135336.647500", "135338.647500", "135340.647500", "135342.647500", "135344.647500", "135346.647500", "135348.647500", "135350.647500", "135352.647500", "135354.647500", "135356.647500", "135358.647500", "135400.647500", "135402.647500", "135404.647500", "135406.647500", "135408.647500", "135410.647500", "135412.647500", "135414.647500", "135416.647500", "135418.647500", "135420.647500", "135422.647500", "135424.647500", "135426.647500", "135428.647500", "135430.647500", "135432.647500", "135434.647500", "135436.647500", "135438.647500", "135440.647500", "135442.647500", "135444.647500", "135446.647500", "135448.647500", "135450.647500", "135452.647500", "135454.647500", "135456.647500", "135458.647500", "135500.647500", "135502.647500", "135504.647500", "135506.647500", "135508.647500", "135510.647500", "135512.647500", "135514.647500", "135516.647500", "135518.647500", "135520.647500", "135522.647500", "135524.647500", "135526.647500", "135528.647500", "135530.647500", "135532.647500", "135534.647500", "135536.647500", "135538.647500", "135540.647500", "135542.647500", "135544.647500", "135546.647500", "135548.647500", "135550.647500", "135552.647500", "135554.647500", "135556.647500", "135558.647500", "135600.647500", "135602.647500", "135604.647500", "135606.647500", "135608.647500", "135610.647500", "135612.647500", "135614.647500", "135616.647500", "135618.647500", "135620.647500", "135622.647500", "135624.647500", "135626.647500", "135628.647500", "135630.647500", "135632.647500", "135634.647500", "135636.647500", "135638.647500", "135640.647500", "135642.647500", "135644.647500", "135646.647500", "135648.647500", "135650.647500", "135652.647500", "135654.647500", "135656.647500", "135658.647500", "135700.647500", "135702.647500", "135704.647500", "135706.647500", "135708.647500", "135710.647500", "135712.647500", "135714.647500", "135716.647500", "135718.647500", "135720.647500"],
      "ContentTime": ["135213.334000", "135214.830000", "135216.829000", "135218.830000", "135220.831000", "135222.830000", "135224.832000", "135226.830000", "135228.830000", "135230.830000", "135232.830000", "135234.829000", "135236.831000", "135238.829000", "135240.830000", "135242.830000", "135244.830000", "135246.830000", "135248.830000", "135250.829000", "135252.829000", "135254.831000", "135256.830000", "135258.829000", "135300.829000", "135302.829000", "135304.829000", "135306.829000", "135308.830000", "135310.829000", "135312.830000", "135314.829000", "135316.829000", "135318.829000", "135320.829000", "135322.829000", "135324.829000", "135326.829000", "135328.829000", "135330.830000", "135332.830000", "135334.830000", "135336.830000", "135338.830000", "135340.830000", "135342.830000", "135344.829000", "135346.831000", "135348.830000", "135350.830000", "135352.829000", "135354.830000", "135356.829000", "135358.829000", "135400.829000", "135402.830000", "135404.830000", "135406.830000", "135408.830000", "135410.829000", "135412.830000", "135414.830000", "135416.829000", "135418.829000", "135420.829000", "135422.831000", "135424.830000", "135426.829000", "135428.830000", "135430.830000", "135432.830000", "135434.830000", "135436.830000", "135438.830000", "135440.830000", "135442.830000", "135444.830000", "135446.830000", "135448.830000", "135450.830000", "135452.830000", "135454.829000", "135456.830000", "135458.830000", "135500.830000", "135502.830000", "135504.830000", "135506.830000", "135508.830000", "135510.830000", "135512.830000", "135514.830000", "135516.830000", "135518.830000", "135520.829000", "135522.830000", "135524.830000", "135526.829000", "135528.830000", "135530.830000", "135532.830000", "135534.830000", "135536.830000", "135538.830000", "135540.830000", "135542.829000", "135544.829000", "135546.830000", "135548.830000", "135550.830000", "135552.830000", "135554.830000", "135556.830000", "135558.830000", "135600.829000", "135602.829000", "135604.830000", "135606.831000", "135608.830000", "135610.830000", "135612.830000", "135614.829000", "135616.829000", "135618.830000", "135620.830000", "135622.830000", "135624.830000", "135626.829000", "135628.830000", "135630.830000", "135632.830000", "135634.830000", "135636.830000", "135638.830000", "135640.830000", "135642.831000", "135644.830000", "135646.829000", "135648.829000", "135650.830000", "135652.830000", "135654.830000", "135656.830000", "135658.829000", "135700.831000", "135702.829000", "135704.830000", "135706.830000", "135708.829000", "135710.830000", "135712.830000", "135714.830000", "135716.830000", "135718.829000", "135720.830000", "135722.405000"],
      "InstanceCreationTime": ["135213.334000", "135214.830000", "135216.829000", "135218.830000", "135220.831000", "135222.830000", "135224.832000", "135226.830000", "135228.830000", "135230.830000", "135232.830000", "135234.829000", "135236.831000", "135238.829000", "135240.830000", "135242.830000", "135244.830000", "135246.830000", "135248.830000", "135250.829000", "135252.829000", "135254.831000", "135256.830000", "135258.829000", "135300.829000", "135302.829000", "135304.829000", "135306.829000", "135308.830000", "135310.829000", "135312.830000", "135314.829000", "135316.829000", "135318.829000", "135320.829000", "135322.829000", "135324.829000", "135326.829000", "135328.829000", "135330.830000", "135332.830000", "135334.830000", "135336.830000", "135338.830000", "135340.830000", "135342.830000", "135344.829000", "135346.831000", "135348.830000", "135350.830000", "135352.829000", "135354.830000", "135356.829000", "135358.829000", "135400.829000", "135402.830000", "135404.830000", "135406.830000", "135408.830000", "135410.829000", "135412.830000", "135414.830000", "135416.829000", "135418.829000", "135420.829000", "135422.831000", "135424.830000", "135426.829000", "135428.830000", "135430.830000", "135432.830000", "135434.830000", "135436.830000", "135438.830000", "135440.830000", "135442.830000", "135444.830000", "135446.830000", "135448.830000", "135450.830000", "135452.830000", "135454.829000", "135456.830000", "135458.830000", "135500.830000", "135502.830000", "135504.830000", "135506.830000", "135508.830000", "135510.830000", "135512.830000", "135514.830000", "135516.830000", "135518.830000", "135520.829000", "135522.830000", "135524.830000", "135526.829000", "135528.830000", "135530.830000", "135532.830000", "135534.830000", "135536.830000", "135538.830000", "135540.830000", "135542.829000", "135544.829000", "135546.830000", "135548.830000", "135550.830000", "135552.830000", "135554.830000", "135556.830000", "135558.830000", "135600.829000", "135602.829000", "135604.830000", "135606.831000", "135608.830000", "135610.830000", "135612.830000", "135614.829000", "135616.829000", "135618.830000", "135620.830000", "135622.830000", "135624.830000", "135626.829000", "135628.830000", "135630.830000", "135632.830000", "135634.830000", "135636.830000", "135638.830000", "135640.830000", "135642.831000", "135644.830000", "135646.829000", "135648.829000", "135650.830000", "135652.830000", "135654.830000", "135656.830000", "135658.829000", "135700.831000", "135702.829000", "135704.830000", "135706.830000", "135708.829000", "135710.830000", "135712.830000", "135714.830000", "135716.830000", "135718.829000", "135720.830000", "135722.405000"],
      "InstanceNumber": [1, 2, 3, 4, 5, 6, 7, 8, 9, 10, 11, 12, 13, 14, 15, 16, 17, 18, 19, 20, 21, 22, 23, 24, 25, 26, 27, 28, 29, 30, 31, 32, 33, 34, 35, 36, 37, 38, 39, 40, 41, 42, 43, 44, 45, 46, 47, 48, 49, 50, 51, 52, 53, 54, 55, 56, 57, 58, 59, 60, 61, 62, 63, 64, 65, 66, 67, 68, 69, 70, 71, 72, 73, 74, 75, 76, 77, 78, 79, 80, 81, 82, 83, 84, 85, 86, 87, 88, 89, 90, 91, 92, 93, 94, 95, 96, 97, 98, 99, 100, 101, 102, 103, 104, 105, 106, 107, 108, 109, 110, 111, 112, 113, 114, 115, 116, 117, 118, 119, 120, 121, 122, 123, 124, 125, 126, 127, 128, 129, 130, 131, 132, 133, 134, 135, 136, 137, 138, 139, 140, 141, 142, 143, 144, 145, 146, 147, 148, 149, 150, 151, 152, 153, 154, 155, 156],
      "LargestImagePixelValue": [2814, 2761, 2809, 2744, 2800, 2770, 2791, 2758, 2778, 2774, 2746, 2748, 2691, 2713, 2652, 2695, 2833, 2725, 2727, 2759, 2729, 2835, 2699, 2685, 2704, 2680, 2744, 2725, 2714, 2684, 2700, 2677, 2819, 2737, 2706, 2715, 2715, 2781, 2797, 2753, 2748, 2762, 2759, 2778, 2762, 2744, 2756, 2717, 2774, 2773, 2751, 2728, 2773, 2872, 2767, 2813, 2764, 2722, 2766, 2831, 2790, 2748, 2695, 2794, 2741, 2787, 2766, 2756, 2747, 2836, 2752, 2725, 2764, 2870, 2768, 2761, 2752, 2735, 2731, 2726, 2741, 2718, 2750, 2717, 2729, 2747, 2687, 2742, 2710, 2762, 2756, 2715, 2760, 2723, 2755, 2734, 2717, 2739, 2677, 2687, 2730, 2707, 2688, 2823, 2722, 2736, 2712, 2747, 2767, 2735, 2725, 2712, 2730, 2727, 2680, 2861, 2812, 2814, 2775, 2767, 2803, 2852, 2839, 2827, 2785, 2801, 2798, 2793, 2745, 2786, 2761, 2741, 2686, 2711, 2754, 2717, 2717, 2723, 2723, 2778, 2718, 2752, 2777, 2767, 2768, 2748, 2759, 2762, 2803, 2818, 2752, 2700, 2724, 2731, 2824, 2718],
      "WindowCenter": [757.0, 755.0, 754.0, 753.0, 755.0, 755.0, 756.0, 755.0, 755.0, 755.0, 754.0, 754.0, 754.0, 754.0, 753.0, 752.0, 754.0, 753.0, 753.0, 755.0, 754.0, 755.0, 752.0, 751.0, 752.0, 752.0, 753.0, 753.0, 753.0, 752.0, 751.0, 752.0, 755.0, 754.0, 753.0, 752.0, 753.0, 755.0, 755.0, 754.0, 753.0, 753.0, 754.0, 753.0, 753.0, 753.0, 754.0, 752.0, 754.0, 754.0, 754.0, 754.0, 755.0, 755.0, 753.0, 756.0, 755.0, 753.0, 753.0, 754.0, 754.0, 753.0, 753.0, 754.0, 754.0, 755.0, 758.0, 758.0, 755.0, 754.0, 752.0, 752.0, 753.0, 754.0, 753.0, 753.0, 753.0, 753.0, 752.0, 752.0, 752.0, 753.0, 754.0, 754.0, 754.0, 753.0, 752.0, 753.0, 753.0, 754.0, 753.0, 752.0, 752.0, 752.0, 754.0, 753.0, 753.0, 752.0, 751.0, 752.0, 753.0, 753.0, 752.0, 753.0, 752.0, 753.0, 754.0, 755.0, 754.0, 753.0, 752.0, 752.0, 753.0, 753.0, 751.0, 753.0, 753.0, 754.0, 755.0, 755.0, 754.0, 755.0, 755.0, 756.0, 755.0, 755.0, 753.0, 752.0, 753.0, 753.0, 753.0, 753.0, 751.0, 751.0, 752.0, 752.0, 751.0, 750.0, 751.0, 753.0, 751.0, 753.0, 754.0, 754.0, 753.0, 751.0, 752.0, 752.0, 754.0, 753.0, 750.0, 750.0, 751.0, 750.0, 750.0, 751.0],
      "WindowWidth": [1632.0, 1628.0, 1626.0, 1624.0, 1629.0, 1630.0, 1630.0, 1629.0, 1628.0, 1628.0, 1627.0, 1627.0, 1626.0, 1626.0, 1624.0, 1622.0, 1626.0, 1624.0, 1624.0, 1628.0, 1626.0, 1628.0, 1622.0, 1620.0, 1622.0, 1620.0, 1623.0, 1623.0, 1625.0, 1622.0, 1619.0, 1620.0, 1628.0, 1626.0, 1622.0, 1620.0, 1624.0, 1628.0, 1627.0, 1625.0, 1624.0, 1624.0, 1625.0, 1623.0, 1624.0, 1624.0, 1625.0, 1622.0, 1624.0, 1625.0, 1625.0, 1626.0, 1628.0, 1627.0, 1624.0, 1630.0, 1628.0, 1624.0, 1623.0, 1626.0, 1627.0, 1624.0, 1622.0, 1624.0, 1625.0, 1630.0, 1636.0, 1636.0, 1628.0, 1625.0, 1621.0, 1621.0, 1622.0, 1626.0, 1623.0, 1624.0, 1624.0, 1623.0, 1622.0, 1622.0, 1622.0, 1623.0, 1626.0, 1626.0, 1625.0, 1624.0, 1622.0, 1624.0, 1624.0, 1625.0, 1622.0, 1620.0, 1621.0, 1622.0, 1626.0, 1624.0, 1622.0, 1621.0, 1619.0, 1620.0, 1624.0, 1622.0, 1619.0, 1622.0, 1621.0, 1624.0, 1627.0, 1628.0, 1626.0, 1623.0, 1621.0, 1622.0, 1624.0, 1624.0, 1619.0, 1623.0, 1623.0, 1627.0, 1628.0, 1627.0, 1627.0, 1629.0, 1629.0, 1630.0, 1629.0, 1627.0, 1623.0, 1621.0, 1622.0, 1624.0, 1623.0, 1623.0, 1619.0, 1620.0, 1621.0, 1622.0, 1619.0, 1615.0, 1617.0, 1621.0, 1619.0, 1622.0, 1627.0, 1627.0, 1623.0, 1619.0, 1622.0, 1622.0, 1625.0, 1624.0, 1617.0, 1616.0, 1618.0, 1616.0, 1617.0, 1618.0]
    },
    "slices": {}
  }
}