{
  "AcquisitionMatrixPE": 100,
  "AcquisitionNumber": 1,
  "AcquisitionTime": "13:12:35.455000",
  "BandwidthPerPixelPhaseEncode": 18.519,
  "BaseResolution": 100,
  "BodyPartExamined": "BRAIN",
  "CoilCombinationMethod": "Sum of Squares",
  "ConsistencyInfo": "N4_VE11C_LATEST_20160120",
  "ConversionSoftware": "dcm2niix",
  "ConversionSoftwareVersion": "v1.0.20211006",
  "DerivedVendorReportedEchoSpacing": 0.000539986,
  "DeviceSerialNumber": "166078",
  "DwellTime": 2.1e-06,
  "EchoTime": 0.034,
  "EchoTrainLength": 100,
  "EffectiveEchoSpacing": 0.000539986,
  "FlipAngle": 90,
  "ImageOrientationPatientDICOM": [0.992782, 0.0329896, 0.115305, -4.90892e-09, 0.961424, -0.275071],
  "ImageOrientationText": "Tra>Cor(-16.0)>Sag(6.9)",
  "ImageType": [
    "ORIGINAL",
    "PRIMARY",
    "M",
    "ND",
    "MOSAIC"
],
  "ImagingFrequency": 123.258,
  "InPlanePhaseEncodingDirectionDICOM": "COL",
  "InstitutionAddress": "Street StreetNo,Bei Jing,District,CN,ZIP",
  "InstitutionName": "BeiJing Normal University",
  "InstitutionalDepartmentName": "Department",
  "MRAcquisitionType": "2D",
  "MagneticFieldStrength": 3,
  "Manufacturer": "Siemens",
  "ManufacturersModelName": "Prisma",
  "Modality": "MR",
  "MultibandAccelerationFactor": 3,
  "PartialFourier": 1,
  "PatientPosition": "HFS",
  "PercentPhaseFOV": 100,
  "PercentSampling": 100,
  "PhaseEncodingDirection": "j-",
  "PhaseEncodingSteps": 100,
  "PhaseResolution": 1,
  "PixelBandwidth": 2380,
  "ProcedureStepDescription": "BNU_P2018_64CH^Zhen.ZongLei",
  "ProtocolName": "bold_100x100_s3_2x2x2_static_156",
  "PulseSequenceDetails": "%SiemensSeq%\\ep2d_bold",
  "ReceiveCoilActiveElements": "HC1-7;NC1",
  "ReceiveCoilName": "HeadNeck_64",
  "ReconMatrixPE": 100,
  "RefLinesPE": 32,
  "RepetitionTime": 2,
  "SAR": 0.0673559,
  "ScanOptions": "FS",
  "ScanningSequence": "EP",
  "SequenceName": "*epfid2d1_100",
  "SequenceVariant": "SK",
  "SeriesDescription": "bold_100x100_s3_2x2x2_static_156",
  "SeriesNumber": 4,
  "ShimSetting": [-5436, -11395, -1356, 581, -48, -434, -206, -7],
  "SliceThickness": 2,
  "SliceTiming": [1.485, 0, 0.99, 0.0825, 1.0725, 0.165, 1.155, 0.2475, 1.2375, 0.33, 1.32, 0.4125, 1.4025, 0.5775, 1.5675, 0.66, 1.65, 0.7425, 1.7325, 0.825, 1.815, 0.9075, 1.8975, 0.495, 1.485, 0, 0.99, 0.0825, 1.0725, 0.165, 1.155, 0.2475, 1.2375, 0.33, 1.32, 0.4125, 1.4025, 0.5775, 1.5675, 0.66, 1.65, 0.7425, 1.7325, 0.825, 1.815, 0.9075, 1.8975, 0.495, 1.485, 0, 0.99, 0.0825, 1.0725, 0.165, 1.155, 0.2475, 1.2375, 0.33, 1.32, 0.4125, 1.4025, 0.5775, 1.5675, 0.66, 1.65, 0.7425, 1.7325, 0.825, 1.815, 0.9075, 1.8975, 0.495],
  "SoftwareVersions": "syngo MR E11",
  "SpacingBetweenSlices": 2,
  "StationName": "AWP166078",
  "TaskName": "action",
  "TotalReadoutTime": 0.0534586,
  "TxRefAmp": 214.747,
  "dcmmeta_affine": [
    [-1.9855643510818481, -9.81784964437793e-09, 0.2398625612258911, 88.4902572631836],
    [-0.06597921252250671, 1.922847867012024, -0.5461709499359131, -62.96708679199219],
    [0.23060961067676544, 0.5501417517662048, 1.9089691638946533, -122.26056671142578],
    [0.0, 0.0, 0.0, 1.0]
],
  "dcmmeta_reorient_transform": [
    [0.0, -1.0, 0.0, 99.0],
    [1.0, 0.0, 0.0, 0.0],
    [0.0, 0.0, 1.0, 0.0],
    [0.0, 0.0, 0.0, 1.0]
],
  "dcmmeta_shape": [100, 100, 72, 156],
  "dcmmeta_slice_dim": 2,
  "dcmmeta_version": 0.6,
  "global": {
    "const": {
      "AcquisitionMatrix": [100, 0, 0, 100],
      "AngioFlag": "N",
      "BitsAllocated": 16,
      "BitsStored": 12,
      "BodyPartExamined": "BRAIN",
      "Columns": 900,
      "EchoNumbers": 1,
      "EchoTime": 34.0,
      "EchoTrainLength": 100,
      "FlipAngle": 90.0,
      "HighBit": 11,
      "ImageOrientationPatient": [0.99278219541508, 0.0329896076854, 0.11530480584768, -4.908925e-09, 0.96142395050133, -0.2750708770525],
      "ImagePositionPatient": [-882.716005681, -922.92570120839, 60.016324130716],
      "ImageType": [
        "ORIGINAL",
        "PRIMARY",
        "M",
        "ND",
        "MOSAIC"
],
      "ImagedNucleus": "1H",
      "ImagingFrequency": 123.257779,
      "InPlanePhaseEncodingDirection": "COL",
      "MRAcquisitionType": "2D",
      "MagneticFieldStrength": 3.0,
      "Manufacturer": "SIEMENS",
      "ManufacturerModelName": "Prisma",
      "Modality": "MR",
      "NumberOfAverages": 1.0,
      "NumberOfPhaseEncodingSteps": 100,
      "PercentPhaseFieldOfView": 100.0,
      "PercentSampling": 100.0,
      "PerformedProcedureStepStartTime": "125828.269000",
      "PhotometricInterpretation": "MONOCHROME2",
      "PixelBandwidth": 2380.0,
      "PixelRepresentation": 0,
      "PixelSpacing": [2.0, 2.0],
      "ProtocolName": "bold_100x100_s3_2x2x2_static_156",
      "RepetitionTime": 2000.0,
      "Rows": 900,
      "SAR": 0.06735592549513,
      "SamplesPerPixel": 1,
      "ScanOptions": "FS",
      "ScanningSequence": "EP",
      "SequenceName": "*epfid2d1_100",
      "SequenceVariant": "SK",
      "SeriesDescription": "bold_100x100_s3_2x2x2_static_156",
      "SeriesNumber": 4,
      "SeriesTime": "131237.376000",
      "SliceLocation": -88.887679242493,
      "SliceThickness": 2.0,
      "SmallestImagePixelValue": 0,
      "SoftwareVersions": "syngo MR E11",
      "SpacingBetweenSlices": 2.0000000325568,
      "SpecificCharacterSet": "ISO_IR 100",
      "StudyID": "1",
      "StudyTime": "125828.187000",
      "TransmitCoilName": "Body",
      "VariableFlipAngleFlag": "N",
      "WindowCenterWidthExplanation": "Algo1",
      "dBdt": 0.0},
    "slices": {}
  },
  "time": {
    "samples": {
      "AcquisitionNumber": [1, 2, 3, 4, 5, 6, 7, 8, 9, 10, 11, 12, 13, 14, 15, 16, 17, 18, 19, 20, 21, 22, 23, 24, 25, 26, 27, 28, 29, 30, 31, 32, 33, 34, 35, 36, 37, 38, 39, 40, 41, 42, 43, 44, 45, 46, 47, 48, 49, 50, 51, 52, 53, 54, 55, 56, 57, 58, 59, 60, 61, 62, 63, 64, 65, 66, 67, 68, 69, 70, 71, 72, 73, 74, 75, 76, 77, 78, 79, 80, 81, 82, 83, 84, 85, 86, 87, 88, 89, 90, 91, 92, 93, 94, 95, 96, 97, 98, 99, 100, 101, 102, 103, 104, 105, 106, 107, 108, 109, 110, 111, 112, 113, 114, 115, 116, 117, 118, 119, 120, 121, 122, 123, 124, 125, 126, 127, 128, 129, 130, 131, 132, 133, 134, 135, 136, 137, 138, 139, 140, 141, 142, 143, 144, 145, 146, 147, 148, 149, 150, 151, 152, 153, 154, 155, 156],
      "AcquisitionTime": ["131235.455000", "131237.455000", "131239.455000", "131241.455000", "131243.455000", "131245.455000", "131247.455000", "131249.455000", "131251.455000", "131253.455000", "131255.455000", "131257.455000", "131259.455000", "131301.455000", "131303.455000", "131305.455000", "131307.455000", "131309.455000", "131311.455000", "131313.455000", "131315.455000", "131317.455000", "131319.455000", "131321.455000", "131323.455000", "131325.455000", "131327.455000", "131329.455000", "131331.455000", "131333.455000", "131335.455000", "131337.455000", "131339.455000", "131341.455000", "131343.455000", "131345.455000", "131347.455000", "131349.455000", "131351.455000", "131353.455000", "131355.455000", "131357.455000", "131359.455000", "131401.455000", "131403.455000", "131405.455000", "131407.455000", "131409.455000", "131411.455000", "131413.455000", "131415.455000", "131417.455000", "131419.455000", "131421.455000", "131423.455000", "131425.455000", "131427.455000", "131429.455000", "131431.455000", "131433.455000", "131435.455000", "131437.455000", "131439.455000", "131441.455000", "131443.455000", "131445.455000", "131447.455000", "131449.455000", "131451.455000", "131453.455000", "131455.455000", "131457.455000", "131459.455000", "131501.455000", "131503.455000", "131505.455000", "131507.455000", "131509.455000", "131511.455000", "131513.455000", "131515.455000", "131517.455000", "131519.455000", "131521.455000", "131523.455000", "131525.455000", "131527.455000", "131529.455000", "131531.455000", "131533.455000", "131535.455000", "131537.455000", "131539.455000", "131541.455000", "131543.455000", "131545.455000", "131547.455000", "131549.455000", "131551.455000", "131553.455000", "131555.455000", "131557.455000", "131559.455000", "131601.455000", "131603.455000", "131605.455000", "131607.455000", "131609.455000", "131611.455000", "131613.455000", "131615.455000", "131617.455000", "131619.455000", "131621.455000", "131623.455000", "131625.455000", "131627.455000", "131629.455000", "131631.455000", "131633.455000", "131635.455000", "131637.455000", "131639.455000", "131641.455000", "131643.455000", "131645.455000", "131647.455000", "131649.455000", "131651.455000", "131653.455000", "131655.455000", "131657.455000", "131659.455000", "131701.455000", "131703.455000", "131705.455000", "131707.455000", "131709.455000", "131711.455000", "131713.455000", "131715.455000", "131717.455000", "131719.455000", "131721.455000", "131723.455000", "131725.455000", "131727.455000", "131729.455000", "131731.455000", "131733.455000", "131735.455000", "131737.455000", "131739.455000", "131741.455000", "131743.455000", "131745.455000"],
      "ContentTime": ["131237.380000", "131238.875000", "131240.875000", "131242.876000", "131244.876000", "131246.877000", "131248.876000", "131250.875000", "131252.875000", "131254.875000", "131256.876000", "131258.876000", "131300.877000", "131302.876000", "131304.877000", "131306.876000", "131308.875000", "131310.875000", "131312.875000", "131314.875000", "131316.877000", "131318.877000", "131320.876000", "131322.876000", "131324.875000", "131326.875000", "131328.875000", "131330.876000", "131332.875000", "131334.877000", "131336.877000", "131338.876000", "131340.876000", "131342.876000", "131344.876000", "131346.876000", "131348.876000", "131350.876000", "131352.877000", "131354.876000", "131356.877000", "131358.876000", "131401.375000", "131402.875000", "131404.876000", "131406.875000", "131408.876000", "131410.876000", "131412.877000", "131414.876000", "131416.875000", "131418.875000", "131420.876000", "131423.376000", "131424.876000", "131426.876000", "131428.877000", "131430.876000", "131432.877000", "131434.876000", "131436.876000", "131438.876000", "131440.875000", "131442.875000", "131444.877000", "131446.876000", "131448.877000", "131450.877000", "131452.876000", "131454.875000", "131456.876000", "131458.875000", "131500.876000", "131502.876000", "131504.876000", "131506.876000", "131508.876000", "131510.875000", "131512.875000", "131514.876000", "131516.876000", "131518.876000", "131520.877000", "131522.876000", "131524.877000", "131526.876000", "131528.875000", "131530.875000", "131532.875000", "131534.875000", "131536.877000", "131538.876000", "131540.877000", "131542.877000", "131544.876000", "131546.875000", "131548.875000", "131550.875000", "131552.875000", "131554.876000", "131556.876000", "131558.876000", "131600.877000", "131602.875000", "131604.875000", "131606.875000", "131608.875000", "131610.875000", "131612.877000", "131615.376000", "131616.876000", "131618.877000", "131620.875000", "131622.875000", "131624.875000", "131626.876000", "131628.877000", "131630.877000", "131632.877000", "131634.877000", "131636.876000", "131638.876000", "131640.876000", "131642.875000", "131644.875000", "131646.876000", "131648.876000", "131650.876000", "131652.877000", "131654.875000", "131656.875000", "131658.876000", "131700.875000", "131702.876000", "131704.876000", "131706.876000", "131708.877000", "131710.877000", "131712.875000", "131714.876000", "131716.875000", "131718.876000", "131720.875000", "131722.876000", "131724.876000", "131726.877000", "131728.877000", "131730.875000", "131732.876000", "131734.875000", "131736.876000", "131738.877000", "131740.876000", "131742.877000", "131744.877000", "131746.833000"],
      "InstanceCreationTime": ["131237.380000", "131238.875000", "131240.875000", "131242.876000", "131244.876000", "131246.877000", "131248.876000", "131250.875000", "131252.875000", "131254.875000", "131256.876000", "131258.876000", "131300.877000", "131302.876000", "131304.877000", "131306.876000", "131308.875000", "131310.875000", "131312.875000", "131314.875000", "131316.877000", "131318.877000", "131320.876000", "131322.876000", "131324.875000", "131326.875000", "131328.875000", "131330.876000", "131332.875000", "131334.877000", "131336.877000", "131338.876000", "131340.876000", "131342.876000", "131344.876000", "131346.876000", "131348.876000", "131350.876000", "131352.877000", "131354.876000", "131356.877000", "131358.876000", "131401.375000", "131402.875000", "131404.876000", "131406.875000", "131408.876000", "131410.876000", "131412.877000", "131414.876000", "131416.875000", "131418.875000", "131420.876000", "131423.376000", "131424.876000", "131426.876000", "131428.877000", "131430.876000", "131432.877000", "131434.876000", "131436.876000", "131438.876000", "131440.875000", "131442.875000", "131444.877000", "131446.876000", "131448.877000", "131450.877000", "131452.876000", "131454.875000", "131456.876000", "131458.875000", "131500.876000", "131502.876000", "131504.876000", "131506.876000", "131508.876000", "131510.875000", "131512.875000", "131514.876000", "131516.876000", "131518.876000", "131520.877000", "131522.876000", "131524.877000", "131526.876000", "131528.875000", "131530.875000", "131532.875000", "131534.875000", "131536.877000", "131538.876000", "131540.877000", "131542.877000", "131544.876000", "131546.875000", "131548.875000", "131550.875000", "131552.875000", "131554.876000", "131556.876000", "131558.876000", "131600.877000", "131602.875000", "131604.875000", "131606.875000", "131608.875000", "131610.875000", "131612.877000", "131615.376000", "131616.876000", "131618.877000", "131620.875000", "131622.875000", "131624.875000", "131626.876000", "131628.877000", "131630.877000", "131632.877000", "131634.877000", "131636.876000", "131638.876000", "131640.876000", "131642.875000", "131644.875000", "131646.876000", "131648.876000", "131650.876000", "131652.877000", "131654.875000", "131656.875000", "131658.876000", "131700.875000", "131702.876000", "131704.876000", "131706.876000", "131708.877000", "131710.877000", "131712.875000", "131714.876000", "131716.875000", "131718.876000", "131720.875000", "131722.876000", "131724.876000", "131726.877000", "131728.877000", "131730.875000", "131732.876000", "131734.875000", "131736.876000", "131738.877000", "131740.876000", "131742.877000", "131744.877000", "131746.833000"],
      "InstanceNumber": [1, 2, 3, 4, 5, 6, 7, 8, 9, 10, 11, 12, 13, 14, 15, 16, 17, 18, 19, 20, 21, 22, 23, 24, 25, 26, 27, 28, 29, 30, 31, 32, 33, 34, 35, 36, 37, 38, 39, 40, 41, 42, 43, 44, 45, 46, 47, 48, 49, 50, 51, 52, 53, 54, 55, 56, 57, 58, 59, 60, 61, 62, 63, 64, 65, 66, 67, 68, 69, 70, 71, 72, 73, 74, 75, 76, 77, 78, 79, 80, 81, 82, 83, 84, 85, 86, 87, 88, 89, 90, 91, 92, 93, 94, 95, 96, 97, 98, 99, 100, 101, 102, 103, 104, 105, 106, 107, 108, 109, 110, 111, 112, 113, 114, 115, 116, 117, 118, 119, 120, 121, 122, 123, 124, 125, 126, 127, 128, 129, 130, 131, 132, 133, 134, 135, 136, 137, 138, 139, 140, 141, 142, 143, 144, 145, 146, 147, 148, 149, 150, 151, 152, 153, 154, 155, 156],
      "LargestImagePixelValue": [2830, 2788, 2767, 2852, 2846, 2829, 2800, 2834, 2813, 2813, 2844, 2821, 2813, 2842, 2823, 2817, 2809, 2881, 2808, 2801, 2840, 2821, 2807, 2817, 2803, 2784, 2813, 2825, 2829, 2795, 2766, 2796, 2788, 2792, 2811, 2811, 2803, 2782, 2768, 2825, 2790, 2799, 2757, 2830, 2773, 2818, 2826, 2810, 2810, 2807, 2815, 2803, 2794, 2790, 2763, 2770, 2791, 2808, 2828, 2808, 2800, 2817, 2800, 2799, 2817, 2837, 2814, 2795, 2805, 2782, 2807, 2764, 2742, 2800, 2825, 2792, 2780, 2750, 2757, 2804, 2800, 2813, 2793, 2776, 2808, 2803, 2765, 2763, 2741, 2786, 2717, 2835, 2707, 2722, 2718, 2798, 2743, 2769, 2752, 2766, 2759, 2786, 2782, 2770, 2760, 2768, 2754, 2765, 2768, 2764, 2760, 2737, 2788, 2779, 2788, 2722, 2800, 2729, 2745, 2737, 2744, 2732, 2790, 2767, 2734, 2723, 2773, 2706, 2707, 2748, 2788, 2751, 2795, 2764, 2766, 2741, 2779, 2795, 2811, 2797, 2823, 2789, 2806, 2812, 2781, 2825, 2755, 2762, 2788, 2781, 2766, 2738, 2780, 2730, 2747, 2802],
      "WindowCenter": [745.0, 745.0, 744.0, 745.0, 744.0, 744.0, 743.0, 744.0, 744.0, 744.0, 745.0, 745.0, 746.0, 746.0, 745.0, 745.0, 745.0, 745.0, 744.0, 745.0, 746.0, 745.0, 745.0, 746.0, 746.0, 745.0, 745.0, 744.0, 745.0, 744.0, 743.0, 744.0, 744.0, 744.0, 745.0, 744.0, 744.0, 744.0, 744.0, 745.0, 745.0, 745.0, 743.0, 745.0, 745.0, 746.0, 745.0, 745.0, 745.0, 745.0, 746.0, 745.0, 744.0, 744.0, 743.0, 744.0, 745.0, 745.0, 745.0, 744.0, 744.0, 745.0, 744.0, 745.0, 745.0, 746.0, 746.0, 745.0, 746.0, 745.0, 745.0, 745.0, 745.0, 746.0, 746.0, 745.0, 744.0, 744.0, 744.0, 745.0, 745.0, 745.0, 745.0, 745.0, 745.0, 745.0, 745.0, 744.0, 744.0, 745.0, 743.0, 742.0, 740.0, 741.0, 742.0, 744.0, 744.0, 744.0, 744.0, 744.0, 745.0, 745.0, 744.0, 744.0, 745.0, 745.0, 745.0, 745.0, 745.0, 745.0, 745.0, 744.0, 745.0, 745.0, 744.0, 743.0, 745.0, 744.0, 745.0, 745.0, 746.0, 745.0, 745.0, 745.0, 744.0, 744.0, 744.0, 743.0, 744.0, 744.0, 745.0, 745.0, 746.0, 745.0, 745.0, 745.0, 745.0, 746.0, 746.0, 745.0, 745.0, 745.0, 746.0, 746.0, 746.0, 746.0, 744.0, 745.0, 745.0, 746.0, 745.0, 745.0, 745.0, 744.0, 745.0, 745.0],
      "WindowWidth": [1605.0, 1604.0, 1603.0, 1604.0, 1601.0, 1602.0, 1601.0, 1601.0, 1601.0, 1603.0, 1604.0, 1604.0, 1606.0, 1607.0, 1606.0, 1605.0, 1604.0, 1604.0, 1601.0, 1603.0, 1606.0, 1604.0, 1603.0, 1608.0, 1608.0, 1605.0, 1603.0, 1602.0, 1604.0, 1602.0, 1601.0, 1601.0, 1601.0, 1602.0, 1604.0, 1603.0, 1602.0, 1602.0, 1601.0, 1604.0, 1605.0, 1603.0, 1600.0, 1605.0, 1606.0, 1607.0, 1605.0, 1605.0, 1605.0, 1605.0, 1606.0, 1605.0, 1603.0, 1601.0, 1600.0, 1602.0, 1605.0, 1604.0, 1604.0, 1603.0, 1603.0, 1604.0, 1602.0, 1603.0, 1605.0, 1608.0, 1606.0, 1605.0, 1606.0, 1604.0, 1605.0, 1605.0, 1604.0, 1606.0, 1606.0, 1604.0, 1603.0, 1601.0, 1602.0, 1604.0, 1604.0, 1603.0, 1604.0, 1603.0, 1603.0, 1604.0, 1604.0, 1602.0, 1602.0, 1605.0, 1598.0, 1595.0, 1592.0, 1595.0, 1597.0, 1602.0, 1601.0, 1602.0, 1601.0, 1602.0, 1604.0, 1605.0, 1601.0, 1601.0, 1603.0, 1604.0, 1603.0, 1604.0, 1605.0, 1605.0, 1604.0, 1602.0, 1603.0, 1603.0, 1600.0, 1598.0, 1603.0, 1601.0, 1604.0, 1605.0, 1606.0, 1603.0, 1605.0, 1603.0, 1601.0, 1601.0, 1601.0, 1600.0, 1602.0, 1602.0, 1603.0, 1603.0, 1606.0, 1603.0, 1604.0, 1603.0, 1604.0, 1605.0, 1606.0, 1603.0, 1605.0, 1604.0, 1606.0, 1607.0, 1606.0, 1606.0, 1603.0, 1603.0, 1604.0, 1606.0, 1604.0, 1603.0, 1603.0, 1602.0, 1603.0, 1604.0]
    },
    "slices": {}
  }
}