{"AcquisitionMatrixPE": 100, "AcquisitionNumber": 1, "AcquisitionTime": "11:10:6.282500", "BaseResolution": 100, "BodyPartExamined": "BRAIN", "CoilCombinationMethod": "Sum of Squares", "ConsistencyInfo": "N4_VE11C_LATEST_20160120", "ConversionSoftware": "dcm2niix", "ConversionSoftwareVersion": "v1.0.20211006", "DeviceSerialNumber": "166078", "DwellTime": 8.8e-06, "EchoNumber": 2, "EchoTime": 0.00738, "EchoTime1": 0.00492, "EchoTime2": 0.00738, "FlipAngle": 60, "ImageOrientationPatientDICOM": [0.998812, -0.0174827, -0.0454954, -7.14898e-10, 0.933452, -0.358702], "ImageOrientationText": "Tra>Cor(-21.0)>Sag(-2.8)", "ImageType": ["ORIGINAL", "PRIMARY", "P", "ND", "PHASE"], "ImagingFrequency": 123.258, "InPlanePhaseEncodingDirectionDICOM": "ROW", "InstitutionAddress": "Street StreetNo,Bei Jing,District,CN,ZIP", "InstitutionName": "BeiJing Normal University", "InstitutionalDepartmentName": "Department", "MRAcquisitionType": "2D", "MagneticFieldStrength": 3, "Manufacturer": "Siemens", "ManufacturersModelName": "Prisma", "MatrixCoilMode": "SENSE", "Modality": "MR", "PartialFourier": 1, "PatientPosition": "HFS", "PercentPhaseFOV": 100, "PercentSampling": 100, "PhaseEncodingDirection": "i", "PhaseEncodingSteps": 100, "PhaseResolution": 1, "PixelBandwidth": 570, "ProcedureStepDescription": "BNU_P2018_64CH^Zhen.ZongLei", "ProtocolName": "field_mapping_2x2x2", "PulseSequenceDetails": "%SiemensSeq%\\gre_field_mapping", "ReceiveCoilActiveElements": "HC1-7;NC1", "ReceiveCoilName": "HeadNeck_64", "ReconMatrixPE": 100, "RepetitionTime": 0.72, "SAR": 0.137522, "ScanningSequence": "GR", "SequenceName": "*fm2d2r", "SequenceVariant": "SP", "SeriesDescription": "field_mapping_2x2x2", "SeriesNumber": 10, "ShimSetting": [-5477, -11466, -1248, 391, -89, -423, -111, 50], "SliceThickness": 2, "SliceTiming": [0.35938, 0, 0.36719, 0.00781, 0.38281, 0.02344, 0.39062, 0.03125, 0.39844, 0.03906, 0.41406, 0.04688, 0.42188, 0.0625, 0.42969, 0.07031, 0.4375, 0.07812, 0.45312, 0.09375, 0.46094, 0.10156, 0.46875, 0.10938, 0.48438, 0.11719, 0.49219, 0.13281, 0.5, 0.14062, 0.50781, 0.14844, 0.52344, 0.16406, 0.53125, 0.17188, 0.53906, 0.17969, 0.54688, 0.1875, 0.5625, 0.20312, 0.57031, 0.21094, 0.57812, 0.21875, 0.59375, 0.23438, 0.60156, 0.24219, 0.60938, 0.25, 0.61719, 0.25781, 0.63281, 0.27344, 0.64062, 0.28125, 0.64844, 0.28906, 0.66406, 0.29688, 0.67188, 0.3125, 0.67969, 0.32031, 0.6875, 0.32812, 0.70312, 0.34375, 0.71094, 0.35156], "SoftwareVersions": "syngo MR E11", "SpacingBetweenSlices": 2, "StationName": "AWP166078", "TxRefAmp": 232.271, "dcmmeta_affine": [[-1.997623085975647, -1.429795948304502e-09, -0.09747767448425293, 105.37551879882812], [0.03496545925736427, 1.8669042587280273, -0.716552734375, -68.79298400878906], [-0.09099080413579941, 0.7174040079116821, 1.86468505859375, -99.51187896728516], [0.0, 0.0, 0.0, 1.0]], "dcmmeta_reorient_transform": [[0.0, -1.0, 0.0, 99.0], [1.0, 0.0, 0.0, 0.0], [0.0, 0.0, -1.0, 71.0], [0.0, 0.0, 0.0, 1.0]], "dcmmeta_shape": [100, 100, 72], "dcmmeta_slice_dim": 2, "dcmmeta_version": 0.6, "global": {"const": {"AcquisitionMatrix": [0, 100, 100, 0], "AcquisitionNumber": 1, "AngioFlag": "N", "BitsAllocated": 16, "BitsStored": 12, "BodyPartExamined": "BRAIN", "Columns": 100, "EchoNumbers": 2, "EchoTime": 7.38, "EchoTrainLength": 0, "FlipAngle": 60.0, "HighBit": 11, "ImageOrientationPatient": [0.99881155502314, -0.0174827305528, -0.0454954028962, -7.14898e-10, 0.9334521225044, -0.3587020142012], "ImageType": ["ORIGINAL", "PRIMARY", "P", "ND"], "ImagedNucleus": "1H", "ImagingFrequency": 123.257749, "InPlanePhaseEncodingDirection": "ROW", "MRAcquisitionType": "2D", "MagneticFieldStrength": 3.0, "Manufacturer": "SIEMENS", "ManufacturerModelName": "Prisma", "Modality": "MR", "NumberOfAverages": 1.0, "NumberOfPhaseEncodingSteps": 100, "PercentPhaseFieldOfView": 100.0, "PercentSampling": 100.0, "PerformedProcedureStepStartTime": "102743.462000", "PhotometricInterpretation": "MONOCHROME2", "PixelBandwidth": 570.0, "PixelRepresentation": 0, "PixelSpacing": [2.0, 2.0], "ProtocolName": "field_mapping_2x2x2", "RepetitionTime": 720.0, "RescaleIntercept": -4096.0, "RescaleSlope": 2.0, "RescaleType": "US", "Rows": 100, "SAR": 0.13752226063216, "SamplesPerPixel": 1, "ScanningSequence": "GR", "SequenceName": "*fm2d2r", "SequenceVariant": "SP", "SeriesDescription": "field_mapping_2x2x2", "SeriesNumber": 10, "SeriesTime": "111231.350000", "SliceThickness": 2.0, "SoftwareVersions": "syngo MR E11", "SpacingBetweenSlices": 2.0, "SpecificCharacterSet": "ISO_IR 100", "StudyID": "1", "StudyTime": "102743.357000", "TransmitCoilName": "Body", "VariableFlipAngleFlag": "N", "WindowCenterWidthExplanation": "Algo1", "dBdt": 0.0}, "slices": {"AcquisitionTime": ["111006.282500", "111005.922500", "111006.292500", "111005.932500", "111006.302500", "111005.942500", "111006.312500", "111005.952500", "111006.322500", "111005.962500", "111006.332500", "111005.972500", "111006.342500", "111005.982500", "111006.352500", "111005.992500", "111006.362500", "111006.002500", "111006.372500", "111006.012500", "111006.382500", "111006.022500", "111006.392500", "111006.032500", "111006.402500", "111006.042500", "111006.412500", "111006.052500", "111006.422500", "111006.062500", "111006.432500", "111006.072500", "111006.442500", "111006.082500", "111006.452500", "111006.092500", "111006.462500", "111006.102500", "111006.472500", "111006.112500", "111006.482500", "111006.122500", "111006.492500", "111006.132500", "111006.502500", "111006.142500", "111006.512500", "111006.152500", "111006.522500", "111006.162500", "111006.532500", "111006.172500", "111006.542500", "111006.182500", "111006.552500", "111006.192500", "111006.562500", "111006.202500", "111006.572500", "111006.212500", "111006.582500", "111006.222500", "111006.592500", "111006.232500", "111006.602500", "111006.242500", "111006.612500", "111006.252500", "111006.622500", "111006.262500", "111006.632500", "111006.272500"], "ContentTime": ["111231.422000", "111231.352000", "111231.424000", "111231.354000", "111231.426000", "111231.356000", "111231.428000", "111231.358000", "111231.430000", "111231.360000", "111231.432000", "111231.362000", "111231.434000", "111231.364000", "111231.435000", "111231.366000", "111231.437000", "111231.368000", "111231.439000", "111231.370000", "111231.441000", "111231.371000", "111231.443000", "111231.373000", "111231.445000", "111231.375000", "111231.447000", "111231.377000", "111231.449000", "111231.379000", "111231.451000", "111231.381000", "111231.453000", "111231.383000", "111231.455000", "111231.385000", "111231.457000", "111231.387000", "111231.459000", "111231.389000", "111231.461000", "111231.391000", "111231.463000", "111231.393000", "111231.465000", "111231.395000", "111231.467000", "111231.397000", "111231.468000", "111231.399000", "111231.470000", "111231.401000", "111231.472000", "111231.403000", "111231.474000", "111231.405000", "111231.476000", "111231.407000", "111231.478000", "111231.409000", "111231.480000", "111231.411000", "111231.482000", "111231.413000", "111231.484000", "111231.414000", "111231.486000", "111231.416000", "111231.488000", "111231.418000", "111231.490000", "111231.420000"], "CsaImage.GSWDDataType": ["measured", "predicted", "measured", "predicted", "measured", "predicted", "measured", "predicted", "measured", "predicted", "measured", "predicted", "measured", "predicted", "measured", "predicted", "measured", "predicted", "measured", "predicted", "measured", "predicted", "measured", "predicted", "measured", "predicted", "measured", "predicted", "measured", "predicted", "measured", "predicted", "measured", "predicted", "measured", "predicted", "measured", "predicted", "measured", "predicted", "measured", "predicted", "measured", "predicted", "measured", "predicted", "measured", "predicted", "measured", "predicted", "measured", "predicted", "measured", "predicted", "measured", "predicted", "measured", "predicted", "measured", "predicted", "measured", "measured", "measured", "measured", "measured", "measured", "measured", "measured", "measured", "measured", "measured", "measured"], "CsaImage.ICE_Dims": ["X_2_1_1_1_1_1_37_1_1_1_1_69", "X_2_1_1_1_1_1_1_1_1_2_1_69", "X_2_1_1_1_1_1_38_1_1_3_1_69", "X_2_1_1_1_1_1_2_1_1_4_1_69", "X_2_1_1_1_1_1_39_1_1_5_1_69", "X_2_1_1_1_1_1_3_1_1_6_1_69", "X_2_1_1_1_1_1_40_1_1_7_1_69", "X_2_1_1_1_1_1_4_1_1_8_1_69", "X_2_1_1_1_1_1_41_1_1_9_1_69", "X_2_1_1_1_1_1_5_1_1_10_1_69", "X_2_1_1_1_1_1_42_1_1_11_1_69", "X_2_1_1_1_1_1_6_1_1_12_1_69", "X_2_1_1_1_1_1_43_1_1_13_1_69", "X_2_1_1_1_1_1_7_1_1_14_1_69", "X_2_1_1_1_1_1_44_1_1_15_1_69", "X_2_1_1_1_1_1_8_1_1_16_1_69", "X_2_1_1_1_1_1_45_1_1_17_1_69", "X_2_1_1_1_1_1_9_1_1_18_1_69", "X_2_1_1_1_1_1_46_1_1_19_1_69", "X_2_1_1_1_1_1_10_1_1_20_1_69", "X_2_1_1_1_1_1_47_1_1_21_1_69", "X_2_1_1_1_1_1_11_1_1_22_1_69", "X_2_1_1_1_1_1_48_1_1_23_1_69", "X_2_1_1_1_1_1_12_1_1_24_1_69", "X_2_1_1_1_1_1_49_1_1_25_1_69", "X_2_1_1_1_1_1_13_1_1_26_1_69", "X_2_1_1_1_1_1_50_1_1_27_1_69", "X_2_1_1_1_1_1_14_1_1_28_1_69", "X_2_1_1_1_1_1_51_1_1_29_1_69", "X_2_1_1_1_1_1_15_1_1_30_1_69", "X_2_1_1_1_1_1_52_1_1_31_1_69", "X_2_1_1_1_1_1_16_1_1_32_1_69", "X_2_1_1_1_1_1_53_1_1_33_1_69", "X_2_1_1_1_1_1_17_1_1_34_1_69", "X_2_1_1_1_1_1_54_1_1_35_1_69", "X_2_1_1_1_1_1_18_1_1_36_1_69", "X_2_1_1_1_1_1_55_1_1_37_1_69", "X_2_1_1_1_1_1_19_1_1_38_1_69", "X_2_1_1_1_1_1_56_1_1_39_1_69", "X_2_1_1_1_1_1_20_1_1_40_1_69", "X_2_1_1_1_1_1_57_1_1_41_1_69", "X_2_1_1_1_1_1_21_1_1_42_1_69", "X_2_1_1_1_1_1_58_1_1_43_1_69", "X_2_1_1_1_1_1_22_1_1_44_1_69", "X_2_1_1_1_1_1_59_1_1_45_1_69", "X_2_1_1_1_1_1_23_1_1_46_1_69", "X_2_1_1_1_1_1_60_1_1_47_1_69", "X_2_1_1_1_1_1_24_1_1_48_1_69", "X_2_1_1_1_1_1_61_1_1_49_1_69", "X_2_1_1_1_1_1_25_1_1_50_1_69", "X_2_1_1_1_1_1_62_1_1_51_1_69", "X_2_1_1_1_1_1_26_1_1_52_1_69", "X_2_1_1_1_1_1_63_1_1_53_1_69", "X_2_1_1_1_1_1_27_1_1_54_1_69", "X_2_1_1_1_1_1_64_1_1_55_1_69", "X_2_1_1_1_1_1_28_1_1_56_1_69", "X_2_1_1_1_1_1_65_1_1_57_1_69", "X_2_1_1_1_1_1_29_1_1_58_1_69", "X_2_1_1_1_1_1_66_1_1_59_1_69", "X_2_1_1_1_1_1_30_1_1_60_1_69", "X_2_1_1_1_1_1_67_1_1_61_1_69", "X_2_1_1_1_1_1_31_1_1_62_1_69", "X_2_1_1_1_1_1_68_1_1_63_1_69", "X_2_1_1_1_1_1_32_1_1_64_1_69", "X_2_1_1_1_1_1_69_1_1_65_1_69", "X_2_1_1_1_1_1_33_1_1_66_1_69", "X_2_1_1_1_1_1_70_1_1_67_1_69", "X_2_1_1_1_1_1_34_1_1_68_1_69", "X_2_1_1_1_1_1_71_1_1_69_1_69", "X_2_1_1_1_1_1_35_1_1_70_1_69", "X_2_1_1_1_1_1_72_1_1_71_1_69", "X_2_1_1_1_1_1_36_1_1_72_1_69"], "CsaImage.ProtocolSliceNumber": [0, 1, 2, 3, 4, 5, 6, 7, 8, 9, 10, 11, 12, 13, 14, 15, 16, 17, 18, 19, 20, 21, 22, 23, 24, 25, 26, 27, 28, 29, 30, 31, 32, 33, 34, 35, 36, 37, 38, 39, 40, 41, 42, 43, 44, 45, 46, 47, 48, 49, 50, 51, 52, 53, 54, 55, 56, 57, 58, 59, 60, 61, 62, 63, 64, 65, 66, 67, 68, 69, 70, 71], "CsaImage.RFSWDDataType": ["measured", "predicted", "measured", "predicted", "measured", "predicted", "measured", "predicted", "measured", "predicted", "measured", "predicted", "measured", "predicted", "measured", "predicted", "measured", "predicted", "measured", "predicted", "measured", "predicted", "measured", "predicted", "measured", "predicted", "measured", "predicted", "measured", "predicted", "measured", "predicted", "measured", "predicted", "measured", "predicted", "measured", "predicted", "measured", "predicted", "measured", "predicted", "measured", "predicted", "measured", "predicted", "measured", "predicted", "measured", "predicted", "measured", "predicted", "measured", "predicted", "measured", "predicted", "measured", "measured", "measured", "measured", "measured", "measured", "measured", "measured", "measured", "measured", "measured", "measured", "measured", "measured", "measured", "measured"], "CsaImage.SlicePosition_PCS": [[-105.37552637, -116.03044521, -28.48891155], [-105.27804846, -115.31389438, -26.62422649], [-105.18057054, -114.59734355, -24.75954143], [-105.08309311, -113.88079082, -22.89485637], [-104.98561519, -113.16423999, -21.0301675], [-104.88813728, -112.44768916, -19.16548244], [-104.79065984, -111.73113643, -17.30079738], [-104.69318193, -111.0145856, -15.43611232], [-104.59570402, -110.29803478, -13.57142727], [-104.49822658, -109.58148204, -11.70674221], [-104.40074867, -108.86493121, -9.84205715], [-104.30327123, -108.14838039, -7.97737209], [-104.20579332, -107.43182861, -6.11268322], [-104.10831541, -106.71527683, -4.24799816], [-104.01083797, -105.998726, -2.3833131], [-103.91336006, -105.28217422, -0.51862804], [-103.81588238, -104.56562339, 1.34605702], [-103.71840447, -103.84907161, 3.21074208], [-103.6209268, -103.13251983, 5.07542713], [-103.52344912, -102.415969, 6.94011219], [-103.42597145, -101.69941722, 8.80479916], [-103.32849354, -100.98286544, 10.66948422], [-103.23101586, -100.26631461, 12.53417118], [-103.13353819, -99.54976283, 14.39885624], [-103.03606027, -98.83321153, 16.2635413], [-102.9385826, -98.11666023, 18.12822636], [-102.84110492, -97.40010892, 19.99291333], [-102.74362725, -96.68355762, 21.85759838], [-102.64614934, -95.96700584, 23.72228344], [-102.54867166, -95.25045453, 25.58696945], [-102.45119399, -94.53390323, 27.45165451], [-102.35371607, -93.81735169, 29.31634053], [-102.2562384, -93.10080026, 31.18102558], [-102.15876073, -92.3842489, 33.0457116], [-102.06128305, -91.66769746, 34.91039713], [-101.96380514, -90.95114606, 36.77508267], [-101.86632746, -90.23459457, 38.63976808], [-101.76884979, -89.51804315, 40.50445363], [-101.671372, -88.80149185, 42.36913915], [-101.57389432, -88.0849403, 44.23382481], [-101.47641653, -87.36838876, 46.09851034], [-101.37893873, -86.65183746, 47.96319588], [-101.28146106, -85.93528615, 49.82788094], [-101.18398327, -85.21873485, 51.69256695], [-101.08650559, -84.50218307, 53.55725201], [-100.9890278, -83.78563176, 55.42193802], [-100.89155012, -83.06908046, 57.28662403], [-100.79407233, -82.35252868, 59.15130909], [-100.6965946, -81.63597785, 61.01599415], [-100.59911686, -80.91942607, 62.88067921], [-100.50163913, -80.20287429, 64.74536618], [-100.40416139, -79.48632346, 66.61005123], [-100.30668363, -78.76977168, 68.47473629], [-100.2092059, -78.05322086, 70.33942135], [-100.11172816, -77.33666908, 72.20410832], [-100.01425041, -76.6201173, 74.06879338], [-99.91677268, -75.90356647, 75.93347843], [-99.81929494, -75.18701564, 77.79816349], [-99.72181719, -74.47046291, 79.66284855], [-99.62433946, -73.75391208, 81.52753361], [-99.52686173, -73.03736125, 83.39222248], [-99.42938396, -72.32080852, 85.25690754], [-99.33190626, -71.60425769, 87.1215926], [-99.23442846, -70.88770686, 88.98627766], [-99.13695073, -70.17115413, 90.85096272], [-99.039473, -69.4546033, 92.71564778], [-98.94199526, -68.73805248, 94.58033284], [-98.84451753, -68.02149974, 96.44501789], [-98.74703973, -67.30494892, 98.30970677], [-98.64956206, -66.58839809, 100.17439183], [-98.55208427, -65.87184726, 102.03907688], [-98.45460659, -65.15529453, 103.90376194]], "CsaImage.TimeAfterStart": [1.0825, 0.7225, 1.0925, 0.7325, 1.1025, 0.7425, 1.1125, 0.7525, 1.1225, 0.7625, 1.1325, 0.7725, 1.1425, 0.7825, 1.1525, 0.7925, 1.1625, 0.8025, 1.1725, 0.8125, 1.1825, 0.8225, 1.1925, 0.8325, 1.2025, 0.8425, 1.2125, 0.8525, 1.2225, 0.8625, 1.2325, 0.8725, 1.2425, 0.8825, 1.2525, 0.8925, 1.2625, 0.9025, 1.2725, 0.9125, 1.2825, 0.9225, 1.2925, 0.9325, 1.3025, 0.9425, 1.3125, 0.9525, 1.3225, 0.9625, 1.3325, 0.9725, 1.3425, 0.9825, 1.3525, 0.9925, 1.3625, 1.0025, 1.3725, 1.0125, 1.3825, 1.0225, 1.3925, 1.0325, 1.4025, 1.0425, 1.4125, 1.0525, 1.4225, 1.0625, 1.4325, 1.0725], "ImagePositionPatient": [[-105.37552636817, -116.03044520712, -28.488911549538], [-105.27804845527, -115.31389438009, -26.624226490944], [-105.18057054237, -114.59734355307, -24.75954143235], [-105.0830931063, -113.88079081869, -22.894856373756], [-104.9856151934, -113.16423999167, -21.030167500465], [-104.88813728049, -112.44768916464, -19.165482441872], [-104.79065984443, -111.73113643027, -17.300797383278], [-104.69318193153, -111.01458560324, -15.436112324684], [-104.59570401862, -110.29803477621, -13.57142726609], [-104.49822658256, -109.58148204184, -11.706742207497], [-104.40074866965, -108.86493121481, -9.8420571489028], [-104.30327123359, -108.14838038779, -7.977372090309], [-104.20579332069, -107.43182860708, -6.112683217018], [-104.10831540778, -106.71527682638, -4.2479981584243], [-104.01083797172, -105.99872599936, -2.3833130998305], [-103.91336005881, -105.28217421866, -0.5186280412368], [-103.81588238433, -104.56562339163, 1.346057017357], [-103.71840447143, -103.84907161093, 3.2107420759507], [-103.62092679694, -103.13251983023, 5.0754271345445], [-103.52344912246, -102.4159690032, 6.9401121931382], [-103.42597144798, -101.6994172225, 8.8047991590806], [-103.32849353507, -100.9828654418, 10.669484217674], [-103.23101586059, -100.26631461478, 12.534171183617], [-103.1335381861, -99.549762834074, 14.398856242211], [-103.0360602732, -98.833211530211, 16.263541300804], [-102.93858259872, -98.116660226347, 18.128226359398], [-102.84110492423, -97.400108922484, 19.99291332534], [-102.74362724975, -96.68355761862, 21.857598383934], [-102.64614933685, -95.96700583792, 23.722283442528], [-102.54867166236, -95.250454534056, 25.586969454796], [-102.45119398788, -94.533903230192, 27.45165451339], [-102.35371607497, -93.81735168791, 29.316340525658], [-102.25623840049, -93.100800264838, 31.181025584252], [-102.15876072601, -92.384248901369, 33.04571159652], [-102.06128305152, -91.667697463395, 34.91039713195], [-101.96380513862, -90.951146055224, 36.775082667381], [-101.86632746413, -90.234594572546, 38.639768083603], [-101.76884978965, -89.518043149473, 40.504453633935], [-101.67137199596, -88.80149184561, 42.369139154465], [-101.57389432147, -88.084940303328, 44.233824809105], [-101.47641652778, -87.368388761046, 46.098510344536], [-101.37893873409, -86.651837457182, 47.963195879967], [-101.2814610596, -85.935286153319, 49.827880938561], [-101.18398326591, -85.218734849455, 51.692566950829], [-101.08650559142, -84.502183068754, 53.557252009422], [-100.98902779773, -83.785631764891, 55.42193802169], [-100.89155012325, -83.069080461027, 57.286624033959], [-100.79407232955, -82.352528680327, 59.151309092552], [-100.69659459546, -81.6359778533, 61.015994151146], [-100.59911686137, -80.9194260726, 62.88067920974], [-100.50163912728, -80.202874291899, 64.745366175682], [-100.4041613932, -79.486323464873, 66.610051234276], [-100.3066836293, -78.769771684172, 68.47473629287], [-100.20920589522, -78.053220857146, 70.339421351463], [-100.11172816113, -77.336669076445, 72.204108317406], [-100.01425041214, -76.620117295744, 74.068793376], [-99.916772678048, -75.903566468718, 75.933478434593], [-99.819294936509, -75.187015641692, 77.798163493187], [-99.721817194969, -74.470462907317, 79.662848551781], [-99.62433946088, -73.75391208029, 81.527533610375], [-99.526861726791, -73.037361253264, 83.392222483666], [-99.4293839629, -72.320808518889, 85.256907542259], [-99.331906258614, -71.604257691862, 87.121592600853], [-99.23442846492, -70.887706864836, 88.986277659447], [-99.136950730831, -70.171154130461, 90.850962718041], [-99.039472996742, -69.454603303435, 92.715647776634], [-98.941995262653, -68.738052476408, 94.580332835228], [-98.844517528564, -68.021499742033, 96.445017893822], [-98.747039734871, -67.304948915007, 98.309706767113], [-98.649562060387, -66.588398087981, 100.17439182571], [-98.552084266693, -65.871847260954, 102.0390768843], [-98.454606592209, -65.155294526579, 103.90376194289]], "InstanceCreationTime": ["111231.422000", "111231.352000", "111231.424000", "111231.354000", "111231.426000", "111231.356000", "111231.428000", "111231.358000", "111231.430000", "111231.360000", "111231.432000", "111231.362000", "111231.434000", "111231.364000", "111231.435000", "111231.366000", "111231.437000", "111231.368000", "111231.439000", "111231.370000", "111231.441000", "111231.371000", "111231.443000", "111231.373000", "111231.445000", "111231.375000", "111231.447000", "111231.377000", "111231.449000", "111231.379000", "111231.451000", "111231.381000", "111231.453000", "111231.383000", "111231.455000", "111231.385000", "111231.457000", "111231.387000", "111231.459000", "111231.389000", "111231.461000", "111231.391000", "111231.463000", "111231.393000", "111231.465000", "111231.395000", "111231.467000", "111231.397000", "111231.468000", "111231.399000", "111231.470000", "111231.401000", "111231.472000", "111231.403000", "111231.474000", "111231.405000", "111231.476000", "111231.407000", "111231.478000", "111231.409000", "111231.480000", "111231.411000", "111231.482000", "111231.413000", "111231.484000", "111231.414000", "111231.486000", "111231.416000", "111231.488000", "111231.418000", "111231.490000", "111231.420000"], "InstanceNumber": [1, 2, 3, 4, 5, 6, 7, 8, 9, 10, 11, 12, 13, 14, 15, 16, 17, 18, 19, 20, 21, 22, 23, 24, 25, 26, 27, 28, 29, 30, 31, 32, 33, 34, 35, 36, 37, 38, 39, 40, 41, 42, 43, 44, 45, 46, 47, 48, 49, 50, 51, 52, 53, 54, 55, 56, 57, 58, 59, 60, 61, 62, 63, 64, 65, 66, 67, 68, 69, 70, 71, 72], "LargestImagePixelValue": [4095, 4091, 4093, 4095, 4093, 4095, 4094, 4094, 4094, 4094, 4094, 4094, 4093, 4094, 4093, 4094, 4095, 4095, 4088, 4094, 4094, 4095, 4094, 4094, 4092, 4092, 4093, 4094, 4090, 4095, 4088, 4093, 4089, 4094, 4091, 4092, 4093, 4094, 4090, 4094, 4090, 4094, 4092, 4093, 4092, 4094, 4095, 4095, 4095, 4093, 4095, 4094, 4094, 4095, 4095, 4094, 4094, 4093, 4092, 4093, 4094, 4094, 4094, 4095, 4094, 4094, 4094, 4094, 4094, 4094, 4094, 4095], "SliceLocation": [-73.268205694303, -71.268206344563, -69.268206994824, -67.268206984968, -65.268204078623, -63.268204728884, -61.268204719028, -59.268205369288, -57.268206019549, -55.268206009693, -53.268206659953, -51.268207333454, -49.268204085431, -47.268204394013, -45.268205067514, -43.268205376096, -41.268206037977, -39.268206346559, -37.268206666761, -35.268207328642, -33.268205870542, -31.268206179124, -29.268205062702, -27.268205382904, -25.268205862325, -23.268206353367, -21.268205066106, -19.268205557147, -17.268205865729, -15.26820546762, -13.268205958661, -11.268205463511, -9.2682059118432, -7.2682054923785, -5.2682054907958, -3.2682054882703, -1.2682055818154, 0.73179442832154, 2.7317943737728, 4.7317945238705, 6.7317945686343, 8.7317945279786, 10.731794036937, 12.731794440857, 14.731794120655, 16.731794524575, 18.731794922684, 20.731794608292, 22.731793949317, 24.731793632019, 26.731795093025, 28.731794434049, 30.731794118204, 32.731793459229, 34.731794920234, 36.731794603663, 38.731793944687, 40.731793286075, 42.731793310819, 44.731792651844, 46.731795549473, 48.731795575307, 50.731794914879, 52.731794258808, 54.731794283189, 56.731793624214, 58.731792965238, 60.731792989619, 62.731795890154, 64.731795228273, 66.731794572203, 68.731794593679], "SmallestImagePixelValue": [0, 0, 0, 0, 0, 0, 0, 0, 0, 0, 0, 0, 0, 0, 0, 0, 2, 5, 1, 0, 3, 1, 1, 0, 5, 2, 1, 2, 0, 0, 1, 3, 0, 1, 0, 0, 0, 1, 2, 0, 4, 1, 2, 10, 0, 11, 0, 7, 0, 0, 0, 1, 0, 0, 2, 0, 3, 0, 3, 2, 0, 0, 2, 3, 0, 0, 0, 0, 0, 0, 0, 0], "WindowCenter": [-64.0, -102.0, -124.0, -172.0, -206.0, -196.0, -160.0, -158.0, -180.0, -184.0, -156.0, -214.0, -240.0, -272.0, -256.0, -232.0, -282.0, -296.0, -318.0, -274.0, -278.0, -280.0, -326.0, -292.0, -208.0, -172.0, -136.0, -140.0, -110.0, -98.0, -98.0, -256.0, -110.0, -126.0, -262.0, -282.0, -268.0, -268.0, -266.0, -256.0, -262.0, -268.0, -256.0, -238.0, -246.0, -236.0, -222.0, -230.0, -186.0, -188.0, -166.0, -158.0, -152.0, -152.0, -140.0, -28.0, -180.0, -50.0, -222.0, -116.0, -84.0, -100.0, -106.0, -170.0, -196.0, -220.0, -252.0, -240.0, -280.0, -324.0, -378.0, -340.0], "WindowWidth": [6162.0, 6228.0, 6162.0, 6130.0, 6164.0, 6302.0, 6400.0, 6444.0, 6394.0, 6424.0, 6452.0, 6430.0, 6382.0, 6348.0, 6328.0, 6274.0, 6196.0, 6190.0, 6078.0, 6066.0, 5996.0, 5956.0, 5906.0, 5810.0, 5818.0, 5784.0, 5750.0, 5582.0, 5494.0, 5346.0, 5318.0, 4618.0, 5296.0, 5262.0, 4642.0, 4646.0, 4632.0, 4622.0, 4606.0, 4596.0, 4596.0, 4602.0, 4584.0, 4582.0, 4582.0, 4580.0, 4582.0, 4594.0, 4570.0, 4582.0, 4582.0, 4590.0, 4592.0, 4600.0, 4616.0, 5192.0, 4668.0, 5378.0, 4718.0, 5178.0, 5592.0, 5582.0, 5718.0, 5652.0, 5732.0, 5842.0, 5908.0, 5816.0, 5898.0, 5978.0, 5982.0, 6114.0]}}, "IntendedFor": ["ses-action01/func/sub-05_ses-action01_task-action_run-01_bold.nii.gz", "ses-action01/func/sub-05_ses-action01_task-action_run-11_bold.nii.gz", "ses-action01/func/sub-05_ses-action01_task-action_run-03_bold.nii.gz", "ses-action01/func/sub-05_ses-action01_task-action_run-05_bold.nii.gz", "ses-action01/func/sub-05_ses-action01_task-action_run-07_bold.nii.gz", "ses-action01/func/sub-05_ses-action01_task-action_run-08_bold.nii.gz", "ses-action01/func/sub-05_ses-action01_task-action_run-04_bold.nii.gz", "ses-action01/func/sub-05_ses-action01_task-action_run-09_bold.nii.gz", "ses-action01/func/sub-05_ses-action01_task-action_run-06_bold.nii.gz", "ses-action01/func/sub-05_ses-action01_task-action_run-10_bold.nii.gz", "ses-action01/func/sub-05_ses-action01_task-action_run-02_bold.nii.gz", "ses-action01/func/sub-05_ses-action01_task-action_run-12_bold.nii.gz"]}