{
  "AcquisitionMatrixPE": 100,
  "AcquisitionNumber": 1,
  "AcquisitionTime": "11:03:46.790000",
  "BandwidthPerPixelPhaseEncode": 18.519,
  "BaseResolution": 100,
  "BodyPartExamined": "BRAIN",
  "CoilCombinationMethod": "Sum of Squares",
  "ConsistencyInfo": "N4_VE11C_LATEST_20160120",
  "ConversionSoftware": "dcm2niix",
  "ConversionSoftwareVersion": "v1.0.20211006",
  "DerivedVendorReportedEchoSpacing": 0.000539986,
  "DeviceSerialNumber": "166078",
  "DwellTime": 2.1e-06,
  "EchoTime": 0.034,
  "EchoTrainLength": 100,
  "EffectiveEchoSpacing": 0.000539986,
  "FlipAngle": 90,
  "ImageOrientationPatientDICOM": [0.998812, -0.0174827, -0.0454954, -1.7849e-08, 0.933452, -0.358702],
  "ImageOrientationText": "Tra>Cor(-21.0)>Sag(-2.8)",
  "ImageType": [
    "ORIGINAL",
    "PRIMARY",
    "M",
    "ND",
    "MOSAIC"
],
  "ImagingFrequency": 123.258,
  "InPlanePhaseEncodingDirectionDICOM": "COL",
  "InstitutionAddress": "Street StreetNo,Bei Jing,District,CN,ZIP",
  "InstitutionName": "BeiJing Normal University",
  "InstitutionalDepartmentName": "Department",
  "MRAcquisitionType": "2D",
  "MagneticFieldStrength": 3,
  "Manufacturer": "Siemens",
  "ManufacturersModelName": "Prisma",
  "Modality": "MR",
  "MultibandAccelerationFactor": 3,
  "PartialFourier": 1,
  "PatientPosition": "HFS",
  "PercentPhaseFOV": 100,
  "PercentSampling": 100,
  "PhaseEncodingDirection": "j-",
  "PhaseEncodingSteps": 100,
  "PhaseResolution": 1,
  "PixelBandwidth": 2380,
  "ProcedureStepDescription": "BNU_P2018_64CH^Zhen.ZongLei",
  "ProtocolName": "bold_100x100_s3_2x2x2_static_156",
  "PulseSequenceDetails": "%SiemensSeq%\\ep2d_bold",
  "ReceiveCoilActiveElements": "HC1-7;NC1",
  "ReceiveCoilName": "HeadNeck_64",
  "ReconMatrixPE": 100,
  "RefLinesPE": 32,
  "RepetitionTime": 2,
  "SAR": 0.083031,
  "ScanOptions": "FS",
  "ScanningSequence": "EP",
  "SequenceName": "*epfid2d1_100",
  "SequenceVariant": "SK",
  "SeriesDescription": "bold_100x100_s3_2x2x2_static_156",
  "SeriesNumber": 8,
  "ShimSetting": [-5477, -11466, -1248, 391, -89, -423, -111, 50],
  "SliceThickness": 2,
  "SliceTiming": [1.485, 0, 0.99, 0.0825, 1.0725, 0.165, 1.155, 0.2475, 1.2375, 0.33, 1.32, 0.4125, 1.4025, 0.5775, 1.5675, 0.66, 1.65, 0.7425, 1.7325, 0.825, 1.815, 0.9075, 1.8975, 0.495, 1.485, 0, 0.99, 0.0825, 1.0725, 0.165, 1.155, 0.2475, 1.2375, 0.33, 1.32, 0.4125, 1.4025, 0.5775, 1.5675, 0.66, 1.65, 0.7425, 1.7325, 0.825, 1.815, 0.9075, 1.8975, 0.495, 1.485, 0, 0.99, 0.0825, 1.0725, 0.165, 1.155, 0.2475, 1.2375, 0.33, 1.32, 0.4125, 1.4025, 0.5775, 1.5675, 0.66, 1.65, 0.7425, 1.7325, 0.825, 1.815, 0.9075, 1.8975, 0.495],
  "SoftwareVersions": "syngo MR E11",
  "SpacingBetweenSlices": 2,
  "StationName": "AWP166078",
  "TaskName": "action",
  "TotalReadoutTime": 0.0534586,
  "TxRefAmp": 232.271,
  "dcmmeta_affine": [
    [-1.997623085975647, -3.569809337022889e-08, -0.0974777415394783, 105.37552642822266],
    [0.034965429455041885, 1.8669042587280273, -0.7165514230728149, -68.79307556152344],
    [-0.0909908190369606, 0.7174040675163269, 1.8646855354309082, -99.51190948486328],
    [0.0, 0.0, 0.0, 1.0]
],
  "dcmmeta_reorient_transform": [
    [0.0, -1.0, 0.0, 99.0],
    [1.0, 0.0, 0.0, 0.0],
    [0.0, 0.0, 1.0, 0.0],
    [0.0, 0.0, 0.0, 1.0]
],
  "dcmmeta_shape": [100, 100, 72, 156],
  "dcmmeta_slice_dim": 2,
  "dcmmeta_version": 0.6,
  "global": {
    "const": {
      "AcquisitionMatrix": [100, 0, 0, 100],
      "AngioFlag": "N",
      "BitsAllocated": 16,
      "BitsStored": 12,
      "BodyPartExamined": "BRAIN",
      "Columns": 900,
      "EchoNumbers": 1,
      "EchoTime": 34.0,
      "EchoTrainLength": 100,
      "FlipAngle": 90.0,
      "HighBit": 11,
      "ImageOrientationPatient": [0.99881155496543, -0.0174827153334, -0.0454954100115, -1.7849046e-08, 0.93345211989275, -0.3587020209976],
      "ImagePositionPatient": [-904.42475434209, -848.80597011541, 294.86903464888],
      "ImageType": [
        "ORIGINAL",
        "PRIMARY",
        "M",
        "ND",
        "MOSAIC"
],
      "ImagedNucleus": "1H",
      "ImagingFrequency": 123.25775,
      "InPlanePhaseEncodingDirection": "COL",
      "MRAcquisitionType": "2D",
      "MagneticFieldStrength": 3.0,
      "Manufacturer": "SIEMENS",
      "ManufacturerModelName": "Prisma",
      "Modality": "MR",
      "NumberOfAverages": 1.0,
      "NumberOfPhaseEncodingSteps": 100,
      "PercentPhaseFieldOfView": 100.0,
      "PercentSampling": 100.0,
      "PerformedProcedureStepStartTime": "102743.462000",
      "PhotometricInterpretation": "MONOCHROME2",
      "PixelBandwidth": 2380.0,
      "PixelRepresentation": 0,
      "PixelSpacing": [2.0, 2.0],
      "ProtocolName": "bold_100x100_s3_2x2x2_static_156",
      "RepetitionTime": 2000.0,
      "Rows": 900,
      "SAR": 0.08303095084429,
      "SamplesPerPixel": 1,
      "ScanOptions": "FS",
      "ScanningSequence": "EP",
      "SequenceName": "*epfid2d1_100",
      "SequenceVariant": "SK",
      "SeriesDescription": "bold_100x100_s3_2x2x2_static_156",
      "SeriesNumber": 8,
      "SeriesTime": "110349.808000",
      "SliceLocation": -73.268205681097,
      "SliceThickness": 2.0,
      "SmallestImagePixelValue": 0,
      "SoftwareVersions": "syngo MR E11",
      "SpacingBetweenSlices": 2.0000000040561,
      "SpecificCharacterSet": "ISO_IR 100",
      "StudyID": "1",
      "StudyTime": "102743.357000",
      "TransmitCoilName": "Body",
      "VariableFlipAngleFlag": "N",
      "WindowCenterWidthExplanation": "Algo1",
      "dBdt": 0.0},
    "slices": {}
  },
  "time": {
    "samples": {
      "AcquisitionNumber": [1, 2, 3, 4, 5, 6, 7, 8, 9, 10, 11, 12, 13, 14, 15, 16, 17, 18, 19, 20, 21, 22, 23, 24, 25, 26, 27, 28, 29, 30, 31, 32, 33, 34, 35, 36, 37, 38, 39, 40, 41, 42, 43, 44, 45, 46, 47, 48, 49, 50, 51, 52, 53, 54, 55, 56, 57, 58, 59, 60, 61, 62, 63, 64, 65, 66, 67, 68, 69, 70, 71, 72, 73, 74, 75, 76, 77, 78, 79, 80, 81, 82, 83, 84, 85, 86, 87, 88, 89, 90, 91, 92, 93, 94, 95, 96, 97, 98, 99, 100, 101, 102, 103, 104, 105, 106, 107, 108, 109, 110, 111, 112, 113, 114, 115, 116, 117, 118, 119, 120, 121, 122, 123, 124, 125, 126, 127, 128, 129, 130, 131, 132, 133, 134, 135, 136, 137, 138, 139, 140, 141, 142, 143, 144, 145, 146, 147, 148, 149, 150, 151, 152, 153, 154, 155, 156],
      "AcquisitionTime": ["110346.790000", "110348.790000", "110350.790000", "110352.790000", "110354.790000", "110356.790000", "110358.790000", "110400.790000", "110402.790000", "110404.790000", "110406.790000", "110408.790000", "110410.790000", "110412.790000", "110414.790000", "110416.790000", "110418.790000", "110420.790000", "110422.790000", "110424.790000", "110426.790000", "110428.790000", "110430.790000", "110432.790000", "110434.790000", "110436.790000", "110438.790000", "110440.790000", "110442.790000", "110444.790000", "110446.790000", "110448.790000", "110450.790000", "110452.790000", "110454.790000", "110456.790000", "110458.790000", "110500.790000", "110502.790000", "110504.790000", "110506.790000", "110508.790000", "110510.790000", "110512.790000", "110514.790000", "110516.790000", "110518.790000", "110520.790000", "110522.790000", "110524.790000", "110526.790000", "110528.790000", "110530.790000", "110532.790000", "110534.790000", "110536.790000", "110538.790000", "110540.790000", "110542.790000", "110544.790000", "110546.790000", "110548.790000", "110550.790000", "110552.790000", "110554.790000", "110556.790000", "110558.790000", "110600.790000", "110602.790000", "110604.790000", "110606.790000", "110608.790000", "110610.790000", "110612.790000", "110614.790000", "110616.790000", "110618.790000", "110620.790000", "110622.790000", "110624.790000", "110626.790000", "110628.790000", "110630.790000", "110632.790000", "110634.790000", "110636.790000", "110638.790000", "110640.790000", "110642.790000", "110644.790000", "110646.790000", "110648.790000", "110650.790000", "110652.790000", "110654.790000", "110656.790000", "110658.790000", "110700.790000", "110702.790000", "110704.790000", "110706.790000", "110708.790000", "110710.790000", "110712.790000", "110714.790000", "110716.790000", "110718.790000", "110720.790000", "110722.790000", "110724.790000", "110726.790000", "110728.790000", "110730.790000", "110732.790000", "110734.790000", "110736.790000", "110738.790000", "110740.790000", "110742.790000", "110744.790000", "110746.790000", "110748.790000", "110750.790000", "110752.790000", "110754.790000", "110756.790000", "110758.790000", "110800.790000", "110802.790000", "110804.790000", "110806.790000", "110808.790000", "110810.790000", "110812.790000", "110814.790000", "110816.790000", "110818.790000", "110820.790000", "110822.790000", "110824.790000", "110826.790000", "110828.790000", "110830.790000", "110832.790000", "110834.790000", "110836.790000", "110838.790000", "110840.790000", "110842.790000", "110844.790000", "110846.790000", "110848.790000", "110850.790000", "110852.790000", "110854.790000", "110856.790000"],
      "ContentTime": ["110349.812000", "110351.307000", "110353.307000", "110355.308000", "110357.308000", "110359.308000", "110401.307000", "110403.308000", "110405.308000", "110407.307000", "110409.307000", "110411.307000", "110413.308000", "110415.307000", "110417.308000", "110419.307000", "110421.309000", "110423.308000", "110425.307000", "110427.307000", "110429.307000", "110431.308000", "110433.307000", "110435.307000", "110437.309000", "110439.308000", "110441.309000", "110443.307000", "110445.307000", "110447.307000", "110449.307000", "110451.308000", "110453.308000", "110455.308000", "110457.308000", "110459.308000", "110501.307000", "110503.307000", "110505.307000", "110507.308000", "110509.308000", "110511.307000", "110513.309000", "110515.309000", "110517.307000", "110519.308000", "110521.307000", "110523.307000", "110525.308000", "110527.308000", "110529.307000", "110531.308000", "110533.309000", "110535.307000", "110537.307000", "110539.307000", "110541.307000", "110543.307000", "110545.308000", "110547.309000", "110549.308000", "110551.309000", "110553.308000", "110555.307000", "110557.307000", "110559.308000", "110601.308000", "110603.307000", "110605.308000", "110607.309000", "110609.308000", "110611.307000", "110613.307000", "110615.308000", "110617.308000", "110619.308000", "110621.308000", "110623.309000", "110625.309000", "110627.307000", "110629.307000", "110631.307000", "110633.307000", "110635.327000", "110637.308000", "110639.308000", "110641.309000", "110643.309000", "110645.308000", "110647.307000", "110649.308000", "110651.308000", "110653.307000", "110655.307000", "110657.308000", "110659.309000", "110701.309000", "110703.308000", "110705.307000", "110707.307000", "110709.308000", "110711.308000", "110713.307000", "110715.308000", "110717.308000", "110719.309000", "110721.307000", "110723.307000", "110725.308000", "110727.308000", "110729.307000", "110731.308000", "110733.309000", "110735.308000", "110737.308000", "110739.308000", "110741.308000", "110743.307000", "110745.308000", "110747.308000", "110749.308000", "110751.309000", "110753.309000", "110755.307000", "110757.307000", "110759.308000", "110801.307000", "110803.307000", "110805.307000", "110807.308000", "110809.308000", "110811.308000", "110813.308000", "110815.307000", "110817.308000", "110819.308000", "110821.308000", "110823.307000", "110825.309000", "110827.309000", "110829.308000", "110831.307000", "110833.307000", "110835.308000", "110837.308000", "110839.308000", "110841.307000", "110843.309000", "110845.309000", "110847.308000", "110849.307000", "110851.308000", "110853.308000", "110855.307000", "110857.308000", "110859.064000"],
      "InstanceCreationTime": ["110349.812000", "110351.307000", "110353.307000", "110355.308000", "110357.308000", "110359.308000", "110401.307000", "110403.308000", "110405.308000", "110407.307000", "110409.307000", "110411.307000", "110413.308000", "110415.307000", "110417.308000", "110419.307000", "110421.309000", "110423.308000", "110425.307000", "110427.307000", "110429.307000", "110431.308000", "110433.307000", "110435.307000", "110437.309000", "110439.308000", "110441.309000", "110443.307000", "110445.307000", "110447.307000", "110449.307000", "110451.308000", "110453.308000", "110455.308000", "110457.308000", "110459.308000", "110501.307000", "110503.307000", "110505.307000", "110507.308000", "110509.308000", "110511.307000", "110513.309000", "110515.309000", "110517.307000", "110519.308000", "110521.307000", "110523.307000", "110525.308000", "110527.308000", "110529.307000", "110531.308000", "110533.309000", "110535.307000", "110537.307000", "110539.307000", "110541.307000", "110543.307000", "110545.308000", "110547.309000", "110549.308000", "110551.309000", "110553.308000", "110555.307000", "110557.307000", "110559.308000", "110601.308000", "110603.307000", "110605.308000", "110607.309000", "110609.308000", "110611.307000", "110613.307000", "110615.308000", "110617.308000", "110619.308000", "110621.308000", "110623.309000", "110625.309000", "110627.307000", "110629.307000", "110631.307000", "110633.307000", "110635.327000", "110637.308000", "110639.308000", "110641.309000", "110643.309000", "110645.308000", "110647.307000", "110649.308000", "110651.308000", "110653.307000", "110655.307000", "110657.308000", "110659.309000", "110701.309000", "110703.308000", "110705.307000", "110707.307000", "110709.308000", "110711.308000", "110713.307000", "110715.308000", "110717.308000", "110719.309000", "110721.307000", "110723.307000", "110725.308000", "110727.308000", "110729.307000", "110731.308000", "110733.309000", "110735.308000", "110737.308000", "110739.308000", "110741.308000", "110743.307000", "110745.308000", "110747.308000", "110749.308000", "110751.309000", "110753.309000", "110755.307000", "110757.307000", "110759.308000", "110801.307000", "110803.307000", "110805.307000", "110807.308000", "110809.308000", "110811.308000", "110813.308000", "110815.307000", "110817.308000", "110819.308000", "110821.308000", "110823.307000", "110825.309000", "110827.309000", "110829.308000", "110831.307000", "110833.307000", "110835.308000", "110837.308000", "110839.308000", "110841.307000", "110843.309000", "110845.309000", "110847.308000", "110849.307000", "110851.308000", "110853.308000", "110855.307000", "110857.308000", "110859.064000"],
      "InstanceNumber": [1, 2, 3, 4, 5, 6, 7, 8, 9, 10, 11, 12, 13, 14, 15, 16, 17, 18, 19, 20, 21, 22, 23, 24, 25, 26, 27, 28, 29, 30, 31, 32, 33, 34, 35, 36, 37, 38, 39, 40, 41, 42, 43, 44, 45, 46, 47, 48, 49, 50, 51, 52, 53, 54, 55, 56, 57, 58, 59, 60, 61, 62, 63, 64, 65, 66, 67, 68, 69, 70, 71, 72, 73, 74, 75, 76, 77, 78, 79, 80, 81, 82, 83, 84, 85, 86, 87, 88, 89, 90, 91, 92, 93, 94, 95, 96, 97, 98, 99, 100, 101, 102, 103, 104, 105, 106, 107, 108, 109, 110, 111, 112, 113, 114, 115, 116, 117, 118, 119, 120, 121, 122, 123, 124, 125, 126, 127, 128, 129, 130, 131, 132, 133, 134, 135, 136, 137, 138, 139, 140, 141, 142, 143, 144, 145, 146, 147, 148, 149, 150, 151, 152, 153, 154, 155, 156],
      "LargestImagePixelValue": [3454, 3373, 3326, 3324, 3332, 3373, 3301, 3342, 3307, 3374, 3312, 3331, 3300, 3343, 3277, 3334, 3308, 3315, 3322, 3303, 3320, 3325, 3336, 3364, 3341, 3309, 3337, 3305, 3313, 3253, 3307, 3305, 3279, 3288, 3241, 3251, 3252, 3243, 3269, 3259, 3297, 3294, 3267, 3280, 3287, 3290, 3254, 3263, 3208, 3259, 3237, 3242, 3285, 3282, 3253, 3320, 3285, 3289, 3255, 3278, 3276, 3299, 3287, 3266, 3281, 3303, 3286, 3270, 3276, 3316, 3273, 3216, 3224, 3278, 3264, 3279, 3321, 3263, 3273, 3273, 3264, 3273, 3261, 3220, 3265, 3234, 3350, 3302, 3255, 3286, 3303, 3306, 3293, 3305, 3286, 3257, 3340, 3327, 3270, 3214, 3276, 3292, 3321, 3299, 3255, 3304, 3264, 3275, 3274, 3293, 3273, 3275, 3281, 3258, 3300, 3311, 3266, 3258, 3306, 3315, 3285, 3277, 3269, 3263, 3264, 3309, 3331, 3324, 3242, 3323, 3278, 3303, 3313, 3284, 3252, 3268, 3290, 3305, 3319, 3305, 3299, 3269, 3303, 3275, 3285, 3304, 3316, 3307, 3257, 3310, 3282, 3298, 3303, 3284, 3297, 3313],
      "WindowCenter": [767.0, 765.0, 765.0, 765.0, 765.0, 766.0, 766.0, 766.0, 766.0, 767.0, 767.0, 768.0, 768.0, 768.0, 768.0, 768.0, 767.0, 767.0, 766.0, 766.0, 766.0, 766.0, 768.0, 767.0, 767.0, 765.0, 765.0, 764.0, 764.0, 764.0, 764.0, 765.0, 766.0, 766.0, 765.0, 764.0, 765.0, 765.0, 766.0, 766.0, 766.0, 765.0, 764.0, 763.0, 763.0, 764.0, 764.0, 765.0, 765.0, 766.0, 767.0, 767.0, 766.0, 766.0, 766.0, 767.0, 767.0, 769.0, 770.0, 768.0, 767.0, 766.0, 765.0, 764.0, 764.0, 765.0, 764.0, 764.0, 766.0, 767.0, 768.0, 767.0, 765.0, 765.0, 766.0, 765.0, 766.0, 766.0, 767.0, 767.0, 766.0, 766.0, 767.0, 768.0, 769.0, 766.0, 768.0, 766.0, 766.0, 765.0, 765.0, 765.0, 766.0, 766.0, 766.0, 765.0, 766.0, 768.0, 768.0, 766.0, 766.0, 766.0, 765.0, 766.0, 767.0, 768.0, 768.0, 768.0, 767.0, 767.0, 766.0, 767.0, 768.0, 769.0, 768.0, 767.0, 767.0, 768.0, 769.0, 769.0, 768.0, 767.0, 767.0, 769.0, 769.0, 769.0, 768.0, 767.0, 766.0, 766.0, 766.0, 766.0, 766.0, 766.0, 768.0, 768.0, 767.0, 766.0, 766.0, 766.0, 766.0, 765.0, 766.0, 767.0, 767.0, 767.0, 768.0, 768.0, 769.0, 769.0, 767.0, 767.0, 767.0, 769.0, 769.0, 768.0],
      "WindowWidth": [1653.0, 1648.0, 1647.0, 1648.0, 1648.0, 1649.0, 1649.0, 1649.0, 1649.0, 1652.0, 1653.0, 1655.0, 1655.0, 1657.0, 1656.0, 1657.0, 1654.0, 1653.0, 1651.0, 1649.0, 1650.0, 1652.0, 1655.0, 1655.0, 1653.0, 1648.0, 1648.0, 1646.0, 1646.0, 1645.0, 1646.0, 1647.0, 1651.0, 1652.0, 1649.0, 1647.0, 1648.0, 1649.0, 1652.0, 1650.0, 1651.0, 1649.0, 1644.0, 1642.0, 1644.0, 1645.0, 1646.0, 1648.0, 1649.0, 1651.0, 1654.0, 1654.0, 1652.0, 1650.0, 1651.0, 1654.0, 1655.0, 1659.0, 1662.0, 1656.0, 1653.0, 1650.0, 1648.0, 1645.0, 1646.0, 1648.0, 1647.0, 1646.0, 1650.0, 1653.0, 1656.0, 1653.0, 1649.0, 1649.0, 1651.0, 1649.0, 1650.0, 1651.0, 1653.0, 1653.0, 1652.0, 1651.0, 1654.0, 1656.0, 1659.0, 1651.0, 1655.0, 1651.0, 1649.0, 1649.0, 1647.0, 1648.0, 1649.0, 1650.0, 1651.0, 1649.0, 1651.0, 1655.0, 1655.0, 1651.0, 1650.0, 1650.0, 1648.0, 1650.0, 1653.0, 1656.0, 1657.0, 1656.0, 1654.0, 1652.0, 1652.0, 1655.0, 1657.0, 1658.0, 1657.0, 1654.0, 1654.0, 1655.0, 1659.0, 1658.0, 1656.0, 1652.0, 1654.0, 1658.0, 1660.0, 1657.0, 1655.0, 1652.0, 1650.0, 1652.0, 1652.0, 1650.0, 1652.0, 1652.0, 1656.0, 1656.0, 1654.0, 1652.0, 1652.0, 1651.0, 1652.0, 1649.0, 1652.0, 1652.0, 1654.0, 1654.0, 1656.0, 1656.0, 1658.0, 1657.0, 1654.0, 1652.0, 1653.0, 1657.0, 1659.0, 1656.0]
    },
    "slices": {}
  }
}