{
  "AcquisitionMatrixPE": 100,
  "AcquisitionNumber": 1,
  "AcquisitionTime": "11:31:56.290000",
  "BandwidthPerPixelPhaseEncode": 18.519,
  "BaseResolution": 100,
  "BodyPartExamined": "BRAIN",
  "CoilCombinationMethod": "Sum of Squares",
  "ConsistencyInfo": "N4_VE11C_LATEST_20160120",
  "ConversionSoftware": "dcm2niix",
  "ConversionSoftwareVersion": "v1.0.20211006",
  "DerivedVendorReportedEchoSpacing": 0.000539986,
  "DeviceSerialNumber": "166078",
  "DwellTime": 2.1e-06,
  "EchoTime": 0.034,
  "EchoTrainLength": 100,
  "EffectiveEchoSpacing": 0.000539986,
  "FlipAngle": 90,
  "ImageOrientationPatientDICOM": [0.998812, -0.0174827, -0.0454954, -1.7849e-08, 0.933452, -0.358702],
  "ImageOrientationText": "Tra>Cor(-21.0)>Sag(-2.8)",
  "ImageType": [
    "ORIGINAL",
    "PRIMARY",
    "M",
    "ND",
    "MOSAIC"
],
  "ImagingFrequency": 123.258,
  "InPlanePhaseEncodingDirectionDICOM": "COL",
  "InstitutionAddress": "Street StreetNo,Bei Jing,District,CN,ZIP",
  "InstitutionName": "BeiJing Normal University",
  "InstitutionalDepartmentName": "Department",
  "MRAcquisitionType": "2D",
  "MagneticFieldStrength": 3,
  "Manufacturer": "Siemens",
  "ManufacturersModelName": "Prisma",
  "Modality": "MR",
  "MultibandAccelerationFactor": 3,
  "PartialFourier": 1,
  "PatientPosition": "HFS",
  "PercentPhaseFOV": 100,
  "PercentSampling": 100,
  "PhaseEncodingDirection": "j-",
  "PhaseEncodingSteps": 100,
  "PhaseResolution": 1,
  "PixelBandwidth": 2380,
  "ProcedureStepDescription": "BNU_P2018_64CH^Zhen.ZongLei",
  "ProtocolName": "bold_100x100_s3_2x2x2_static_156",
  "PulseSequenceDetails": "%SiemensSeq%\\ep2d_bold",
  "ReceiveCoilActiveElements": "HC1-7;NC1",
  "ReceiveCoilName": "HeadNeck_64",
  "ReconMatrixPE": 100,
  "RefLinesPE": 32,
  "RepetitionTime": 2,
  "SAR": 0.083031,
  "ScanOptions": "FS",
  "ScanningSequence": "EP",
  "SequenceName": "*epfid2d1_100",
  "SequenceVariant": "SK",
  "SeriesDescription": "bold_100x100_s3_2x2x2_static_156",
  "SeriesNumber": 14,
  "ShimSetting": [-5477, -11466, -1248, 391, -89, -423, -111, 50],
  "SliceThickness": 2,
  "SliceTiming": [1.485, 0, 0.99, 0.0825, 1.0725, 0.165, 1.155, 0.2475, 1.2375, 0.33, 1.32, 0.4125, 1.4025, 0.5775, 1.5675, 0.66, 1.65, 0.7425, 1.7325, 0.825, 1.815, 0.9075, 1.8975, 0.495, 1.485, 0, 0.99, 0.0825, 1.0725, 0.165, 1.155, 0.2475, 1.2375, 0.33, 1.32, 0.4125, 1.4025, 0.5775, 1.5675, 0.66, 1.65, 0.7425, 1.7325, 0.825, 1.815, 0.9075, 1.8975, 0.495, 1.485, 0, 0.99, 0.0825, 1.0725, 0.165, 1.155, 0.2475, 1.2375, 0.33, 1.32, 0.4125, 1.4025, 0.5775, 1.5675, 0.66, 1.65, 0.7425, 1.7325, 0.825, 1.815, 0.9075, 1.8975, 0.495],
  "SoftwareVersions": "syngo MR E11",
  "SpacingBetweenSlices": 2,
  "StationName": "AWP166078",
  "TaskName": "action",
  "TotalReadoutTime": 0.0534586,
  "TxRefAmp": 232.271,
  "dcmmeta_affine": [
    [-1.997623085975647, -3.569809337022889e-08, -0.0974777415394783, 105.37552642822266],
    [0.034965429455041885, 1.8669042587280273, -0.7165514230728149, -68.79307556152344],
    [-0.0909908190369606, 0.7174040675163269, 1.8646855354309082, -99.51190948486328],
    [0.0, 0.0, 0.0, 1.0]
],
  "dcmmeta_reorient_transform": [
    [0.0, -1.0, 0.0, 99.0],
    [1.0, 0.0, 0.0, 0.0],
    [0.0, 0.0, 1.0, 0.0],
    [0.0, 0.0, 0.0, 1.0]
],
  "dcmmeta_shape": [100, 100, 72, 156],
  "dcmmeta_slice_dim": 2,
  "dcmmeta_version": 0.6,
  "global": {
    "const": {
      "AcquisitionMatrix": [100, 0, 0, 100],
      "AngioFlag": "N",
      "BitsAllocated": 16,
      "BitsStored": 12,
      "BodyPartExamined": "BRAIN",
      "Columns": 900,
      "EchoNumbers": 1,
      "EchoTime": 34.0,
      "EchoTrainLength": 100,
      "FlipAngle": 90.0,
      "HighBit": 11,
      "ImageOrientationPatient": [0.99881155496543, -0.0174827153334, -0.0454954100115, -1.7849046e-08, 0.93345211989275, -0.3587020209976],
      "ImagePositionPatient": [-904.42475434209, -848.80597011541, 294.86903464888],
      "ImageType": [
        "ORIGINAL",
        "PRIMARY",
        "M",
        "ND",
        "MOSAIC"
],
      "ImagedNucleus": "1H",
      "ImagingFrequency": 123.257754,
      "InPlanePhaseEncodingDirection": "COL",
      "MRAcquisitionType": "2D",
      "MagneticFieldStrength": 3.0,
      "Manufacturer": "SIEMENS",
      "ManufacturerModelName": "Prisma",
      "Modality": "MR",
      "NumberOfAverages": 1.0,
      "NumberOfPhaseEncodingSteps": 100,
      "PercentPhaseFieldOfView": 100.0,
      "PercentSampling": 100.0,
      "PerformedProcedureStepStartTime": "102743.462000",
      "PhotometricInterpretation": "MONOCHROME2",
      "PixelBandwidth": 2380.0,
      "PixelRepresentation": 0,
      "PixelSpacing": [2.0, 2.0],
      "ProtocolName": "bold_100x100_s3_2x2x2_static_156",
      "RepetitionTime": 2000.0,
      "Rows": 900,
      "SAR": 0.08303095084429,
      "SamplesPerPixel": 1,
      "ScanOptions": "FS",
      "ScanningSequence": "EP",
      "SequenceName": "*epfid2d1_100",
      "SequenceVariant": "SK",
      "SeriesDescription": "bold_100x100_s3_2x2x2_static_156",
      "SeriesNumber": 14,
      "SeriesTime": "113158.357000",
      "SliceLocation": -73.268205681097,
      "SliceThickness": 2.0,
      "SmallestImagePixelValue": 0,
      "SoftwareVersions": "syngo MR E11",
      "SpacingBetweenSlices": 2.0000000040561,
      "SpecificCharacterSet": "ISO_IR 100",
      "StudyID": "1",
      "StudyTime": "102743.357000",
      "TransmitCoilName": "Body",
      "VariableFlipAngleFlag": "N",
      "WindowCenterWidthExplanation": "Algo1",
      "dBdt": 0.0},
    "slices": {}
  },
  "time": {
    "samples": {
      "AcquisitionNumber": [1, 2, 3, 4, 5, 6, 7, 8, 9, 10, 11, 12, 13, 14, 15, 16, 17, 18, 19, 20, 21, 22, 23, 24, 25, 26, 27, 28, 29, 30, 31, 32, 33, 34, 35, 36, 37, 38, 39, 40, 41, 42, 43, 44, 45, 46, 47, 48, 49, 50, 51, 52, 53, 54, 55, 56, 57, 58, 59, 60, 61, 62, 63, 64, 65, 66, 67, 68, 69, 70, 71, 72, 73, 74, 75, 76, 77, 78, 79, 80, 81, 82, 83, 84, 85, 86, 87, 88, 89, 90, 91, 92, 93, 94, 95, 96, 97, 98, 99, 100, 101, 102, 103, 104, 105, 106, 107, 108, 109, 110, 111, 112, 113, 114, 115, 116, 117, 118, 119, 120, 121, 122, 123, 124, 125, 126, 127, 128, 129, 130, 131, 132, 133, 134, 135, 136, 137, 138, 139, 140, 141, 142, 143, 144, 145, 146, 147, 148, 149, 150, 151, 152, 153, 154, 155, 156],
      "AcquisitionTime": ["113156.290000", "113158.290000", "113200.290000", "113202.290000", "113204.290000", "113206.290000", "113208.290000", "113210.290000", "113212.290000", "113214.290000", "113216.290000", "113218.290000", "113220.290000", "113222.290000", "113224.290000", "113226.290000", "113228.290000", "113230.290000", "113232.290000", "113234.290000", "113236.290000", "113238.290000", "113240.290000", "113242.290000", "113244.290000", "113246.290000", "113248.290000", "113250.290000", "113252.290000", "113254.290000", "113256.290000", "113258.290000", "113300.290000", "113302.290000", "113304.290000", "113306.290000", "113308.290000", "113310.290000", "113312.290000", "113314.290000", "113316.290000", "113318.290000", "113320.290000", "113322.290000", "113324.290000", "113326.290000", "113328.290000", "113330.290000", "113332.290000", "113334.290000", "113336.290000", "113338.290000", "113340.290000", "113342.290000", "113344.290000", "113346.290000", "113348.290000", "113350.290000", "113352.290000", "113354.290000", "113356.290000", "113358.290000", "113400.290000", "113402.290000", "113404.290000", "113406.290000", "113408.290000", "113410.290000", "113412.290000", "113414.290000", "113416.290000", "113418.290000", "113420.290000", "113422.290000", "113424.290000", "113426.290000", "113428.290000", "113430.290000", "113432.290000", "113434.290000", "113436.290000", "113438.290000", "113440.290000", "113442.290000", "113444.290000", "113446.290000", "113448.290000", "113450.290000", "113452.290000", "113454.290000", "113456.290000", "113458.290000", "113500.290000", "113502.290000", "113504.290000", "113506.290000", "113508.290000", "113510.290000", "113512.290000", "113514.290000", "113516.290000", "113518.290000", "113520.290000", "113522.290000", "113524.290000", "113526.290000", "113528.290000", "113530.290000", "113532.290000", "113534.290000", "113536.290000", "113538.290000", "113540.290000", "113542.290000", "113544.290000", "113546.290000", "113548.290000", "113550.290000", "113552.290000", "113554.290000", "113556.290000", "113558.290000", "113600.290000", "113602.290000", "113604.290000", "113606.290000", "113608.290000", "113610.290000", "113612.290000", "113614.290000", "113616.290000", "113618.290000", "113620.290000", "113622.290000", "113624.290000", "113626.290000", "113628.290000", "113630.290000", "113632.290000", "113634.290000", "113636.290000", "113638.290000", "113640.290000", "113642.290000", "113644.290000", "113646.290000", "113648.290000", "113650.290000", "113652.290000", "113654.290000", "113656.290000", "113658.290000", "113700.290000", "113702.290000", "113704.290000", "113706.290000"],
      "ContentTime": ["113158.361000", "113159.857000", "113201.858000", "113203.858000", "113205.858000", "113207.857000", "113209.857000", "113211.856000", "113213.857000", "113215.856000", "113217.857000", "113219.858000", "113221.857000", "113223.857000", "113225.856000", "113227.857000", "113229.857000", "113231.857000", "113233.856000", "113235.857000", "113237.858000", "113239.858000", "113241.858000", "113243.856000", "113245.856000", "113247.857000", "113249.856000", "113251.857000", "113253.858000", "113255.858000", "113257.858000", "113259.858000", "113301.857000", "113303.857000", "113305.856000", "113307.856000", "113309.857000", "113311.857000", "113313.858000", "113315.857000", "113317.856000", "113319.856000", "113321.857000", "113323.856000", "113325.856000", "113327.856000", "113329.857000", "113331.858000", "113333.857000", "113335.856000", "113337.857000", "113339.856000", "113341.856000", "113343.857000", "113345.857000", "113347.857000", "113349.857000", "113351.858000", "113353.857000", "113355.856000", "113357.857000", "113359.857000", "113401.856000", "113403.858000", "113405.857000", "113407.857000", "113409.857000", "113411.856000", "113413.857000", "113415.856000", "113417.856000", "113419.856000", "113421.858000", "113423.857000", "113425.857000", "113427.857000", "113429.857000", "113431.857000", "113433.857000", "113435.856000", "113437.857000", "113439.858000", "113441.858000", "113443.857000", "113445.857000", "113447.857000", "113449.856000", "113451.857000", "113453.857000", "113455.858000", "113457.858000", "113459.857000", "113501.858000", "113503.856000", "113505.856000", "113507.856000", "113509.856000", "113511.856000", "113513.857000", "113515.858000", "113517.857000", "113519.858000", "113521.857000", "113523.857000", "113525.856000", "113527.857000", "113529.856000", "113531.857000", "113533.857000", "113535.857000", "113537.856000", "113539.857000", "113541.857000", "113543.856000", "113545.857000", "113547.857000", "113549.857000", "113551.858000", "113553.857000", "113555.856000", "113557.856000", "113559.856000", "113601.856000", "113603.856000", "113605.858000", "113607.857000", "113609.857000", "113611.858000", "113613.856000", "113615.857000", "113617.857000", "113619.857000", "113621.856000", "113623.858000", "113625.858000", "113627.858000", "113629.858000", "113631.856000", "113633.856000", "113635.856000", "113637.856000", "113639.857000", "113641.857000", "113643.857000", "113645.858000", "113647.856000", "113649.857000", "113651.857000", "113653.856000", "113655.857000", "113657.858000", "113659.858000", "113701.858000", "113703.858000", "113705.856000", "113707.562000"],
      "InstanceCreationTime": ["113158.361000", "113159.857000", "113201.858000", "113203.858000", "113205.858000", "113207.857000", "113209.857000", "113211.856000", "113213.857000", "113215.856000", "113217.857000", "113219.858000", "113221.857000", "113223.857000", "113225.856000", "113227.857000", "113229.857000", "113231.857000", "113233.856000", "113235.857000", "113237.858000", "113239.858000", "113241.858000", "113243.856000", "113245.856000", "113247.857000", "113249.856000", "113251.857000", "113253.858000", "113255.858000", "113257.858000", "113259.858000", "113301.857000", "113303.857000", "113305.856000", "113307.856000", "113309.857000", "113311.857000", "113313.858000", "113315.857000", "113317.856000", "113319.856000", "113321.857000", "113323.856000", "113325.856000", "113327.856000", "113329.857000", "113331.858000", "113333.857000", "113335.856000", "113337.857000", "113339.856000", "113341.856000", "113343.857000", "113345.857000", "113347.857000", "113349.857000", "113351.858000", "113353.857000", "113355.856000", "113357.857000", "113359.857000", "113401.856000", "113403.858000", "113405.857000", "113407.857000", "113409.857000", "113411.856000", "113413.857000", "113415.856000", "113417.856000", "113419.856000", "113421.858000", "113423.857000", "113425.857000", "113427.857000", "113429.857000", "113431.857000", "113433.857000", "113435.856000", "113437.857000", "113439.858000", "113441.858000", "113443.857000", "113445.857000", "113447.857000", "113449.856000", "113451.857000", "113453.857000", "113455.858000", "113457.858000", "113459.857000", "113501.858000", "113503.856000", "113505.856000", "113507.856000", "113509.856000", "113511.856000", "113513.857000", "113515.858000", "113517.857000", "113519.858000", "113521.857000", "113523.857000", "113525.856000", "113527.857000", "113529.856000", "113531.857000", "113533.857000", "113535.857000", "113537.856000", "113539.857000", "113541.857000", "113543.856000", "113545.857000", "113547.857000", "113549.857000", "113551.858000", "113553.857000", "113555.856000", "113557.856000", "113559.856000", "113601.856000", "113603.856000", "113605.858000", "113607.857000", "113609.857000", "113611.858000", "113613.856000", "113615.857000", "113617.857000", "113619.857000", "113621.856000", "113623.858000", "113625.858000", "113627.858000", "113629.858000", "113631.856000", "113633.856000", "113635.856000", "113637.856000", "113639.857000", "113641.857000", "113643.857000", "113645.858000", "113647.856000", "113649.857000", "113651.857000", "113653.856000", "113655.857000", "113657.858000", "113659.858000", "113701.858000", "113703.858000", "113705.856000", "113707.562000"],
      "InstanceNumber": [1, 2, 3, 4, 5, 6, 7, 8, 9, 10, 11, 12, 13, 14, 15, 16, 17, 18, 19, 20, 21, 22, 23, 24, 25, 26, 27, 28, 29, 30, 31, 32, 33, 34, 35, 36, 37, 38, 39, 40, 41, 42, 43, 44, 45, 46, 47, 48, 49, 50, 51, 52, 53, 54, 55, 56, 57, 58, 59, 60, 61, 62, 63, 64, 65, 66, 67, 68, 69, 70, 71, 72, 73, 74, 75, 76, 77, 78, 79, 80, 81, 82, 83, 84, 85, 86, 87, 88, 89, 90, 91, 92, 93, 94, 95, 96, 97, 98, 99, 100, 101, 102, 103, 104, 105, 106, 107, 108, 109, 110, 111, 112, 113, 114, 115, 116, 117, 118, 119, 120, 121, 122, 123, 124, 125, 126, 127, 128, 129, 130, 131, 132, 133, 134, 135, 136, 137, 138, 139, 140, 141, 142, 143, 144, 145, 146, 147, 148, 149, 150, 151, 152, 153, 154, 155, 156],
      "LargestImagePixelValue": [3191, 3165, 3094, 3091, 3101, 3111, 3105, 3127, 3121, 3124, 3101, 3141, 3135, 3139, 3136, 3125, 3131, 3131, 3137, 3150, 3112, 3154, 3108, 3122, 3143, 3118, 3122, 3108, 3134, 3136, 3145, 3136, 3162, 3130, 3109, 3140, 3172, 3134, 3127, 3166, 3147, 3169, 3201, 3142, 3153, 3177, 3147, 3140, 3185, 3176, 3124, 3140, 3155, 3192, 3190, 3150, 3147, 3153, 3141, 3143, 3155, 3168, 3178, 3183, 3136, 3186, 3160, 3165, 3208, 3182, 3166, 3183, 3151, 3185, 3198, 3200, 3215, 3186, 3208, 3160, 3259, 3249, 3217, 3248, 3183, 3188, 3244, 3235, 3240, 3224, 3217, 3212, 3239, 3259, 3186, 3250, 3174, 3178, 3197, 3253, 3230, 3229, 3215, 3207, 3243, 3234, 3218, 3221, 3172, 3200, 3183, 3192, 3206, 3207, 3178, 3206, 3231, 3203, 3197, 3225, 3239, 3149, 3142, 3198, 3223, 3227, 3241, 3205, 3199, 3233, 3214, 3179, 3217, 3265, 3250, 3262, 3213, 3144, 3117, 3168, 3168, 3191, 3187, 3154, 3154, 3151, 3181, 3141, 3171, 3202, 3192, 3205, 3215, 3211, 3160, 3159],
      "WindowCenter": [757.0, 756.0, 756.0, 756.0, 757.0, 756.0, 755.0, 756.0, 756.0, 756.0, 755.0, 755.0, 755.0, 754.0, 755.0, 754.0, 756.0, 757.0, 756.0, 756.0, 757.0, 757.0, 758.0, 758.0, 759.0, 757.0, 757.0, 756.0, 757.0, 757.0, 756.0, 756.0, 757.0, 756.0, 757.0, 756.0, 756.0, 756.0, 757.0, 756.0, 755.0, 756.0, 757.0, 757.0, 756.0, 754.0, 753.0, 753.0, 756.0, 756.0, 757.0, 757.0, 758.0, 758.0, 756.0, 754.0, 755.0, 755.0, 756.0, 756.0, 756.0, 756.0, 757.0, 757.0, 756.0, 757.0, 757.0, 757.0, 757.0, 756.0, 757.0, 758.0, 759.0, 757.0, 757.0, 755.0, 755.0, 756.0, 757.0, 756.0, 757.0, 757.0, 757.0, 756.0, 756.0, 756.0, 758.0, 758.0, 758.0, 757.0, 756.0, 757.0, 758.0, 757.0, 757.0, 758.0, 758.0, 756.0, 756.0, 755.0, 756.0, 757.0, 757.0, 756.0, 756.0, 756.0, 757.0, 758.0, 758.0, 758.0, 758.0, 759.0, 761.0, 760.0, 758.0, 758.0, 757.0, 757.0, 757.0, 758.0, 758.0, 757.0, 757.0, 756.0, 756.0, 756.0, 757.0, 756.0, 756.0, 758.0, 758.0, 757.0, 756.0, 756.0, 756.0, 758.0, 760.0, 760.0, 760.0, 759.0, 760.0, 760.0, 760.0, 760.0, 760.0, 760.0, 760.0, 758.0, 759.0, 758.0, 757.0, 756.0, 756.0, 757.0, 757.0, 757.0],
      "WindowWidth": [1626.0, 1624.0, 1623.0, 1625.0, 1627.0, 1626.0, 1621.0, 1624.0, 1624.0, 1625.0, 1623.0, 1622.0, 1622.0, 1621.0, 1623.0, 1621.0, 1624.0, 1626.0, 1625.0, 1625.0, 1627.0, 1627.0, 1630.0, 1630.0, 1632.0, 1628.0, 1627.0, 1624.0, 1629.0, 1627.0, 1625.0, 1624.0, 1628.0, 1626.0, 1626.0, 1626.0, 1626.0, 1626.0, 1628.0, 1626.0, 1623.0, 1625.0, 1627.0, 1627.0, 1625.0, 1620.0, 1619.0, 1618.0, 1624.0, 1625.0, 1627.0, 1627.0, 1630.0, 1628.0, 1624.0, 1618.0, 1622.0, 1623.0, 1624.0, 1624.0, 1625.0, 1626.0, 1628.0, 1626.0, 1625.0, 1626.0, 1627.0, 1627.0, 1628.0, 1626.0, 1627.0, 1630.0, 1632.0, 1628.0, 1628.0, 1623.0, 1623.0, 1625.0, 1627.0, 1626.0, 1629.0, 1628.0, 1627.0, 1626.0, 1625.0, 1626.0, 1631.0, 1629.0, 1631.0, 1629.0, 1626.0, 1627.0, 1630.0, 1628.0, 1627.0, 1630.0, 1631.0, 1626.0, 1625.0, 1623.0, 1625.0, 1627.0, 1628.0, 1625.0, 1625.0, 1625.0, 1626.0, 1629.0, 1631.0, 1630.0, 1631.0, 1634.0, 1638.0, 1635.0, 1630.0, 1628.0, 1628.0, 1627.0, 1629.0, 1629.0, 1631.0, 1628.0, 1628.0, 1625.0, 1624.0, 1624.0, 1626.0, 1625.0, 1626.0, 1629.0, 1630.0, 1626.0, 1625.0, 1623.0, 1624.0, 1629.0, 1634.0, 1636.0, 1636.0, 1634.0, 1634.0, 1635.0, 1635.0, 1634.0, 1636.0, 1634.0, 1635.0, 1631.0, 1632.0, 1630.0, 1626.0, 1624.0, 1624.0, 1627.0, 1627.0, 1626.0]
    },
    "slices": {}
  }
}