{
  "AcquisitionMatrixPE": 100,
  "AcquisitionNumber": 1,
  "AcquisitionTime": "10:57:42.770000",
  "BandwidthPerPixelPhaseEncode": 18.519,
  "BaseResolution": 100,
  "BodyPartExamined": "BRAIN",
  "CoilCombinationMethod": "Sum of Squares",
  "ConsistencyInfo": "N4_VE11C_LATEST_20160120",
  "ConversionSoftware": "dcm2niix",
  "ConversionSoftwareVersion": "v1.0.20211006",
  "DerivedVendorReportedEchoSpacing": 0.000539986,
  "DeviceSerialNumber": "166078",
  "DwellTime": 2.1e-06,
  "EchoTime": 0.034,
  "EchoTrainLength": 100,
  "EffectiveEchoSpacing": 0.000539986,
  "FlipAngle": 90,
  "ImageOrientationPatientDICOM": [0.998812, -0.0174827, -0.0454954, -1.7849e-08, 0.933452, -0.358702],
  "ImageOrientationText": "Tra>Cor(-21.0)>Sag(-2.8)",
  "ImageType": [
    "ORIGINAL",
    "PRIMARY",
    "M",
    "ND",
    "MOSAIC"
],
  "ImagingFrequency": 123.258,
  "InPlanePhaseEncodingDirectionDICOM": "COL",
  "InstitutionAddress": "Street StreetNo,Bei Jing,District,CN,ZIP",
  "InstitutionName": "BeiJing Normal University",
  "InstitutionalDepartmentName": "Department",
  "MRAcquisitionType": "2D",
  "MagneticFieldStrength": 3,
  "Manufacturer": "Siemens",
  "ManufacturersModelName": "Prisma",
  "Modality": "MR",
  "MultibandAccelerationFactor": 3,
  "PartialFourier": 1,
  "PatientPosition": "HFS",
  "PercentPhaseFOV": 100,
  "PercentSampling": 100,
  "PhaseEncodingDirection": "j-",
  "PhaseEncodingSteps": 100,
  "PhaseResolution": 1,
  "PixelBandwidth": 2380,
  "ProcedureStepDescription": "BNU_P2018_64CH^Zhen.ZongLei",
  "ProtocolName": "bold_100x100_s3_2x2x2_static_156",
  "PulseSequenceDetails": "%SiemensSeq%\\ep2d_bold",
  "ReceiveCoilActiveElements": "HC1-7;NC1",
  "ReceiveCoilName": "HeadNeck_64",
  "ReconMatrixPE": 100,
  "RefLinesPE": 32,
  "RepetitionTime": 2,
  "SAR": 0.083031,
  "ScanOptions": "FS",
  "ScanningSequence": "EP",
  "SequenceName": "*epfid2d1_100",
  "SequenceVariant": "SK",
  "SeriesDescription": "bold_100x100_s3_2x2x2_static_156",
  "SeriesNumber": 7,
  "ShimSetting": [-5477, -11466, -1248, 391, -89, -423, -111, 50],
  "SliceThickness": 2,
  "SliceTiming": [1.4825, 0, 0.9875, 0.0825, 1.07, 0.1625, 1.1525, 0.245, 1.235, 0.3275, 1.3175, 0.41, 1.4, 0.575, 1.565, 0.6575, 1.6475, 0.74, 1.73, 0.8225, 1.8125, 0.905, 1.895, 0.4925, 1.4825, 0, 0.9875, 0.0825, 1.07, 0.1625, 1.1525, 0.245, 1.235, 0.3275, 1.3175, 0.41, 1.4, 0.575, 1.565, 0.6575, 1.6475, 0.74, 1.73, 0.8225, 1.8125, 0.905, 1.895, 0.4925, 1.4825, 0, 0.9875, 0.0825, 1.07, 0.1625, 1.1525, 0.245, 1.235, 0.3275, 1.3175, 0.41, 1.4, 0.575, 1.565, 0.6575, 1.6475, 0.74, 1.73, 0.8225, 1.8125, 0.905, 1.895, 0.4925],
  "SoftwareVersions": "syngo MR E11",
  "SpacingBetweenSlices": 2,
  "StationName": "AWP166078",
  "TaskName": "action",
  "TotalReadoutTime": 0.0534586,
  "TxRefAmp": 232.271,
  "dcmmeta_affine": [
    [-1.997623085975647, -3.569809337022889e-08, -0.0974777415394783, 105.37552642822266],
    [0.034965429455041885, 1.8669042587280273, -0.7165514230728149, -68.79307556152344],
    [-0.0909908190369606, 0.7174040675163269, 1.8646855354309082, -99.51190948486328],
    [0.0, 0.0, 0.0, 1.0]
],
  "dcmmeta_reorient_transform": [
    [0.0, -1.0, 0.0, 99.0],
    [1.0, 0.0, 0.0, 0.0],
    [0.0, 0.0, 1.0, 0.0],
    [0.0, 0.0, 0.0, 1.0]
],
  "dcmmeta_shape": [100, 100, 72, 156],
  "dcmmeta_slice_dim": 2,
  "dcmmeta_version": 0.6,
  "global": {
    "const": {
      "AcquisitionMatrix": [100, 0, 0, 100],
      "AngioFlag": "N",
      "BitsAllocated": 16,
      "BitsStored": 12,
      "BodyPartExamined": "BRAIN",
      "Columns": 900,
      "EchoNumbers": 1,
      "EchoTime": 34.0,
      "EchoTrainLength": 100,
      "FlipAngle": 90.0,
      "HighBit": 11,
      "ImageOrientationPatient": [0.99881155496543, -0.0174827153334, -0.0454954100115, -1.7849046e-08, 0.93345211989275, -0.3587020209976],
      "ImagePositionPatient": [-904.42475434209, -848.80597011541, 294.86903464888],
      "ImageType": [
        "ORIGINAL",
        "PRIMARY",
        "M",
        "ND",
        "MOSAIC"
],
      "ImagedNucleus": "1H",
      "ImagingFrequency": 123.257749,
      "InPlanePhaseEncodingDirection": "COL",
      "MRAcquisitionType": "2D",
      "MagneticFieldStrength": 3.0,
      "Manufacturer": "SIEMENS",
      "ManufacturerModelName": "Prisma",
      "Modality": "MR",
      "NumberOfAverages": 1.0,
      "NumberOfPhaseEncodingSteps": 100,
      "PercentPhaseFieldOfView": 100.0,
      "PercentSampling": 100.0,
      "PerformedProcedureStepStartTime": "102743.462000",
      "PhotometricInterpretation": "MONOCHROME2",
      "PixelBandwidth": 2380.0,
      "PixelRepresentation": 0,
      "PixelSpacing": [2.0, 2.0],
      "ProtocolName": "bold_100x100_s3_2x2x2_static_156",
      "RepetitionTime": 2000.0,
      "Rows": 900,
      "SAR": 0.08303095084429,
      "SamplesPerPixel": 1,
      "ScanOptions": "FS",
      "ScanningSequence": "EP",
      "SequenceName": "*epfid2d1_100",
      "SequenceVariant": "SK",
      "SeriesDescription": "bold_100x100_s3_2x2x2_static_156",
      "SeriesNumber": 7,
      "SeriesTime": "105745.774000",
      "SliceLocation": -73.268205681097,
      "SliceThickness": 2.0,
      "SmallestImagePixelValue": 0,
      "SoftwareVersions": "syngo MR E11",
      "SpacingBetweenSlices": 2.0000000040561,
      "SpecificCharacterSet": "ISO_IR 100",
      "StudyID": "1",
      "StudyTime": "102743.357000",
      "TransmitCoilName": "Body",
      "VariableFlipAngleFlag": "N",
      "WindowCenterWidthExplanation": "Algo1",
      "dBdt": 0.0},
    "slices": {}
  },
  "time": {
    "samples": {
      "AcquisitionNumber": [1, 2, 3, 4, 5, 6, 7, 8, 9, 10, 11, 12, 13, 14, 15, 16, 17, 18, 19, 20, 21, 22, 23, 24, 25, 26, 27, 28, 29, 30, 31, 32, 33, 34, 35, 36, 37, 38, 39, 40, 41, 42, 43, 44, 45, 46, 47, 48, 49, 50, 51, 52, 53, 54, 55, 56, 57, 58, 59, 60, 61, 62, 63, 64, 65, 66, 67, 68, 69, 70, 71, 72, 73, 74, 75, 76, 77, 78, 79, 80, 81, 82, 83, 84, 85, 86, 87, 88, 89, 90, 91, 92, 93, 94, 95, 96, 97, 98, 99, 100, 101, 102, 103, 104, 105, 106, 107, 108, 109, 110, 111, 112, 113, 114, 115, 116, 117, 118, 119, 120, 121, 122, 123, 124, 125, 126, 127, 128, 129, 130, 131, 132, 133, 134, 135, 136, 137, 138, 139, 140, 141, 142, 143, 144, 145, 146, 147, 148, 149, 150, 151, 152, 153, 154, 155, 156],
      "AcquisitionTime": ["105742.770000", "105744.770000", "105746.770000", "105748.770000", "105750.770000", "105752.770000", "105754.770000", "105756.770000", "105758.770000", "105800.770000", "105802.770000", "105804.770000", "105806.770000", "105808.770000", "105810.770000", "105812.770000", "105814.770000", "105816.770000", "105818.770000", "105820.770000", "105822.770000", "105824.770000", "105826.770000", "105828.770000", "105830.770000", "105832.770000", "105834.770000", "105836.770000", "105838.770000", "105840.770000", "105842.770000", "105844.770000", "105846.770000", "105848.770000", "105850.770000", "105852.770000", "105854.770000", "105856.770000", "105858.770000", "105900.770000", "105902.770000", "105904.770000", "105906.770000", "105908.770000", "105910.770000", "105912.770000", "105914.770000", "105916.770000", "105918.770000", "105920.770000", "105922.770000", "105924.770000", "105926.770000", "105928.770000", "105930.770000", "105932.770000", "105934.770000", "105936.770000", "105938.770000", "105940.770000", "105942.770000", "105944.770000", "105946.770000", "105948.770000", "105950.770000", "105952.770000", "105954.770000", "105956.770000", "105958.770000", "110000.770000", "110002.770000", "110004.770000", "110006.770000", "110008.770000", "110010.770000", "110012.770000", "110014.770000", "110016.770000", "110018.770000", "110020.770000", "110022.770000", "110024.770000", "110026.770000", "110028.770000", "110030.770000", "110032.770000", "110034.770000", "110036.770000", "110038.770000", "110040.770000", "110042.770000", "110044.770000", "110046.770000", "110048.770000", "110050.770000", "110052.770000", "110054.770000", "110056.770000", "110058.770000", "110100.770000", "110102.770000", "110104.770000", "110106.770000", "110108.770000", "110110.770000", "110112.770000", "110114.770000", "110116.770000", "110118.770000", "110120.770000", "110122.770000", "110124.770000", "110126.770000", "110128.770000", "110130.770000", "110132.770000", "110134.770000", "110136.770000", "110138.770000", "110140.770000", "110142.770000", "110144.770000", "110146.770000", "110148.770000", "110150.770000", "110152.770000", "110154.770000", "110156.770000", "110158.770000", "110200.770000", "110202.770000", "110204.770000", "110206.770000", "110208.770000", "110210.770000", "110212.770000", "110214.770000", "110216.770000", "110218.770000", "110220.770000", "110222.770000", "110224.770000", "110226.770000", "110228.770000", "110230.770000", "110232.770000", "110234.770000", "110236.770000", "110238.770000", "110240.770000", "110242.770000", "110244.770000", "110246.770000", "110248.770000", "110250.770000", "110252.770000"],
      "ContentTime": ["105745.778000", "105747.272000", "105749.272000", "105751.272000", "105753.272000", "105755.273000", "105757.274000", "105759.274000", "105801.273000", "105803.274000", "105805.272000", "105807.272000", "105809.272000", "105811.273000", "105813.274000", "105815.273000", "105817.274000", "105819.274000", "105821.274000", "105823.272000", "105825.272000", "105827.272000", "105829.273000", "105831.274000", "105833.273000", "105835.273000", "105837.274000", "105839.274000", "105841.272000", "105843.272000", "105845.272000", "105847.273000", "105849.273000", "105851.273000", "105853.273000", "105855.273000", "105857.272000", "105859.273000", "105901.272000", "105903.272000", "105905.293000", "105907.274000", "105909.274000", "105911.274000", "105913.274000", "105915.273000", "105917.273000", "105919.272000", "105921.273000", "105923.274000", "105925.274000", "105927.274000", "105929.274000", "105931.276000", "105933.272000", "105935.273000", "105937.273000", "105939.273000", "105941.274000", "105943.274000", "105945.274000", "105947.274000", "105949.274000", "105951.273000", "105953.273000", "105955.272000", "105957.273000", "105959.274000", "110001.274000", "110003.273000", "110005.274000", "110007.272000", "110009.273000", "110011.272000", "110013.272000", "110015.274000", "110017.274000", "110019.274000", "110021.274000", "110023.273000", "110025.277000", "110027.273000", "110029.272000", "110031.273000", "110033.274000", "110035.274000", "110037.274000", "110039.274000", "110041.274000", "110043.272000", "110045.272000", "110047.273000", "110049.273000", "110051.273000", "110053.273000", "110055.273000", "110057.273000", "110059.273000", "110101.273000", "110103.273000", "110105.273000", "110107.273000", "110109.274000", "110111.274000", "110113.293000", "110115.274000", "110117.272000", "110119.272000", "110121.273000", "110123.272000", "110125.273000", "110127.274000", "110129.274000", "110131.273000", "110133.274000", "110135.273000", "110137.272000", "110139.273000", "110141.273000", "110143.273000", "110145.274000", "110147.274000", "110149.275000", "110151.274000", "110153.272000", "110155.273000", "110157.273000", "110159.273000", "110201.274000", "110203.274000", "110205.274000", "110207.274000", "110209.274000", "110211.273000", "110213.272000", "110215.273000", "110217.274000", "110219.274000", "110221.274000", "110223.274000", "110225.274000", "110227.273000", "110229.272000", "110231.273000", "110233.273000", "110235.276000", "110237.274000", "110239.274000", "110241.274000", "110243.274000", "110245.273000", "110247.272000", "110249.273000", "110251.273000", "110253.274000", "110254.989000"],
      "InstanceCreationTime": ["105745.778000", "105747.272000", "105749.272000", "105751.272000", "105753.272000", "105755.273000", "105757.274000", "105759.274000", "105801.273000", "105803.274000", "105805.272000", "105807.272000", "105809.272000", "105811.273000", "105813.274000", "105815.273000", "105817.274000", "105819.274000", "105821.274000", "105823.272000", "105825.272000", "105827.272000", "105829.273000", "105831.274000", "105833.273000", "105835.273000", "105837.274000", "105839.274000", "105841.272000", "105843.272000", "105845.272000", "105847.273000", "105849.273000", "105851.273000", "105853.273000", "105855.273000", "105857.272000", "105859.273000", "105901.272000", "105903.272000", "105905.293000", "105907.274000", "105909.274000", "105911.274000", "105913.274000", "105915.273000", "105917.273000", "105919.272000", "105921.273000", "105923.274000", "105925.274000", "105927.274000", "105929.274000", "105931.276000", "105933.272000", "105935.273000", "105937.273000", "105939.273000", "105941.274000", "105943.274000", "105945.274000", "105947.274000", "105949.274000", "105951.273000", "105953.273000", "105955.272000", "105957.273000", "105959.274000", "110001.274000", "110003.273000", "110005.274000", "110007.272000", "110009.273000", "110011.272000", "110013.272000", "110015.274000", "110017.274000", "110019.274000", "110021.274000", "110023.273000", "110025.277000", "110027.273000", "110029.272000", "110031.273000", "110033.274000", "110035.274000", "110037.274000", "110039.274000", "110041.274000", "110043.272000", "110045.272000", "110047.273000", "110049.273000", "110051.273000", "110053.273000", "110055.273000", "110057.273000", "110059.273000", "110101.273000", "110103.273000", "110105.273000", "110107.273000", "110109.274000", "110111.274000", "110113.293000", "110115.274000", "110117.272000", "110119.272000", "110121.273000", "110123.272000", "110125.273000", "110127.274000", "110129.274000", "110131.273000", "110133.274000", "110135.273000", "110137.272000", "110139.273000", "110141.273000", "110143.273000", "110145.274000", "110147.274000", "110149.275000", "110151.274000", "110153.272000", "110155.273000", "110157.273000", "110159.273000", "110201.274000", "110203.274000", "110205.274000", "110207.274000", "110209.274000", "110211.273000", "110213.272000", "110215.273000", "110217.274000", "110219.274000", "110221.274000", "110223.274000", "110225.274000", "110227.273000", "110229.272000", "110231.273000", "110233.273000", "110235.276000", "110237.274000", "110239.274000", "110241.274000", "110243.274000", "110245.273000", "110247.272000", "110249.273000", "110251.273000", "110253.274000", "110254.989000"],
      "InstanceNumber": [1, 2, 3, 4, 5, 6, 7, 8, 9, 10, 11, 12, 13, 14, 15, 16, 17, 18, 19, 20, 21, 22, 23, 24, 25, 26, 27, 28, 29, 30, 31, 32, 33, 34, 35, 36, 37, 38, 39, 40, 41, 42, 43, 44, 45, 46, 47, 48, 49, 50, 51, 52, 53, 54, 55, 56, 57, 58, 59, 60, 61, 62, 63, 64, 65, 66, 67, 68, 69, 70, 71, 72, 73, 74, 75, 76, 77, 78, 79, 80, 81, 82, 83, 84, 85, 86, 87, 88, 89, 90, 91, 92, 93, 94, 95, 96, 97, 98, 99, 100, 101, 102, 103, 104, 105, 106, 107, 108, 109, 110, 111, 112, 113, 114, 115, 116, 117, 118, 119, 120, 121, 122, 123, 124, 125, 126, 127, 128, 129, 130, 131, 132, 133, 134, 135, 136, 137, 138, 139, 140, 141, 142, 143, 144, 145, 146, 147, 148, 149, 150, 151, 152, 153, 154, 155, 156],
      "LargestImagePixelValue": [3596, 3528, 3531, 3476, 3477, 3478, 3449, 3440, 3449, 3420, 3457, 3432, 3435, 3391, 3442, 3405, 3380, 3440, 3418, 3415, 3443, 3430, 3407, 3431, 3438, 3392, 3470, 3478, 3428, 3430, 3453, 3413, 3403, 3381, 3360, 3374, 3367, 3359, 3371, 3366, 3372, 3348, 3376, 3351, 3343, 3363, 3367, 3349, 3378, 3367, 3440, 3336, 3380, 3436, 3386, 3413, 3443, 3444, 3409, 3494, 3478, 3434, 3450, 3468, 3453, 3482, 3477, 3462, 3476, 3454, 3465, 3477, 3467, 3426, 3427, 3431, 3413, 3420, 3453, 3410, 3406, 3421, 3421, 3385, 3455, 3413, 3393, 3431, 3427, 3456, 3449, 3437, 3463, 3489, 3500, 3420, 3413, 3427, 3442, 3422, 3487, 3487, 3464, 3471, 3402, 3433, 3383, 3358, 3382, 3399, 3373, 3387, 3362, 3404, 3403, 3417, 3353, 3382, 3397, 3385, 3364, 3360, 3379, 3391, 3330, 3398, 3375, 3368, 3677, 3577, 3540, 3548, 3547, 3507, 3512, 3516, 3485, 3483, 3544, 3509, 3515, 3531, 3525, 3505, 3497, 3521, 3528, 3541, 3499, 3550, 3571, 3533, 3542, 3536, 3508, 3533],
      "WindowCenter": [770.0, 768.0, 768.0, 767.0, 767.0, 768.0, 768.0, 768.0, 768.0, 769.0, 770.0, 770.0, 770.0, 769.0, 769.0, 769.0, 769.0, 768.0, 768.0, 767.0, 767.0, 767.0, 766.0, 767.0, 767.0, 766.0, 767.0, 766.0, 766.0, 766.0, 766.0, 765.0, 765.0, 765.0, 766.0, 766.0, 767.0, 765.0, 766.0, 766.0, 767.0, 768.0, 768.0, 768.0, 768.0, 768.0, 770.0, 769.0, 770.0, 769.0, 771.0, 770.0, 770.0, 770.0, 768.0, 768.0, 770.0, 771.0, 770.0, 770.0, 768.0, 767.0, 768.0, 767.0, 767.0, 767.0, 767.0, 767.0, 767.0, 767.0, 767.0, 767.0, 768.0, 768.0, 769.0, 770.0, 771.0, 771.0, 772.0, 772.0, 772.0, 772.0, 773.0, 772.0, 772.0, 772.0, 772.0, 771.0, 771.0, 770.0, 769.0, 769.0, 769.0, 768.0, 768.0, 768.0, 768.0, 769.0, 771.0, 770.0, 770.0, 769.0, 769.0, 768.0, 769.0, 770.0, 771.0, 771.0, 771.0, 771.0, 771.0, 771.0, 772.0, 772.0, 771.0, 770.0, 771.0, 770.0, 771.0, 772.0, 772.0, 771.0, 770.0, 770.0, 771.0, 772.0, 772.0, 770.0, 772.0, 771.0, 769.0, 768.0, 769.0, 769.0, 771.0, 772.0, 773.0, 772.0, 772.0, 772.0, 773.0, 773.0, 773.0, 772.0, 772.0, 773.0, 774.0, 773.0, 772.0, 772.0, 772.0, 772.0, 772.0, 772.0, 770.0, 770.0],
      "WindowWidth": [1661.0, 1656.0, 1656.0, 1654.0, 1653.0, 1655.0, 1654.0, 1655.0, 1657.0, 1658.0, 1661.0, 1661.0, 1661.0, 1658.0, 1660.0, 1660.0, 1658.0, 1657.0, 1656.0, 1654.0, 1654.0, 1653.0, 1652.0, 1653.0, 1653.0, 1652.0, 1653.0, 1651.0, 1652.0, 1651.0, 1649.0, 1648.0, 1648.0, 1649.0, 1652.0, 1652.0, 1653.0, 1649.0, 1651.0, 1651.0, 1655.0, 1655.0, 1656.0, 1656.0, 1657.0, 1658.0, 1661.0, 1660.0, 1663.0, 1660.0, 1665.0, 1662.0, 1661.0, 1661.0, 1657.0, 1657.0, 1663.0, 1665.0, 1663.0, 1661.0, 1658.0, 1655.0, 1656.0, 1655.0, 1655.0, 1655.0, 1655.0, 1654.0, 1655.0, 1654.0, 1655.0, 1654.0, 1657.0, 1656.0, 1660.0, 1663.0, 1664.0, 1665.0, 1667.0, 1667.0, 1667.0, 1667.0, 1670.0, 1666.0, 1669.0, 1668.0, 1667.0, 1664.0, 1665.0, 1662.0, 1660.0, 1659.0, 1658.0, 1656.0, 1656.0, 1656.0, 1657.0, 1658.0, 1664.0, 1661.0, 1663.0, 1660.0, 1658.0, 1658.0, 1659.0, 1663.0, 1664.0, 1664.0, 1665.0, 1665.0, 1665.0, 1666.0, 1668.0, 1666.0, 1665.0, 1663.0, 1664.0, 1663.0, 1666.0, 1667.0, 1668.0, 1665.0, 1662.0, 1662.0, 1665.0, 1669.0, 1667.0, 1661.0, 1668.0, 1663.0, 1657.0, 1655.0, 1658.0, 1659.0, 1663.0, 1668.0, 1668.0, 1666.0, 1666.0, 1666.0, 1668.0, 1669.0, 1669.0, 1666.0, 1666.0, 1670.0, 1672.0, 1669.0, 1667.0, 1667.0, 1666.0, 1666.0, 1667.0, 1667.0, 1661.0, 1660.0]
    },
    "slices": {}
  }
}