{
  "AcquisitionMatrixPE": 100,
  "AcquisitionNumber": 1,
  "AcquisitionTime": "10:31:9.120000",
  "BandwidthPerPixelPhaseEncode": 18.519,
  "BaseResolution": 100,
  "BodyPartExamined": "BRAIN",
  "CoilCombinationMethod": "Sum of Squares",
  "ConsistencyInfo": "N4_VE11C_LATEST_20160120",
  "ConversionSoftware": "dcm2niix",
  "ConversionSoftwareVersion": "v1.0.20211006",
  "DerivedVendorReportedEchoSpacing": 0.000539986,
  "DeviceSerialNumber": "166078",
  "DwellTime": 2.1e-06,
  "EchoTime": 0.034,
  "EchoTrainLength": 100,
  "EffectiveEchoSpacing": 0.000539986,
  "FlipAngle": 90,
  "ImageOrientationPatientDICOM": [0.998812, -0.0174827, -0.0454954, -1.7849e-08, 0.933452, -0.358702],
  "ImageOrientationText": "Tra>Cor(-21.0)>Sag(-2.8)",
  "ImageType": [
    "ORIGINAL",
    "PRIMARY",
    "M",
    "ND",
    "MOSAIC"
],
  "ImagingFrequency": 123.258,
  "InPlanePhaseEncodingDirectionDICOM": "COL",
  "InstitutionAddress": "Street StreetNo,Bei Jing,District,CN,ZIP",
  "InstitutionName": "BeiJing Normal University",
  "InstitutionalDepartmentName": "Department",
  "MRAcquisitionType": "2D",
  "MagneticFieldStrength": 3,
  "Manufacturer": "Siemens",
  "ManufacturersModelName": "Prisma",
  "Modality": "MR",
  "MultibandAccelerationFactor": 3,
  "PartialFourier": 1,
  "PatientPosition": "HFS",
  "PercentPhaseFOV": 100,
  "PercentSampling": 100,
  "PhaseEncodingDirection": "j-",
  "PhaseEncodingSteps": 100,
  "PhaseResolution": 1,
  "PixelBandwidth": 2380,
  "ProcedureStepDescription": "BNU_P2018_64CH^Zhen.ZongLei",
  "ProtocolName": "bold_100x100_s3_2x2x2_static_156",
  "PulseSequenceDetails": "%SiemensSeq%\\ep2d_bold",
  "ReceiveCoilActiveElements": "HC1-7;NC1",
  "ReceiveCoilName": "HeadNeck_64",
  "ReconMatrixPE": 100,
  "RefLinesPE": 32,
  "RepetitionTime": 2,
  "SAR": 0.083031,
  "ScanOptions": "FS",
  "ScanningSequence": "EP",
  "SequenceName": "*epfid2d1_100",
  "SequenceVariant": "SK",
  "SeriesDescription": "bold_100x100_s3_2x2x2_static_156",
  "SeriesNumber": 3,
  "ShimSetting": [-5477, -11466, -1248, 391, -89, -423, -111, 50],
  "SliceThickness": 2,
  "SliceTiming": [1.485, 0, 0.99, 0.0825, 1.0725, 0.165, 1.155, 0.2475, 1.2375, 0.33, 1.32, 0.4125, 1.4025, 0.5775, 1.5675, 0.66, 1.65, 0.7425, 1.7325, 0.825, 1.815, 0.9075, 1.8975, 0.495, 1.485, 0, 0.99, 0.0825, 1.0725, 0.165, 1.155, 0.2475, 1.2375, 0.33, 1.32, 0.4125, 1.4025, 0.5775, 1.5675, 0.66, 1.65, 0.7425, 1.7325, 0.825, 1.815, 0.9075, 1.8975, 0.495, 1.485, 0, 0.99, 0.0825, 1.0725, 0.165, 1.155, 0.2475, 1.2375, 0.33, 1.32, 0.4125, 1.4025, 0.5775, 1.5675, 0.66, 1.65, 0.7425, 1.7325, 0.825, 1.815, 0.9075, 1.8975, 0.495],
  "SoftwareVersions": "syngo MR E11",
  "SpacingBetweenSlices": 2,
  "StationName": "AWP166078",
  "TaskName": "action",
  "TotalReadoutTime": 0.0534586,
  "TxRefAmp": 232.271,
  "dcmmeta_affine": [
    [-1.997623085975647, -3.569809337022889e-08, -0.0974777415394783, 105.37552642822266],
    [0.034965429455041885, 1.8669042587280273, -0.7165514230728149, -68.79307556152344],
    [-0.0909908190369606, 0.7174040675163269, 1.8646855354309082, -99.51190948486328],
    [0.0, 0.0, 0.0, 1.0]
],
  "dcmmeta_reorient_transform": [
    [0.0, -1.0, 0.0, 99.0],
    [1.0, 0.0, 0.0, 0.0],
    [0.0, 0.0, 1.0, 0.0],
    [0.0, 0.0, 0.0, 1.0]
],
  "dcmmeta_shape": [100, 100, 72, 156],
  "dcmmeta_slice_dim": 2,
  "dcmmeta_version": 0.6,
  "global": {
    "const": {
      "AcquisitionMatrix": [100, 0, 0, 100],
      "AngioFlag": "N",
      "BitsAllocated": 16,
      "BitsStored": 12,
      "BodyPartExamined": "BRAIN",
      "Columns": 900,
      "EchoNumbers": 1,
      "EchoTime": 34.0,
      "EchoTrainLength": 100,
      "FlipAngle": 90.0,
      "HighBit": 11,
      "ImageOrientationPatient": [0.99881155496543, -0.0174827153334, -0.0454954100115, -1.7849046e-08, 0.93345211989275, -0.3587020209976],
      "ImagePositionPatient": [-904.42475434209, -848.80597011541, 294.86903464888],
      "ImageType": [
        "ORIGINAL",
        "PRIMARY",
        "M",
        "ND",
        "MOSAIC"
],
      "ImagedNucleus": "1H",
      "ImagingFrequency": 123.257746,
      "InPlanePhaseEncodingDirection": "COL",
      "MRAcquisitionType": "2D",
      "MagneticFieldStrength": 3.0,
      "Manufacturer": "SIEMENS",
      "ManufacturerModelName": "Prisma",
      "Modality": "MR",
      "NumberOfAverages": 1.0,
      "NumberOfPhaseEncodingSteps": 100,
      "PercentPhaseFieldOfView": 100.0,
      "PercentSampling": 100.0,
      "PerformedProcedureStepStartTime": "102743.462000",
      "PhotometricInterpretation": "MONOCHROME2",
      "PixelBandwidth": 2380.0,
      "PixelRepresentation": 0,
      "PixelSpacing": [2.0, 2.0],
      "ProtocolName": "bold_100x100_s3_2x2x2_static_156",
      "RepetitionTime": 2000.0,
      "Rows": 900,
      "SAR": 0.08303095084429,
      "SamplesPerPixel": 1,
      "ScanOptions": "FS",
      "ScanningSequence": "EP",
      "SequenceName": "*epfid2d1_100",
      "SequenceVariant": "SK",
      "SeriesDescription": "bold_100x100_s3_2x2x2_static_156",
      "SeriesNumber": 3,
      "SeriesTime": "103111.909000",
      "SliceLocation": -73.268205681097,
      "SliceThickness": 2.0,
      "SmallestImagePixelValue": 0,
      "SoftwareVersions": "syngo MR E11",
      "SpacingBetweenSlices": 2.0000000040561,
      "SpecificCharacterSet": "ISO_IR 100",
      "StudyID": "1",
      "StudyTime": "102743.357000",
      "TransmitCoilName": "Body",
      "VariableFlipAngleFlag": "N",
      "WindowCenterWidthExplanation": "Algo1",
      "dBdt": 0.0},
    "slices": {}
  },
  "time": {
    "samples": {
      "AcquisitionNumber": [1, 2, 3, 4, 5, 6, 7, 8, 9, 10, 11, 12, 13, 14, 15, 16, 17, 18, 19, 20, 21, 22, 23, 24, 25, 26, 27, 28, 29, 30, 31, 32, 33, 34, 35, 36, 37, 38, 39, 40, 41, 42, 43, 44, 45, 46, 47, 48, 49, 50, 51, 52, 53, 54, 55, 56, 57, 58, 59, 60, 61, 62, 63, 64, 65, 66, 67, 68, 69, 70, 71, 72, 73, 74, 75, 76, 77, 78, 79, 80, 81, 82, 83, 84, 85, 86, 87, 88, 89, 90, 91, 92, 93, 94, 95, 96, 97, 98, 99, 100, 101, 102, 103, 104, 105, 106, 107, 108, 109, 110, 111, 112, 113, 114, 115, 116, 117, 118, 119, 120, 121, 122, 123, 124, 125, 126, 127, 128, 129, 130, 131, 132, 133, 134, 135, 136, 137, 138, 139, 140, 141, 142, 143, 144, 145, 146, 147, 148, 149, 150, 151, 152, 153, 154, 155, 156],
      "AcquisitionTime": ["103109.120000", "103111.120000", "103113.120000", "103115.120000", "103117.120000", "103119.120000", "103121.120000", "103123.120000", "103125.120000", "103127.120000", "103129.120000", "103131.120000", "103133.120000", "103135.120000", "103137.120000", "103139.120000", "103141.120000", "103143.120000", "103145.120000", "103147.120000", "103149.120000", "103151.120000", "103153.120000", "103155.120000", "103157.120000", "103159.120000", "103201.120000", "103203.120000", "103205.120000", "103207.120000", "103209.120000", "103211.120000", "103213.120000", "103215.120000", "103217.120000", "103219.120000", "103221.120000", "103223.120000", "103225.120000", "103227.120000", "103229.120000", "103231.120000", "103233.120000", "103235.120000", "103237.120000", "103239.120000", "103241.120000", "103243.120000", "103245.120000", "103247.120000", "103249.120000", "103251.120000", "103253.120000", "103255.120000", "103257.120000", "103259.120000", "103301.120000", "103303.120000", "103305.120000", "103307.120000", "103309.120000", "103311.120000", "103313.120000", "103315.120000", "103317.120000", "103319.120000", "103321.120000", "103323.120000", "103325.120000", "103327.120000", "103329.120000", "103331.120000", "103333.120000", "103335.120000", "103337.120000", "103339.120000", "103341.120000", "103343.120000", "103345.120000", "103347.120000", "103349.120000", "103351.120000", "103353.120000", "103355.120000", "103357.120000", "103359.120000", "103401.120000", "103403.120000", "103405.120000", "103407.120000", "103409.120000", "103411.120000", "103413.120000", "103415.120000", "103417.120000", "103419.120000", "103421.120000", "103423.120000", "103425.120000", "103427.120000", "103429.120000", "103431.120000", "103433.120000", "103435.120000", "103437.120000", "103439.120000", "103441.120000", "103443.120000", "103445.120000", "103447.120000", "103449.120000", "103451.120000", "103453.120000", "103455.120000", "103457.120000", "103459.120000", "103501.120000", "103503.120000", "103505.120000", "103507.120000", "103509.120000", "103511.120000", "103513.120000", "103515.120000", "103517.120000", "103519.120000", "103521.120000", "103523.120000", "103525.120000", "103527.120000", "103529.120000", "103531.120000", "103533.120000", "103535.120000", "103537.120000", "103539.120000", "103541.120000", "103543.120000", "103545.120000", "103547.120000", "103549.120000", "103551.120000", "103553.120000", "103555.120000", "103557.120000", "103559.120000", "103601.120000", "103603.120000", "103605.120000", "103607.120000", "103609.120000", "103611.120000", "103613.120000", "103615.120000", "103617.120000", "103619.120000"],
      "ContentTime": ["103111.913000", "103113.409000", "103115.408000", "103117.409000", "103119.408000", "103121.408000", "103123.408000", "103125.409000", "103127.408000", "103129.409000", "103131.408000", "103133.408000", "103135.408000", "103137.408000", "103139.408000", "103142.909000", "103144.409000", "103145.909000", "103147.408000", "103149.408000", "103151.408000", "103153.408000", "103155.409000", "103157.408000", "103159.410000", "103201.408000", "103203.408000", "103205.408000", "103207.408000", "103209.409000", "103211.408000", "103213.408000", "103215.409000", "103217.410000", "103219.408000", "103221.408000", "103223.408000", "103225.408000", "103227.408000", "103229.408000", "103231.408000", "103233.409000", "103235.409000", "103237.409000", "103239.409000", "103241.409000", "103243.409000", "103245.408000", "103247.408000", "103249.408000", "103251.410000", "103253.409000", "103255.409000", "103257.409000", "103259.408000", "103301.409000", "103303.409000", "103305.408000", "103307.408000", "103309.409000", "103311.408000", "103313.408000", "103315.409000", "103317.409000", "103319.408000", "103321.409000", "103323.409000", "103325.409000", "103327.410000", "103329.408000", "103331.409000", "103333.409000", "103335.408000", "103337.409000", "103339.408000", "103341.409000", "103343.409000", "103345.409000", "103347.408000", "103349.408000", "103351.409000", "103353.409000", "103355.409000", "103357.408000", "103359.409000", "103401.409000", "103403.408000", "103405.408000", "103407.408000", "103409.408000", "103411.408000", "103413.408000", "103415.408000", "103417.408000", "103419.409000", "103421.408000", "103423.409000", "103425.409000", "103427.409000", "103429.409000", "103431.408000", "103433.408000", "103435.409000", "103437.410000", "103439.408000", "103441.408000", "103443.409000", "103445.409000", "103447.408000", "103449.408000", "103451.409000", "103453.408000", "103455.409000", "103457.409000", "103459.409000", "103501.408000", "103503.408000", "103505.408000", "103507.408000", "103509.409000", "103511.409000", "103513.409000", "103515.409000", "103517.409000", "103519.408000", "103521.409000", "103523.408000", "103525.408000", "103527.409000", "103529.410000", "103531.409000", "103533.408000", "103535.408000", "103537.409000", "103539.408000", "103541.409000", "103543.409000", "103545.408000", "103547.410000", "103549.409000", "103551.408000", "103553.409000", "103555.409000", "103557.409000", "103559.409000", "103601.408000", "103603.408000", "103605.409000", "103607.408000", "103609.409000", "103611.409000", "103613.409000", "103615.409000", "103617.409000", "103619.409000", "103621.087000"],
      "InstanceCreationTime": ["103111.913000", "103113.409000", "103115.408000", "103117.409000", "103119.408000", "103121.408000", "103123.408000", "103125.409000", "103127.408000", "103129.409000", "103131.408000", "103133.408000", "103135.408000", "103137.408000", "103139.408000", "103142.909000", "103144.409000", "103145.909000", "103147.408000", "103149.408000", "103151.408000", "103153.408000", "103155.409000", "103157.408000", "103159.410000", "103201.408000", "103203.408000", "103205.408000", "103207.408000", "103209.409000", "103211.408000", "103213.408000", "103215.409000", "103217.410000", "103219.408000", "103221.408000", "103223.408000", "103225.408000", "103227.408000", "103229.408000", "103231.408000", "103233.409000", "103235.409000", "103237.409000", "103239.409000", "103241.409000", "103243.409000", "103245.408000", "103247.408000", "103249.408000", "103251.410000", "103253.409000", "103255.409000", "103257.409000", "103259.408000", "103301.409000", "103303.409000", "103305.408000", "103307.408000", "103309.409000", "103311.408000", "103313.408000", "103315.409000", "103317.409000", "103319.408000", "103321.409000", "103323.409000", "103325.409000", "103327.410000", "103329.408000", "103331.409000", "103333.409000", "103335.408000", "103337.409000", "103339.408000", "103341.409000", "103343.409000", "103345.409000", "103347.408000", "103349.408000", "103351.409000", "103353.409000", "103355.409000", "103357.408000", "103359.409000", "103401.409000", "103403.408000", "103405.408000", "103407.408000", "103409.408000", "103411.408000", "103413.408000", "103415.408000", "103417.408000", "103419.409000", "103421.408000", "103423.409000", "103425.409000", "103427.409000", "103429.409000", "103431.408000", "103433.408000", "103435.409000", "103437.410000", "103439.408000", "103441.408000", "103443.409000", "103445.409000", "103447.408000", "103449.408000", "103451.409000", "103453.408000", "103455.409000", "103457.409000", "103459.409000", "103501.408000", "103503.408000", "103505.408000", "103507.408000", "103509.409000", "103511.409000", "103513.409000", "103515.409000", "103517.409000", "103519.408000", "103521.409000", "103523.408000", "103525.408000", "103527.409000", "103529.410000", "103531.409000", "103533.408000", "103535.408000", "103537.409000", "103539.408000", "103541.409000", "103543.409000", "103545.408000", "103547.410000", "103549.409000", "103551.408000", "103553.409000", "103555.409000", "103557.409000", "103559.409000", "103601.408000", "103603.408000", "103605.409000", "103607.408000", "103609.409000", "103611.409000", "103613.409000", "103615.409000", "103617.409000", "103619.409000", "103621.087000"],
      "InstanceNumber": [1, 2, 3, 4, 5, 6, 7, 8, 9, 10, 11, 12, 13, 14, 15, 16, 17, 18, 19, 20, 21, 22, 23, 24, 25, 26, 27, 28, 29, 30, 31, 32, 33, 34, 35, 36, 37, 38, 39, 40, 41, 42, 43, 44, 45, 46, 47, 48, 49, 50, 51, 52, 53, 54, 55, 56, 57, 58, 59, 60, 61, 62, 63, 64, 65, 66, 67, 68, 69, 70, 71, 72, 73, 74, 75, 76, 77, 78, 79, 80, 81, 82, 83, 84, 85, 86, 87, 88, 89, 90, 91, 92, 93, 94, 95, 96, 97, 98, 99, 100, 101, 102, 103, 104, 105, 106, 107, 108, 109, 110, 111, 112, 113, 114, 115, 116, 117, 118, 119, 120, 121, 122, 123, 124, 125, 126, 127, 128, 129, 130, 131, 132, 133, 134, 135, 136, 137, 138, 139, 140, 141, 142, 143, 144, 145, 146, 147, 148, 149, 150, 151, 152, 153, 154, 155, 156],
      "LargestImagePixelValue": [3514, 3467, 3472, 3420, 3467, 3496, 3478, 3485, 3439, 3408, 3276, 3290, 3283, 3314, 3294, 3271, 3303, 3253, 3347, 3340, 3352, 3385, 3363, 3356, 3346, 3334, 3321, 3357, 3386, 3361, 3370, 3333, 3347, 3337, 3339, 3322, 3340, 3381, 3329, 3296, 3342, 3248, 3243, 3205, 3254, 3218, 3294, 3219, 3234, 3252, 3228, 3197, 3233, 3213, 3302, 3232, 3303, 3235, 3276, 3240, 3256, 3247, 3235, 3257, 3301, 3296, 3273, 3285, 3303, 3361, 3331, 3382, 3350, 3390, 3394, 3453, 3505, 3439, 3458, 3449, 3406, 3476, 3437, 3453, 3465, 3475, 3461, 3543, 3446, 3468, 3482, 3480, 3471, 3459, 3460, 3463, 3406, 3513, 3462, 3503, 3510, 3458, 3434, 3535, 3409, 3540, 3445, 3465, 3501, 3461, 3442, 3490, 3427, 3447, 3464, 3460, 3500, 3490, 3434, 3542, 3452, 3560, 3502, 3527, 3475, 3464, 3470, 3458, 3440, 3491, 3454, 3560, 3476, 3518, 3494, 3515, 3439, 3512, 3455, 3478, 3455, 3543, 3474, 3511, 3425, 3526, 3420, 3406, 3424, 3444, 3440, 3497, 3483, 3511, 3433, 3494],
      "WindowCenter": [765.0, 762.0, 763.0, 763.0, 762.0, 761.0, 761.0, 763.0, 765.0, 767.0, 765.0, 763.0, 762.0, 762.0, 764.0, 764.0, 764.0, 763.0, 763.0, 763.0, 764.0, 764.0, 764.0, 763.0, 764.0, 763.0, 763.0, 763.0, 764.0, 763.0, 763.0, 763.0, 763.0, 763.0, 763.0, 763.0, 763.0, 763.0, 764.0, 763.0, 763.0, 764.0, 763.0, 761.0, 762.0, 762.0, 763.0, 763.0, 764.0, 764.0, 764.0, 764.0, 764.0, 764.0, 763.0, 762.0, 762.0, 762.0, 762.0, 761.0, 761.0, 761.0, 762.0, 762.0, 761.0, 755.0, 756.0, 762.0, 762.0, 763.0, 764.0, 765.0, 764.0, 764.0, 764.0, 764.0, 764.0, 765.0, 766.0, 766.0, 766.0, 765.0, 765.0, 765.0, 766.0, 765.0, 765.0, 765.0, 765.0, 766.0, 765.0, 766.0, 767.0, 766.0, 766.0, 765.0, 764.0, 766.0, 767.0, 767.0, 766.0, 766.0, 765.0, 765.0, 765.0, 766.0, 766.0, 766.0, 766.0, 766.0, 767.0, 767.0, 765.0, 766.0, 766.0, 765.0, 766.0, 766.0, 766.0, 766.0, 766.0, 767.0, 767.0, 767.0, 767.0, 768.0, 767.0, 767.0, 765.0, 765.0, 765.0, 766.0, 767.0, 767.0, 766.0, 766.0, 767.0, 768.0, 768.0, 767.0, 766.0, 767.0, 767.0, 767.0, 768.0, 768.0, 768.0, 768.0, 768.0, 767.0, 766.0, 766.0, 766.0, 767.0, 767.0, 768.0],
      "WindowWidth": [1648.0, 1641.0, 1644.0, 1643.0, 1640.0, 1638.0, 1638.0, 1641.0, 1648.0, 1652.0, 1648.0, 1642.0, 1639.0, 1640.0, 1644.0, 1646.0, 1645.0, 1642.0, 1641.0, 1641.0, 1644.0, 1644.0, 1644.0, 1643.0, 1644.0, 1643.0, 1642.0, 1643.0, 1645.0, 1643.0, 1643.0, 1641.0, 1641.0, 1641.0, 1642.0, 1641.0, 1641.0, 1641.0, 1643.0, 1642.0, 1642.0, 1644.0, 1642.0, 1635.0, 1638.0, 1638.0, 1643.0, 1641.0, 1644.0, 1645.0, 1645.0, 1645.0, 1645.0, 1643.0, 1642.0, 1638.0, 1639.0, 1639.0, 1639.0, 1637.0, 1637.0, 1636.0, 1639.0, 1638.0, 1637.0, 1622.0, 1624.0, 1641.0, 1639.0, 1642.0, 1644.0, 1647.0, 1646.0, 1644.0, 1644.0, 1644.0, 1645.0, 1647.0, 1649.0, 1649.0, 1648.0, 1647.0, 1646.0, 1647.0, 1650.0, 1648.0, 1647.0, 1647.0, 1648.0, 1649.0, 1648.0, 1649.0, 1652.0, 1651.0, 1649.0, 1646.0, 1646.0, 1650.0, 1651.0, 1652.0, 1650.0, 1649.0, 1646.0, 1648.0, 1647.0, 1649.0, 1649.0, 1648.0, 1650.0, 1651.0, 1651.0, 1651.0, 1648.0, 1649.0, 1650.0, 1648.0, 1650.0, 1650.0, 1649.0, 1650.0, 1649.0, 1653.0, 1652.0, 1652.0, 1653.0, 1654.0, 1653.0, 1651.0, 1648.0, 1647.0, 1647.0, 1650.0, 1651.0, 1652.0, 1650.0, 1651.0, 1652.0, 1656.0, 1654.0, 1651.0, 1649.0, 1651.0, 1652.0, 1653.0, 1654.0, 1655.0, 1655.0, 1655.0, 1655.0, 1652.0, 1650.0, 1650.0, 1650.0, 1653.0, 1652.0, 1654.0]
    },
    "slices": {}
  }
}