{
  "AcquisitionMatrixPE": 100,
  "AcquisitionNumber": 1,
  "AcquisitionTime": "10:37:31.520000",
  "BandwidthPerPixelPhaseEncode": 18.519,
  "BaseResolution": 100,
  "BodyPartExamined": "BRAIN",
  "CoilCombinationMethod": "Sum of Squares",
  "ConsistencyInfo": "N4_VE11C_LATEST_20160120",
  "ConversionSoftware": "dcm2niix",
  "ConversionSoftwareVersion": "v1.0.20211006",
  "DerivedVendorReportedEchoSpacing": 0.000539986,
  "DeviceSerialNumber": "166078",
  "DwellTime": 2.1e-06,
  "EchoTime": 0.034,
  "EchoTrainLength": 100,
  "EffectiveEchoSpacing": 0.000539986,
  "FlipAngle": 90,
  "ImageOrientationPatientDICOM": [0.998812, -0.0174827, -0.0454954, -1.7849e-08, 0.933452, -0.358702],
  "ImageOrientationText": "Tra>Cor(-21.0)>Sag(-2.8)",
  "ImageType": [
    "ORIGINAL",
    "PRIMARY",
    "M",
    "ND",
    "MOSAIC"
],
  "ImagingFrequency": 123.258,
  "InPlanePhaseEncodingDirectionDICOM": "COL",
  "InstitutionAddress": "Street StreetNo,Bei Jing,District,CN,ZIP",
  "InstitutionName": "BeiJing Normal University",
  "InstitutionalDepartmentName": "Department",
  "MRAcquisitionType": "2D",
  "MagneticFieldStrength": 3,
  "Manufacturer": "Siemens",
  "ManufacturersModelName": "Prisma",
  "Modality": "MR",
  "MultibandAccelerationFactor": 3,
  "PartialFourier": 1,
  "PatientPosition": "HFS",
  "PercentPhaseFOV": 100,
  "PercentSampling": 100,
  "PhaseEncodingDirection": "j-",
  "PhaseEncodingSteps": 100,
  "PhaseResolution": 1,
  "PixelBandwidth": 2380,
  "ProcedureStepDescription": "BNU_P2018_64CH^Zhen.ZongLei",
  "ProtocolName": "bold_100x100_s3_2x2x2_static_156",
  "PulseSequenceDetails": "%SiemensSeq%\\ep2d_bold",
  "ReceiveCoilActiveElements": "HC1-7;NC1",
  "ReceiveCoilName": "HeadNeck_64",
  "ReconMatrixPE": 100,
  "RefLinesPE": 32,
  "RepetitionTime": 2,
  "SAR": 0.083031,
  "ScanOptions": "FS",
  "ScanningSequence": "EP",
  "SequenceName": "*epfid2d1_100",
  "SequenceVariant": "SK",
  "SeriesDescription": "bold_100x100_s3_2x2x2_static_156",
  "SeriesNumber": 4,
  "ShimSetting": [-5477, -11466, -1248, 391, -89, -423, -111, 50],
  "SliceThickness": 2,
  "SliceTiming": [1.485, 0, 0.99, 0.0825, 1.0725, 0.165, 1.155, 0.2475, 1.2375, 0.33, 1.32, 0.4125, 1.4025, 0.5775, 1.5675, 0.66, 1.65, 0.7425, 1.7325, 0.825, 1.815, 0.9075, 1.8975, 0.495, 1.485, 0, 0.99, 0.0825, 1.0725, 0.165, 1.155, 0.2475, 1.2375, 0.33, 1.32, 0.4125, 1.4025, 0.5775, 1.5675, 0.66, 1.65, 0.7425, 1.7325, 0.825, 1.815, 0.9075, 1.8975, 0.495, 1.485, 0, 0.99, 0.0825, 1.0725, 0.165, 1.155, 0.2475, 1.2375, 0.33, 1.32, 0.4125, 1.4025, 0.5775, 1.5675, 0.66, 1.65, 0.7425, 1.7325, 0.825, 1.815, 0.9075, 1.8975, 0.495],
  "SoftwareVersions": "syngo MR E11",
  "SpacingBetweenSlices": 2,
  "StationName": "AWP166078",
  "TaskName": "action",
  "TotalReadoutTime": 0.0534586,
  "TxRefAmp": 232.271,
  "dcmmeta_affine": [
    [-1.997623085975647, -3.569809337022889e-08, -0.0974777415394783, 105.37552642822266],
    [0.034965429455041885, 1.8669042587280273, -0.7165514230728149, -68.79307556152344],
    [-0.0909908190369606, 0.7174040675163269, 1.8646855354309082, -99.51190948486328],
    [0.0, 0.0, 0.0, 1.0]
],
  "dcmmeta_reorient_transform": [
    [0.0, -1.0, 0.0, 99.0],
    [1.0, 0.0, 0.0, 0.0],
    [0.0, 0.0, 1.0, 0.0],
    [0.0, 0.0, 0.0, 1.0]
],
  "dcmmeta_shape": [100, 100, 72, 156],
  "dcmmeta_slice_dim": 2,
  "dcmmeta_version": 0.6,
  "global": {
    "const": {
      "AcquisitionMatrix": [100, 0, 0, 100],
      "AngioFlag": "N",
      "BitsAllocated": 16,
      "BitsStored": 12,
      "BodyPartExamined": "BRAIN",
      "Columns": 900,
      "EchoNumbers": 1,
      "EchoTime": 34.0,
      "EchoTrainLength": 100,
      "FlipAngle": 90.0,
      "HighBit": 11,
      "ImageOrientationPatient": [0.99881155496543, -0.0174827153334, -0.0454954100115, -1.7849046e-08, 0.93345211989275, -0.3587020209976],
      "ImagePositionPatient": [-904.42475434209, -848.80597011541, 294.86903464888],
      "ImageType": [
        "ORIGINAL",
        "PRIMARY",
        "M",
        "ND",
        "MOSAIC"
],
      "ImagedNucleus": "1H",
      "ImagingFrequency": 123.257749,
      "InPlanePhaseEncodingDirection": "COL",
      "MRAcquisitionType": "2D",
      "MagneticFieldStrength": 3.0,
      "Manufacturer": "SIEMENS",
      "ManufacturerModelName": "Prisma",
      "Modality": "MR",
      "NumberOfAverages": 1.0,
      "NumberOfPhaseEncodingSteps": 100,
      "PercentPhaseFieldOfView": 100.0,
      "PercentSampling": 100.0,
      "PerformedProcedureStepStartTime": "102743.462000",
      "PhotometricInterpretation": "MONOCHROME2",
      "PixelBandwidth": 2380.0,
      "PixelRepresentation": 0,
      "PixelSpacing": [2.0, 2.0],
      "ProtocolName": "bold_100x100_s3_2x2x2_static_156",
      "RepetitionTime": 2000.0,
      "Rows": 900,
      "SAR": 0.08303095084429,
      "SamplesPerPixel": 1,
      "ScanOptions": "FS",
      "ScanningSequence": "EP",
      "SequenceName": "*epfid2d1_100",
      "SequenceVariant": "SK",
      "SeriesDescription": "bold_100x100_s3_2x2x2_static_156",
      "SeriesNumber": 4,
      "SeriesTime": "103733.525000",
      "SliceLocation": -73.268205681097,
      "SliceThickness": 2.0,
      "SmallestImagePixelValue": 0,
      "SoftwareVersions": "syngo MR E11",
      "SpacingBetweenSlices": 2.0000000040561,
      "SpecificCharacterSet": "ISO_IR 100",
      "StudyID": "1",
      "StudyTime": "102743.357000",
      "TransmitCoilName": "Body",
      "VariableFlipAngleFlag": "N",
      "WindowCenterWidthExplanation": "Algo1",
      "dBdt": 0.0},
    "slices": {}
  },
  "time": {
    "samples": {
      "AcquisitionNumber": [1, 2, 3, 4, 5, 6, 7, 8, 9, 10, 11, 12, 13, 14, 15, 16, 17, 18, 19, 20, 21, 22, 23, 24, 25, 26, 27, 28, 29, 30, 31, 32, 33, 34, 35, 36, 37, 38, 39, 40, 41, 42, 43, 44, 45, 46, 47, 48, 49, 50, 51, 52, 53, 54, 55, 56, 57, 58, 59, 60, 61, 62, 63, 64, 65, 66, 67, 68, 69, 70, 71, 72, 73, 74, 75, 76, 77, 78, 79, 80, 81, 82, 83, 84, 85, 86, 87, 88, 89, 90, 91, 92, 93, 94, 95, 96, 97, 98, 99, 100, 101, 102, 103, 104, 105, 106, 107, 108, 109, 110, 111, 112, 113, 114, 115, 116, 117, 118, 119, 120, 121, 122, 123, 124, 125, 126, 127, 128, 129, 130, 131, 132, 133, 134, 135, 136, 137, 138, 139, 140, 141, 142, 143, 144, 145, 146, 147, 148, 149, 150, 151, 152, 153, 154, 155, 156],
      "AcquisitionTime": ["103731.520000", "103733.520000", "103735.520000", "103737.520000", "103739.520000", "103741.520000", "103743.520000", "103745.520000", "103747.520000", "103749.520000", "103751.520000", "103753.520000", "103755.520000", "103757.520000", "103759.520000", "103801.520000", "103803.520000", "103805.520000", "103807.520000", "103809.520000", "103811.520000", "103813.520000", "103815.520000", "103817.520000", "103819.520000", "103821.520000", "103823.520000", "103825.520000", "103827.520000", "103829.520000", "103831.520000", "103833.520000", "103835.520000", "103837.520000", "103839.520000", "103841.520000", "103843.520000", "103845.520000", "103847.520000", "103849.520000", "103851.520000", "103853.520000", "103855.520000", "103857.520000", "103859.520000", "103901.520000", "103903.520000", "103905.520000", "103907.520000", "103909.520000", "103911.520000", "103913.520000", "103915.520000", "103917.520000", "103919.520000", "103921.520000", "103923.520000", "103925.520000", "103927.520000", "103929.520000", "103931.520000", "103933.520000", "103935.520000", "103937.520000", "103939.520000", "103941.520000", "103943.520000", "103945.520000", "103947.520000", "103949.520000", "103951.520000", "103953.520000", "103955.520000", "103957.520000", "103959.520000", "104001.520000", "104003.520000", "104005.520000", "104007.520000", "104009.520000", "104011.520000", "104013.520000", "104015.520000", "104017.520000", "104019.520000", "104021.520000", "104023.520000", "104025.520000", "104027.520000", "104029.520000", "104031.520000", "104033.520000", "104035.520000", "104037.520000", "104039.520000", "104041.520000", "104043.520000", "104045.520000", "104047.520000", "104049.520000", "104051.520000", "104053.520000", "104055.520000", "104057.520000", "104059.520000", "104101.520000", "104103.520000", "104105.520000", "104107.520000", "104109.520000", "104111.520000", "104113.520000", "104115.520000", "104117.520000", "104119.520000", "104121.520000", "104123.520000", "104125.520000", "104127.520000", "104129.520000", "104131.520000", "104133.520000", "104135.520000", "104137.520000", "104139.520000", "104141.520000", "104143.520000", "104145.520000", "104147.520000", "104149.520000", "104151.520000", "104153.520000", "104155.520000", "104157.520000", "104159.520000", "104201.520000", "104203.520000", "104205.520000", "104207.520000", "104209.520000", "104211.520000", "104213.520000", "104215.520000", "104217.520000", "104219.520000", "104221.520000", "104223.520000", "104225.520000", "104227.520000", "104229.520000", "104231.520000", "104233.520000", "104235.520000", "104237.520000", "104239.520000", "104241.520000"],
      "ContentTime": ["103733.529000", "103735.024000", "103737.525000", "103739.024000", "103741.025000", "103743.025000", "103745.025000", "103747.024000", "103749.026000", "103751.024000", "103753.024000", "103755.025000", "103757.024000", "103759.524000", "103801.044000", "103803.024000", "103805.025000", "103807.025000", "103809.024000", "103811.024000", "103813.024000", "103815.024000", "103817.024000", "103819.024000", "103821.024000", "103823.024000", "103825.025000", "103827.024000", "103829.024000", "103831.025000", "103833.025000", "103835.025000", "103837.025000", "103839.025000", "103841.025000", "103843.026000", "103845.024000", "103847.024000", "103849.025000", "103851.024000", "103853.025000", "103855.024000", "103857.024000", "103859.026000", "103901.024000", "103903.024000", "103905.024000", "103907.024000", "103909.024000", "103911.525000", "103913.024000", "103915.025000", "103917.026000", "103919.024000", "103921.025000", "103923.024000", "103925.024000", "103927.024000", "103929.024000", "103931.024000", "103933.024000", "103935.025000", "103937.025000", "103939.024000", "103941.025000", "103943.024000", "103945.025000", "103947.024000", "103949.025000", "103951.026000", "103953.025000", "103955.024000", "103957.024000", "103959.024000", "104001.025000", "104003.025000", "104005.024000", "104007.024000", "104009.526000", "104011.024000", "104013.525000", "104015.024000", "104017.024000", "104019.024000", "104021.024000", "104023.525000", "104025.024000", "104027.025000", "104029.025000", "104031.024000", "104033.025000", "104035.024000", "104037.025000", "104039.024000", "104041.025000", "104043.024000", "104045.025000", "104047.024000", "104049.025000", "104051.025000", "104053.024000", "104055.024000", "104057.024000", "104059.024000", "104101.026000", "104103.026000", "104105.524000", "104107.024000", "104109.024000", "104111.025000", "104113.024000", "104115.024000", "104117.024000", "104119.025000", "104121.024000", "104123.024000", "104125.024000", "104127.024000", "104129.025000", "104131.024000", "104133.025000", "104135.024000", "104137.026000", "104139.025000", "104141.024000", "104143.024000", "104145.024000", "104147.024000", "104149.024000", "104151.024000", "104153.024000", "104155.025000", "104157.024000", "104159.024000", "104201.024000", "104203.024000", "104205.524000", "104207.024000", "104209.025000", "104211.026000", "104213.025000", "104215.024000", "104217.024000", "104219.025000", "104221.025000", "104223.025000", "104225.024000", "104227.024000", "104229.026000", "104231.024000", "104233.025000", "104235.025000", "104237.025000", "104239.025000", "104241.025000", "104242.921000"],
      "InstanceCreationTime": ["103733.529000", "103735.024000", "103737.525000", "103739.024000", "103741.025000", "103743.025000", "103745.025000", "103747.024000", "103749.026000", "103751.024000", "103753.024000", "103755.025000", "103757.024000", "103759.524000", "103801.044000", "103803.024000", "103805.025000", "103807.025000", "103809.024000", "103811.024000", "103813.024000", "103815.024000", "103817.024000", "103819.024000", "103821.024000", "103823.024000", "103825.025000", "103827.024000", "103829.024000", "103831.025000", "103833.025000", "103835.025000", "103837.025000", "103839.025000", "103841.025000", "103843.026000", "103845.024000", "103847.024000", "103849.025000", "103851.024000", "103853.025000", "103855.024000", "103857.024000", "103859.026000", "103901.024000", "103903.024000", "103905.024000", "103907.024000", "103909.024000", "103911.525000", "103913.024000", "103915.025000", "103917.026000", "103919.024000", "103921.025000", "103923.024000", "103925.024000", "103927.024000", "103929.024000", "103931.024000", "103933.024000", "103935.025000", "103937.025000", "103939.024000", "103941.025000", "103943.024000", "103945.025000", "103947.024000", "103949.025000", "103951.026000", "103953.025000", "103955.024000", "103957.024000", "103959.024000", "104001.025000", "104003.025000", "104005.024000", "104007.024000", "104009.526000", "104011.024000", "104013.525000", "104015.024000", "104017.024000", "104019.024000", "104021.024000", "104023.525000", "104025.024000", "104027.025000", "104029.025000", "104031.024000", "104033.025000", "104035.024000", "104037.025000", "104039.024000", "104041.025000", "104043.024000", "104045.025000", "104047.024000", "104049.025000", "104051.025000", "104053.024000", "104055.024000", "104057.024000", "104059.024000", "104101.026000", "104103.026000", "104105.524000", "104107.024000", "104109.024000", "104111.025000", "104113.024000", "104115.024000", "104117.024000", "104119.025000", "104121.024000", "104123.024000", "104125.024000", "104127.024000", "104129.025000", "104131.024000", "104133.025000", "104135.024000", "104137.026000", "104139.025000", "104141.024000", "104143.024000", "104145.024000", "104147.024000", "104149.024000", "104151.024000", "104153.024000", "104155.025000", "104157.024000", "104159.024000", "104201.024000", "104203.024000", "104205.524000", "104207.024000", "104209.025000", "104211.026000", "104213.025000", "104215.024000", "104217.024000", "104219.025000", "104221.025000", "104223.025000", "104225.024000", "104227.024000", "104229.026000", "104231.024000", "104233.025000", "104235.025000", "104237.025000", "104239.025000", "104241.025000", "104242.921000"],
      "InstanceNumber": [1, 2, 3, 4, 5, 6, 7, 8, 9, 10, 11, 12, 13, 14, 15, 16, 17, 18, 19, 20, 21, 22, 23, 24, 25, 26, 27, 28, 29, 30, 31, 32, 33, 34, 35, 36, 37, 38, 39, 40, 41, 42, 43, 44, 45, 46, 47, 48, 49, 50, 51, 52, 53, 54, 55, 56, 57, 58, 59, 60, 61, 62, 63, 64, 65, 66, 67, 68, 69, 70, 71, 72, 73, 74, 75, 76, 77, 78, 79, 80, 81, 82, 83, 84, 85, 86, 87, 88, 89, 90, 91, 92, 93, 94, 95, 96, 97, 98, 99, 100, 101, 102, 103, 104, 105, 106, 107, 108, 109, 110, 111, 112, 113, 114, 115, 116, 117, 118, 119, 120, 121, 122, 123, 124, 125, 126, 127, 128, 129, 130, 131, 132, 133, 134, 135, 136, 137, 138, 139, 140, 141, 142, 143, 144, 145, 146, 147, 148, 149, 150, 151, 152, 153, 154, 155, 156],
      "LargestImagePixelValue": [3512, 3484, 3436, 3443, 3445, 3425, 3455, 3481, 3499, 3509, 3490, 3453, 3478, 3470, 3455, 3453, 3446, 3487, 3492, 3507, 3491, 3489, 3450, 3481, 3465, 3466, 3421, 3441, 3453, 3437, 3406, 3407, 3406, 3399, 3396, 3419, 3412, 3391, 3404, 3419, 3418, 3419, 3406, 3392, 3373, 3403, 3412, 3418, 3421, 3390, 3377, 3362, 3407, 3436, 3394, 3401, 3342, 3369, 3347, 3354, 3358, 3354, 3349, 3365, 3391, 3425, 3413, 3355, 3351, 3317, 3349, 3300, 3338, 3417, 3395, 3377, 3328, 3371, 3328, 3435, 3410, 3375, 3383, 3361, 3341, 3417, 3438, 3447, 3447, 3419, 3377, 3341, 3327, 3396, 3418, 3411, 3426, 3378, 3380, 3416, 3429, 3422, 3455, 3450, 3462, 3453, 3443, 3475, 3484, 3515, 3504, 3509, 3508, 3533, 3546, 3526, 3533, 3509, 3548, 3537, 3545, 3550, 3575, 3537, 3558, 3576, 3570, 3572, 3596, 3578, 3550, 3583, 3584, 3575, 3577, 3599, 3606, 3661, 3631, 3588, 3620, 3604, 3591, 3584, 3619, 3631, 3606, 3638, 3693, 3624, 3610, 3638, 3611, 3628, 3586, 3582],
      "WindowCenter": [768.0, 768.0, 767.0, 767.0, 767.0, 766.0, 767.0, 768.0, 768.0, 767.0, 766.0, 765.0, 765.0, 765.0, 765.0, 765.0, 766.0, 765.0, 764.0, 763.0, 763.0, 762.0, 762.0, 763.0, 763.0, 765.0, 765.0, 764.0, 764.0, 763.0, 763.0, 763.0, 764.0, 764.0, 764.0, 763.0, 764.0, 764.0, 764.0, 763.0, 763.0, 764.0, 764.0, 763.0, 763.0, 763.0, 763.0, 764.0, 764.0, 765.0, 765.0, 765.0, 764.0, 763.0, 763.0, 765.0, 765.0, 765.0, 765.0, 764.0, 765.0, 764.0, 765.0, 765.0, 766.0, 765.0, 764.0, 764.0, 765.0, 765.0, 765.0, 764.0, 765.0, 765.0, 765.0, 764.0, 764.0, 765.0, 765.0, 766.0, 766.0, 766.0, 766.0, 766.0, 766.0, 765.0, 765.0, 765.0, 766.0, 766.0, 766.0, 765.0, 765.0, 766.0, 766.0, 765.0, 767.0, 767.0, 767.0, 767.0, 768.0, 768.0, 768.0, 767.0, 766.0, 766.0, 767.0, 767.0, 767.0, 767.0, 767.0, 768.0, 769.0, 768.0, 767.0, 767.0, 768.0, 768.0, 769.0, 769.0, 769.0, 769.0, 770.0, 769.0, 769.0, 769.0, 768.0, 768.0, 768.0, 768.0, 769.0, 770.0, 770.0, 769.0, 770.0, 770.0, 770.0, 770.0, 771.0, 771.0, 772.0, 771.0, 770.0, 769.0, 770.0, 770.0, 769.0, 769.0, 769.0, 768.0, 769.0, 770.0, 769.0, 770.0, 770.0, 771.0],
      "WindowWidth": [1660.0, 1659.0, 1658.0, 1657.0, 1657.0, 1655.0, 1657.0, 1659.0, 1660.0, 1658.0, 1655.0, 1652.0, 1651.0, 1650.0, 1650.0, 1652.0, 1653.0, 1651.0, 1649.0, 1646.0, 1646.0, 1644.0, 1645.0, 1645.0, 1648.0, 1651.0, 1651.0, 1650.0, 1648.0, 1648.0, 1646.0, 1646.0, 1648.0, 1648.0, 1648.0, 1647.0, 1649.0, 1650.0, 1648.0, 1647.0, 1647.0, 1650.0, 1649.0, 1647.0, 1647.0, 1647.0, 1647.0, 1648.0, 1650.0, 1651.0, 1651.0, 1650.0, 1650.0, 1647.0, 1647.0, 1651.0, 1653.0, 1652.0, 1651.0, 1650.0, 1651.0, 1650.0, 1651.0, 1652.0, 1654.0, 1651.0, 1649.0, 1648.0, 1652.0, 1652.0, 1651.0, 1650.0, 1652.0, 1652.0, 1651.0, 1650.0, 1650.0, 1653.0, 1651.0, 1655.0, 1655.0, 1654.0, 1655.0, 1655.0, 1655.0, 1653.0, 1651.0, 1652.0, 1653.0, 1655.0, 1654.0, 1652.0, 1652.0, 1653.0, 1654.0, 1652.0, 1656.0, 1656.0, 1656.0, 1656.0, 1659.0, 1659.0, 1659.0, 1657.0, 1655.0, 1653.0, 1656.0, 1655.0, 1657.0, 1657.0, 1657.0, 1659.0, 1661.0, 1660.0, 1657.0, 1656.0, 1659.0, 1658.0, 1663.0, 1661.0, 1662.0, 1661.0, 1664.0, 1662.0, 1661.0, 1660.0, 1658.0, 1659.0, 1660.0, 1660.0, 1662.0, 1664.0, 1665.0, 1663.0, 1663.0, 1663.0, 1663.0, 1665.0, 1666.0, 1667.0, 1669.0, 1667.0, 1663.0, 1661.0, 1664.0, 1665.0, 1663.0, 1661.0, 1662.0, 1661.0, 1663.0, 1663.0, 1663.0, 1664.0, 1666.0, 1666.0]
    },
    "slices": {}
  }
}