{
  "AcquisitionMatrixPE": 100,
  "AcquisitionNumber": 1,
  "AcquisitionTime": "15:43:1.920000",
  "BandwidthPerPixelPhaseEncode": 18.519,
  "BaseResolution": 100,
  "BodyPartExamined": "BRAIN",
  "CoilCombinationMethod": "Sum of Squares",
  "ConsistencyInfo": "N4_VE11C_LATEST_20160120",
  "ConversionSoftware": "dcm2niix",
  "ConversionSoftwareVersion": "v1.0.20211006",
  "DerivedVendorReportedEchoSpacing": 0.000539986,
  "DeviceSerialNumber": "166078",
  "DwellTime": 2.1e-06,
  "EchoTime": 0.034,
  "EchoTrainLength": 100,
  "EffectiveEchoSpacing": 0.000539986,
  "FlipAngle": 90,
  "ImageOrientationPatientDICOM": [1, 0, 0, 0, 0.999903, -0.0139622],
  "ImageOrientationText": "Tra>Cor(-0.8)",
  "ImageType": [
    "ORIGINAL",
    "PRIMARY",
    "M",
    "ND",
    "MOSAIC"
],
  "ImagingFrequency": 123.258,
  "InPlanePhaseEncodingDirectionDICOM": "COL",
  "InstitutionAddress": "Street StreetNo,Bei Jing,District,CN,ZIP",
  "InstitutionName": "BeiJing Normal University",
  "InstitutionalDepartmentName": "Department",
  "MRAcquisitionType": "2D",
  "MagneticFieldStrength": 3,
  "Manufacturer": "Siemens",
  "ManufacturersModelName": "Prisma",
  "Modality": "MR",
  "MultibandAccelerationFactor": 3,
  "PartialFourier": 1,
  "PatientPosition": "HFS",
  "PercentPhaseFOV": 100,
  "PercentSampling": 100,
  "PhaseEncodingDirection": "j-",
  "PhaseEncodingSteps": 100,
  "PhaseResolution": 1,
  "PixelBandwidth": 2380,
  "ProcedureStepDescription": "BNU_P2018_64CH^Zhen.ZongLei",
  "ProtocolName": "bold_100x100_s3_2x2x2_static_156",
  "PulseSequenceDetails": "%SiemensSeq%\\ep2d_bold",
  "ReceiveCoilActiveElements": "HC1-7;NC1",
  "ReceiveCoilName": "HeadNeck_64",
  "ReconMatrixPE": 100,
  "RefLinesPE": 32,
  "RepetitionTime": 2,
  "SAR": 0.0796453,
  "ScanOptions": "FS",
  "ScanningSequence": "EP",
  "SequenceName": "*epfid2d1_100",
  "SequenceVariant": "SK",
  "SeriesDescription": "bold_100x100_s3_2x2x2_static_156",
  "SeriesNumber": 3,
  "ShimSetting": [-5469, -11543, -1272, 291, -62, -194, -9, 63],
  "SliceThickness": 2,
  "SliceTiming": [1.485, 0, 0.99, 0.0825, 1.0725, 0.165, 1.155, 0.2475, 1.2375, 0.33, 1.32, 0.4125, 1.4025, 0.5775, 1.5675, 0.66, 1.65, 0.7425, 1.7325, 0.825, 1.815, 0.9075, 1.8975, 0.495, 1.485, 0, 0.99, 0.0825, 1.0725, 0.165, 1.155, 0.2475, 1.2375, 0.33, 1.32, 0.4125, 1.4025, 0.5775, 1.5675, 0.66, 1.65, 0.7425, 1.7325, 0.825, 1.815, 0.9075, 1.8975, 0.495, 1.485, 0, 0.99, 0.0825, 1.0725, 0.165, 1.155, 0.2475, 1.2375, 0.33, 1.32, 0.4125, 1.4025, 0.5775, 1.5675, 0.66, 1.65, 0.7425, 1.7325, 0.825, 1.815, 0.9075, 1.8975, 0.495],
  "SoftwareVersions": "syngo MR E11",
  "SpacingBetweenSlices": 2,
  "StationName": "AWP166078",
  "TaskName": "action",
  "TotalReadoutTime": 0.0534586,
  "TxRefAmp": 213.971,
  "dcmmeta_affine": [
    [-2.0, 0.0, 0.0, 101.3559341430664],
    [0.0, 1.9998050928115845, -0.02792436257004738, -89.20736694335938],
    [0.0, 0.02792436257004738, 1.9998050928115845, -51.13134765625],
    [0.0, 0.0, 0.0, 1.0]
],
  "dcmmeta_reorient_transform": [
    [0.0, -1.0, 0.0, 99.0],
    [1.0, 0.0, 0.0, 0.0],
    [0.0, 0.0, 1.0, 0.0],
    [0.0, 0.0, 0.0, 1.0]
],
  "dcmmeta_shape": [100, 100, 72, 156],
  "dcmmeta_slice_dim": 2,
  "dcmmeta_version": 0.6,
  "global": {
    "const": {
      "AcquisitionMatrix": [100, 0, 0, 100],
      "AngioFlag": "N",
      "BitsAllocated": 16,
      "BitsStored": 12,
      "BodyPartExamined": "BRAIN",
      "Columns": 900,
      "EchoNumbers": 1,
      "EchoTime": 34.0,
      "EchoTrainLength": 100,
      "FlipAngle": 90.0,
      "HighBit": 11,
      "ImageOrientationPatient": [1.0, 0.0, 0.0, 0.0, 0.99990252399856, -0.0139621811089],
      "ImagePositionPatient": [-901.35593223572, -908.69535360707, -37.197090896012],
      "ImageType": [
        "ORIGINAL",
        "PRIMARY",
        "M",
        "ND",
        "MOSAIC"
],
      "ImagedNucleus": "1H",
      "ImagingFrequency": 123.257713,
      "InPlanePhaseEncodingDirection": "COL",
      "MRAcquisitionType": "2D",
      "MagneticFieldStrength": 3.0,
      "Manufacturer": "SIEMENS",
      "ManufacturerModelName": "Prisma",
      "Modality": "MR",
      "NumberOfAverages": 1.0,
      "NumberOfPhaseEncodingSteps": 100,
      "PercentPhaseFieldOfView": 100.0,
      "PercentSampling": 100.0,
      "PerformedProcedureStepStartTime": "153942.174000",
      "PhotometricInterpretation": "MONOCHROME2",
      "PixelBandwidth": 2380.0,
      "PixelRepresentation": 0,
      "PixelSpacing": [2.0, 2.0],
      "ProtocolName": "bold_100x100_s3_2x2x2_static_156",
      "RepetitionTime": 2000.0,
      "Rows": 900,
      "SAR": 0.07964531459085,
      "SamplesPerPixel": 1,
      "ScanOptions": "FS",
      "ScanningSequence": "EP",
      "SequenceName": "*epfid2d1_100",
      "SequenceVariant": "SK",
      "SeriesDescription": "bold_100x100_s3_2x2x2_static_156",
      "SeriesNumber": 3,
      "SeriesTime": "154305.204000",
      "SliceLocation": -49.880834172225,
      "SliceThickness": 2.0,
      "SmallestImagePixelValue": 0,
      "SoftwareVersions": "syngo MR E11",
      "SpacingBetweenSlices": 2.0000000262606,
      "SpecificCharacterSet": "ISO_IR 100",
      "StudyID": "1",
      "StudyTime": "153942.074000",
      "TransmitCoilName": "Body",
      "VariableFlipAngleFlag": "N",
      "WindowCenterWidthExplanation": "Algo1",
      "dBdt": 0.0},
    "slices": {}
  },
  "time": {
    "samples": {
      "AcquisitionNumber": [1, 2, 3, 4, 5, 6, 7, 8, 9, 10, 11, 12, 13, 14, 15, 16, 17, 18, 19, 20, 21, 22, 23, 24, 25, 26, 27, 28, 29, 30, 31, 32, 33, 34, 35, 36, 37, 38, 39, 40, 41, 42, 43, 44, 45, 46, 47, 48, 49, 50, 51, 52, 53, 54, 55, 56, 57, 58, 59, 60, 61, 62, 63, 64, 65, 66, 67, 68, 69, 70, 71, 72, 73, 74, 75, 76, 77, 78, 79, 80, 81, 82, 83, 84, 85, 86, 87, 88, 89, 90, 91, 92, 93, 94, 95, 96, 97, 98, 99, 100, 101, 102, 103, 104, 105, 106, 107, 108, 109, 110, 111, 112, 113, 114, 115, 116, 117, 118, 119, 120, 121, 122, 123, 124, 125, 126, 127, 128, 129, 130, 131, 132, 133, 134, 135, 136, 137, 138, 139, 140, 141, 142, 143, 144, 145, 146, 147, 148, 149, 150, 151, 152, 153, 154, 155, 156],
      "AcquisitionTime": ["154301.920000", "154303.920000", "154305.920000", "154307.920000", "154309.920000", "154311.920000", "154313.920000", "154315.920000", "154317.920000", "154319.920000", "154321.920000", "154323.920000", "154325.920000", "154327.920000", "154329.920000", "154331.920000", "154333.920000", "154335.920000", "154337.920000", "154339.920000", "154341.920000", "154343.920000", "154345.920000", "154347.920000", "154349.920000", "154351.920000", "154353.920000", "154355.920000", "154357.920000", "154359.920000", "154401.920000", "154403.920000", "154405.920000", "154407.920000", "154409.920000", "154411.920000", "154413.920000", "154415.920000", "154417.920000", "154419.920000", "154421.920000", "154423.920000", "154425.920000", "154427.920000", "154429.920000", "154431.920000", "154433.920000", "154435.920000", "154437.920000", "154439.920000", "154441.920000", "154443.920000", "154445.920000", "154447.920000", "154449.920000", "154451.920000", "154453.920000", "154455.920000", "154457.920000", "154459.920000", "154501.920000", "154503.920000", "154505.920000", "154507.920000", "154509.920000", "154511.920000", "154513.920000", "154515.920000", "154517.920000", "154519.920000", "154521.920000", "154523.920000", "154525.920000", "154527.920000", "154529.920000", "154531.920000", "154533.920000", "154535.920000", "154537.920000", "154539.920000", "154541.920000", "154543.920000", "154545.920000", "154547.920000", "154549.920000", "154551.920000", "154553.920000", "154555.920000", "154557.920000", "154559.920000", "154601.920000", "154603.920000", "154605.920000", "154607.920000", "154609.920000", "154611.920000", "154613.920000", "154615.920000", "154617.920000", "154619.920000", "154621.920000", "154623.920000", "154625.920000", "154627.920000", "154629.920000", "154631.920000", "154633.920000", "154635.920000", "154637.920000", "154639.920000", "154641.920000", "154643.920000", "154645.920000", "154647.920000", "154649.920000", "154651.920000", "154653.920000", "154655.920000", "154657.920000", "154659.920000", "154701.920000", "154703.920000", "154705.920000", "154707.920000", "154709.920000", "154711.920000", "154713.920000", "154715.920000", "154717.920000", "154719.920000", "154721.920000", "154723.920000", "154725.920000", "154727.920000", "154729.920000", "154731.920000", "154733.920000", "154735.920000", "154737.920000", "154739.920000", "154741.920000", "154743.920000", "154745.920000", "154747.920000", "154749.920000", "154751.920000", "154753.920000", "154755.920000", "154757.920000", "154759.920000", "154801.920000", "154803.920000", "154805.920000", "154807.920000", "154809.920000", "154811.920000"],
      "ContentTime": ["154305.207000", "154306.202000", "154308.202000", "154310.202000", "154312.203000", "154314.203000", "154316.203000", "154318.203000", "154320.202000", "154322.203000", "154324.203000", "154326.202000", "154328.202000", "154330.205000", "154332.203000", "154334.202000", "154336.202000", "154338.202000", "154340.203000", "154342.202000", "154344.202000", "154346.203000", "154348.203000", "154350.202000", "154352.202000", "154354.202000", "154356.202000", "154358.202000", "154400.203000", "154402.202000", "154404.203000", "154406.203000", "154408.202000", "154410.202000", "154412.202000", "154414.202000", "154416.203000", "154418.202000", "154420.203000", "154422.204000", "154424.204000", "154426.203000", "154428.202000", "154430.203000", "154432.202000", "154434.202000", "154436.202000", "154438.202000", "154440.204000", "154442.202000", "154444.202000", "154446.202000", "154448.203000", "154450.202000", "154452.203000", "154454.202000", "154456.202000", "154458.203000", "154500.203000", "154502.202000", "154504.202000", "154506.202000", "154508.202000", "154510.202000", "154512.203000", "154514.204000", "154516.203000", "154518.202000", "154520.202000", "154522.203000", "154524.202000", "154526.202000", "154528.202000", "154530.203000", "154532.203000", "154534.203000", "154536.202000", "154538.202000", "154540.203000", "154542.203000", "154544.202000", "154546.202000", "154548.203000", "154550.204000", "154552.202000", "154554.203000", "154556.202000", "154558.203000", "154600.203000", "154602.203000", "154604.202000", "154606.203000", "154608.203000", "154610.203000", "154612.203000", "154614.202000", "154616.202000", "154618.202000", "154620.202000", "154622.203000", "154624.203000", "154626.204000", "154628.203000", "154630.202000", "154632.202000", "154634.202000", "154636.202000", "154638.202000", "154640.203000", "154642.203000", "154644.203000", "154646.202000", "154648.202000", "154650.202000", "154652.202000", "154654.202000", "154656.703000", "154658.202000", "154700.203000", "154702.202000", "154704.202000", "154706.202000", "154708.203000", "154710.202000", "154712.202000", "154714.202000", "154716.203000", "154718.203000", "154720.203000", "154722.203000", "154724.202000", "154726.203000", "154728.203000", "154730.203000", "154732.202000", "154734.204000", "154736.204000", "154738.202000", "154740.203000", "154742.202000", "154744.202000", "154746.203000", "154748.203000", "154750.202000", "154752.204000", "154754.203000", "154756.203000", "154758.202000", "154800.203000", "154802.203000", "154804.202000", "154806.202000", "154808.202000", "154810.204000", "154812.203000", "154814.059000"],
      "InstanceCreationTime": ["154305.207000", "154306.202000", "154308.202000", "154310.202000", "154312.203000", "154314.203000", "154316.203000", "154318.203000", "154320.202000", "154322.203000", "154324.203000", "154326.202000", "154328.202000", "154330.205000", "154332.203000", "154334.202000", "154336.202000", "154338.202000", "154340.203000", "154342.202000", "154344.202000", "154346.203000", "154348.203000", "154350.202000", "154352.202000", "154354.202000", "154356.202000", "154358.202000", "154400.203000", "154402.202000", "154404.203000", "154406.203000", "154408.202000", "154410.202000", "154412.202000", "154414.202000", "154416.203000", "154418.202000", "154420.203000", "154422.204000", "154424.204000", "154426.203000", "154428.202000", "154430.203000", "154432.202000", "154434.202000", "154436.202000", "154438.202000", "154440.204000", "154442.202000", "154444.202000", "154446.202000", "154448.203000", "154450.202000", "154452.203000", "154454.202000", "154456.202000", "154458.203000", "154500.203000", "154502.202000", "154504.202000", "154506.202000", "154508.202000", "154510.202000", "154512.203000", "154514.204000", "154516.203000", "154518.202000", "154520.202000", "154522.203000", "154524.202000", "154526.202000", "154528.202000", "154530.203000", "154532.203000", "154534.203000", "154536.202000", "154538.202000", "154540.203000", "154542.203000", "154544.202000", "154546.202000", "154548.203000", "154550.204000", "154552.202000", "154554.203000", "154556.202000", "154558.203000", "154600.203000", "154602.203000", "154604.202000", "154606.203000", "154608.203000", "154610.203000", "154612.203000", "154614.202000", "154616.202000", "154618.202000", "154620.202000", "154622.203000", "154624.203000", "154626.204000", "154628.203000", "154630.202000", "154632.202000", "154634.202000", "154636.202000", "154638.202000", "154640.203000", "154642.203000", "154644.203000", "154646.202000", "154648.202000", "154650.202000", "154652.202000", "154654.202000", "154656.703000", "154658.202000", "154700.203000", "154702.202000", "154704.202000", "154706.202000", "154708.203000", "154710.202000", "154712.202000", "154714.202000", "154716.203000", "154718.203000", "154720.203000", "154722.203000", "154724.202000", "154726.203000", "154728.203000", "154730.203000", "154732.202000", "154734.204000", "154736.204000", "154738.202000", "154740.203000", "154742.202000", "154744.202000", "154746.203000", "154748.203000", "154750.202000", "154752.204000", "154754.203000", "154756.203000", "154758.202000", "154800.203000", "154802.203000", "154804.202000", "154806.202000", "154808.202000", "154810.204000", "154812.203000", "154814.059000"],
      "InstanceNumber": [1, 2, 3, 4, 5, 6, 7, 8, 9, 10, 11, 12, 13, 14, 15, 16, 17, 18, 19, 20, 21, 22, 23, 24, 25, 26, 27, 28, 29, 30, 31, 32, 33, 34, 35, 36, 37, 38, 39, 40, 41, 42, 43, 44, 45, 46, 47, 48, 49, 50, 51, 52, 53, 54, 55, 56, 57, 58, 59, 60, 61, 62, 63, 64, 65, 66, 67, 68, 69, 70, 71, 72, 73, 74, 75, 76, 77, 78, 79, 80, 81, 82, 83, 84, 85, 86, 87, 88, 89, 90, 91, 92, 93, 94, 95, 96, 97, 98, 99, 100, 101, 102, 103, 104, 105, 106, 107, 108, 109, 110, 111, 112, 113, 114, 115, 116, 117, 118, 119, 120, 121, 122, 123, 124, 125, 126, 127, 128, 129, 130, 131, 132, 133, 134, 135, 136, 137, 138, 139, 140, 141, 142, 143, 144, 145, 146, 147, 148, 149, 150, 151, 152, 153, 154, 155, 156],
      "LargestImagePixelValue": [2492, 2492, 2444, 2464, 2467, 2481, 2453, 2466, 2456, 2455, 2498, 2448, 2489, 2455, 2431, 2475, 2446, 2453, 2450, 2476, 2439, 2469, 2462, 2457, 2454, 2443, 2463, 2454, 2471, 2441, 2441, 2463, 2456, 2432, 2472, 2458, 2470, 2463, 2438, 2438, 2439, 2464, 2440, 2434, 2466, 2470, 2447, 2447, 2485, 2476, 2492, 2455, 2468, 2469, 2485, 2487, 2474, 2491, 2505, 2474, 2466, 2461, 2460, 2465, 2489, 2456, 2448, 2485, 2468, 2427, 2459, 2462, 2421, 2462, 2458, 2438, 2461, 2450, 2427, 2455, 2442, 2426, 2476, 2491, 2412, 2480, 2477, 2452, 2433, 2442, 2438, 2472, 2434, 2498, 2459, 2417, 2437, 2474, 2432, 2423, 2420, 2440, 2436, 2448, 2430, 2428, 2553, 2524, 2550, 2523, 2471, 2512, 2500, 2482, 2491, 2478, 2477, 2518, 2483, 2456, 2464, 2465, 2489, 2471, 2467, 2448, 2469, 2451, 2488, 2476, 2477, 2463, 2434, 2431, 2468, 2464, 2448, 2443, 2435, 2445, 2441, 2475, 2459, 2427, 2434, 2446, 2463, 2408, 2432, 2430, 2405, 2420, 2412, 2440, 2430, 2427],
      "WindowCenter": [722.0, 722.0, 721.0, 721.0, 721.0, 721.0, 721.0, 723.0, 725.0, 725.0, 724.0, 722.0, 723.0, 722.0, 722.0, 723.0, 721.0, 722.0, 721.0, 722.0, 722.0, 723.0, 722.0, 722.0, 722.0, 721.0, 722.0, 722.0, 722.0, 721.0, 721.0, 722.0, 722.0, 721.0, 722.0, 722.0, 722.0, 721.0, 720.0, 721.0, 721.0, 721.0, 721.0, 721.0, 721.0, 721.0, 722.0, 722.0, 722.0, 721.0, 722.0, 722.0, 723.0, 722.0, 721.0, 721.0, 722.0, 721.0, 721.0, 724.0, 723.0, 722.0, 721.0, 720.0, 721.0, 721.0, 720.0, 720.0, 720.0, 720.0, 721.0, 720.0, 720.0, 720.0, 720.0, 721.0, 721.0, 721.0, 719.0, 719.0, 720.0, 722.0, 723.0, 722.0, 719.0, 723.0, 724.0, 722.0, 720.0, 721.0, 720.0, 721.0, 721.0, 722.0, 721.0, 721.0, 721.0, 722.0, 722.0, 721.0, 721.0, 721.0, 721.0, 721.0, 722.0, 721.0, 723.0, 722.0, 723.0, 723.0, 722.0, 723.0, 722.0, 721.0, 722.0, 722.0, 723.0, 724.0, 722.0, 722.0, 722.0, 722.0, 723.0, 723.0, 722.0, 721.0, 721.0, 721.0, 722.0, 723.0, 723.0, 722.0, 722.0, 722.0, 723.0, 724.0, 723.0, 722.0, 720.0, 720.0, 721.0, 726.0, 726.0, 723.0, 722.0, 721.0, 721.0, 721.0, 722.0, 722.0, 720.0, 721.0, 721.0, 722.0, 722.0, 721.0],
      "WindowWidth": [1531.0, 1530.0, 1527.0, 1528.0, 1526.0, 1528.0, 1529.0, 1533.0, 1538.0, 1538.0, 1535.0, 1531.0, 1532.0, 1531.0, 1531.0, 1532.0, 1529.0, 1529.0, 1528.0, 1531.0, 1530.0, 1532.0, 1531.0, 1531.0, 1529.0, 1528.0, 1530.0, 1531.0, 1531.0, 1529.0, 1529.0, 1531.0, 1531.0, 1528.0, 1530.0, 1530.0, 1530.0, 1529.0, 1526.0, 1528.0, 1527.0, 1528.0, 1527.0, 1528.0, 1528.0, 1527.0, 1531.0, 1529.0, 1529.0, 1527.0, 1530.0, 1529.0, 1532.0, 1530.0, 1526.0, 1527.0, 1530.0, 1527.0, 1528.0, 1535.0, 1533.0, 1530.0, 1526.0, 1525.0, 1527.0, 1527.0, 1526.0, 1525.0, 1526.0, 1524.0, 1528.0, 1526.0, 1525.0, 1526.0, 1526.0, 1527.0, 1528.0, 1528.0, 1521.0, 1524.0, 1526.0, 1529.0, 1533.0, 1531.0, 1523.0, 1533.0, 1534.0, 1529.0, 1525.0, 1528.0, 1524.0, 1526.0, 1527.0, 1530.0, 1528.0, 1527.0, 1528.0, 1531.0, 1530.0, 1528.0, 1528.0, 1527.0, 1527.0, 1528.0, 1531.0, 1528.0, 1531.0, 1529.0, 1533.0, 1533.0, 1530.0, 1531.0, 1529.0, 1528.0, 1528.0, 1530.0, 1533.0, 1534.0, 1530.0, 1528.0, 1528.0, 1530.0, 1533.0, 1532.0, 1530.0, 1527.0, 1526.0, 1527.0, 1529.0, 1531.0, 1533.0, 1529.0, 1529.0, 1530.0, 1533.0, 1534.0, 1531.0, 1529.0, 1525.0, 1524.0, 1527.0, 1539.0, 1540.0, 1533.0, 1529.0, 1528.0, 1528.0, 1527.0, 1529.0, 1530.0, 1526.0, 1526.0, 1527.0, 1529.0, 1530.0, 1528.0]
    },
    "slices": {}
  }
}