{
  "AcquisitionMatrixPE": 100,
  "AcquisitionNumber": 1,
  "AcquisitionTime": "16:47:12.322500",
  "BandwidthPerPixelPhaseEncode": 18.519,
  "BaseResolution": 100,
  "BodyPartExamined": "BRAIN",
  "CoilCombinationMethod": "Sum of Squares",
  "ConsistencyInfo": "N4_VE11C_LATEST_20160120",
  "ConversionSoftware": "dcm2niix",
  "ConversionSoftwareVersion": "v1.0.20211006",
  "DerivedVendorReportedEchoSpacing": 0.000539986,
  "DeviceSerialNumber": "166078",
  "DwellTime": 2.1e-06,
  "EchoTime": 0.034,
  "EchoTrainLength": 100,
  "EffectiveEchoSpacing": 0.000539986,
  "FlipAngle": 90,
  "ImageOrientationPatientDICOM": [1, 0, 0, 0, 0.999903, -0.0139622],
  "ImageOrientationText": "Tra>Cor(-0.8)",
  "ImageType": [
    "ORIGINAL",
    "PRIMARY",
    "M",
    "ND",
    "MOSAIC"
],
  "ImagingFrequency": 123.258,
  "InPlanePhaseEncodingDirectionDICOM": "COL",
  "InstitutionAddress": "Street StreetNo,Bei Jing,District,CN,ZIP",
  "InstitutionName": "BeiJing Normal University",
  "InstitutionalDepartmentName": "Department",
  "MRAcquisitionType": "2D",
  "MagneticFieldStrength": 3,
  "Manufacturer": "Siemens",
  "ManufacturersModelName": "Prisma",
  "Modality": "MR",
  "MultibandAccelerationFactor": 3,
  "PartialFourier": 1,
  "PatientPosition": "HFS",
  "PercentPhaseFOV": 100,
  "PercentSampling": 100,
  "PhaseEncodingDirection": "j-",
  "PhaseEncodingSteps": 100,
  "PhaseResolution": 1,
  "PixelBandwidth": 2380,
  "ProcedureStepDescription": "BNU_P2018_64CH^Zhen.ZongLei",
  "ProtocolName": "bold_100x100_s3_2x2x2_static_156",
  "PulseSequenceDetails": "%SiemensSeq%\\ep2d_bold",
  "ReceiveCoilActiveElements": "HC1-7;NC1",
  "ReceiveCoilName": "HeadNeck_64",
  "ReconMatrixPE": 100,
  "RefLinesPE": 32,
  "RepetitionTime": 2,
  "SAR": 0.0796453,
  "ScanOptions": "FS",
  "ScanningSequence": "EP",
  "SequenceName": "*epfid2d1_100",
  "SequenceVariant": "SK",
  "SeriesDescription": "bold_100x100_s3_2x2x2_static_156",
  "SeriesNumber": 15,
  "ShimSetting": [-5469, -11543, -1272, 291, -62, -194, -9, 63],
  "SliceThickness": 2,
  "SliceTiming": [1.485, 0, 0.99, 0.0825, 1.0725, 0.165, 1.155, 0.2475, 1.2375, 0.33, 1.32, 0.4125, 1.4025, 0.5775, 1.5675, 0.66, 1.65, 0.7425, 1.7325, 0.825, 1.815, 0.9075, 1.8975, 0.495, 1.485, 0, 0.99, 0.0825, 1.0725, 0.165, 1.155, 0.2475, 1.2375, 0.33, 1.32, 0.4125, 1.4025, 0.5775, 1.5675, 0.66, 1.65, 0.7425, 1.7325, 0.825, 1.815, 0.9075, 1.8975, 0.495, 1.485, 0, 0.99, 0.0825, 1.0725, 0.165, 1.155, 0.2475, 1.2375, 0.33, 1.32, 0.4125, 1.4025, 0.5775, 1.5675, 0.66, 1.65, 0.7425, 1.7325, 0.825, 1.815, 0.9075, 1.8975, 0.495],
  "SoftwareVersions": "syngo MR E11",
  "SpacingBetweenSlices": 2,
  "StationName": "AWP166078",
  "TaskName": "action",
  "TotalReadoutTime": 0.0534586,
  "TxRefAmp": 213.971,
  "dcmmeta_affine": [
    [-2.0, 0.0, 0.0, 101.3559341430664],
    [0.0, 1.9998050928115845, -0.02792436257004738, -89.20736694335938],
    [0.0, 0.02792436257004738, 1.9998050928115845, -51.13134765625],
    [0.0, 0.0, 0.0, 1.0]
],
  "dcmmeta_reorient_transform": [
    [0.0, -1.0, 0.0, 99.0],
    [1.0, 0.0, 0.0, 0.0],
    [0.0, 0.0, 1.0, 0.0],
    [0.0, 0.0, 0.0, 1.0]
],
  "dcmmeta_shape": [100, 100, 72, 156],
  "dcmmeta_slice_dim": 2,
  "dcmmeta_version": 0.6,
  "global": {
    "const": {
      "AcquisitionMatrix": [100, 0, 0, 100],
      "AngioFlag": "N",
      "BitsAllocated": 16,
      "BitsStored": 12,
      "BodyPartExamined": "BRAIN",
      "Columns": 900,
      "EchoNumbers": 1,
      "EchoTime": 34.0,
      "EchoTrainLength": 100,
      "FlipAngle": 90.0,
      "HighBit": 11,
      "ImageOrientationPatient": [1.0, 0.0, 0.0, 0.0, 0.99990252399856, -0.0139621811089],
      "ImagePositionPatient": [-901.35593223572, -908.69535360707, -37.197090896012],
      "ImageType": [
        "ORIGINAL",
        "PRIMARY",
        "M",
        "ND",
        "MOSAIC"
],
      "ImagedNucleus": "1H",
      "ImagingFrequency": 123.257722,
      "InPlanePhaseEncodingDirection": "COL",
      "MRAcquisitionType": "2D",
      "MagneticFieldStrength": 3.0,
      "Manufacturer": "SIEMENS",
      "ManufacturerModelName": "Prisma",
      "Modality": "MR",
      "NumberOfAverages": 1.0,
      "NumberOfPhaseEncodingSteps": 100,
      "PercentPhaseFieldOfView": 100.0,
      "PercentSampling": 100.0,
      "PerformedProcedureStepStartTime": "153942.174000",
      "PhotometricInterpretation": "MONOCHROME2",
      "PixelBandwidth": 2380.0,
      "PixelRepresentation": 0,
      "PixelSpacing": [2.0, 2.0],
      "ProtocolName": "bold_100x100_s3_2x2x2_static_156",
      "RepetitionTime": 2000.0,
      "Rows": 900,
      "SAR": 0.07964531459085,
      "SamplesPerPixel": 1,
      "ScanOptions": "FS",
      "ScanningSequence": "EP",
      "SequenceName": "*epfid2d1_100",
      "SequenceVariant": "SK",
      "SeriesDescription": "bold_100x100_s3_2x2x2_static_156",
      "SeriesNumber": 15,
      "SeriesTime": "164714.661000",
      "SliceLocation": -49.880834172225,
      "SliceThickness": 2.0,
      "SmallestImagePixelValue": 0,
      "SoftwareVersions": "syngo MR E11",
      "SpacingBetweenSlices": 2.0000000262606,
      "SpecificCharacterSet": "ISO_IR 100",
      "StudyID": "1",
      "StudyTime": "153942.074000",
      "TransmitCoilName": "Body",
      "VariableFlipAngleFlag": "N",
      "WindowCenterWidthExplanation": "Algo1",
      "dBdt": 0.0},
    "slices": {}
  },
  "time": {
    "samples": {
      "AcquisitionNumber": [1, 2, 3, 4, 5, 6, 7, 8, 9, 10, 11, 12, 13, 14, 15, 16, 17, 18, 19, 20, 21, 22, 23, 24, 25, 26, 27, 28, 29, 30, 31, 32, 33, 34, 35, 36, 37, 38, 39, 40, 41, 42, 43, 44, 45, 46, 47, 48, 49, 50, 51, 52, 53, 54, 55, 56, 57, 58, 59, 60, 61, 62, 63, 64, 65, 66, 67, 68, 69, 70, 71, 72, 73, 74, 75, 76, 77, 78, 79, 80, 81, 82, 83, 84, 85, 86, 87, 88, 89, 90, 91, 92, 93, 94, 95, 96, 97, 98, 99, 100, 101, 102, 103, 104, 105, 106, 107, 108, 109, 110, 111, 112, 113, 114, 115, 116, 117, 118, 119, 120, 121, 122, 123, 124, 125, 126, 127, 128, 129, 130, 131, 132, 133, 134, 135, 136, 137, 138, 139, 140, 141, 142, 143, 144, 145, 146, 147, 148, 149, 150, 151, 152, 153, 154, 155, 156],
      "AcquisitionTime": ["164712.322500", "164714.322500", "164716.322500", "164718.322500", "164720.322500", "164722.322500", "164724.322500", "164726.322500", "164728.322500", "164730.322500", "164732.322500", "164734.322500", "164736.322500", "164738.322500", "164740.322500", "164742.322500", "164744.322500", "164746.322500", "164748.322500", "164750.322500", "164752.322500", "164754.322500", "164756.322500", "164758.322500", "164800.322500", "164802.322500", "164804.322500", "164806.322500", "164808.322500", "164810.322500", "164812.322500", "164814.322500", "164816.322500", "164818.322500", "164820.322500", "164822.322500", "164824.322500", "164826.322500", "164828.322500", "164830.322500", "164832.322500", "164834.322500", "164836.322500", "164838.322500", "164840.322500", "164842.322500", "164844.322500", "164846.322500", "164848.322500", "164850.322500", "164852.322500", "164854.322500", "164856.322500", "164858.322500", "164900.322500", "164902.322500", "164904.322500", "164906.322500", "164908.322500", "164910.322500", "164912.322500", "164914.322500", "164916.322500", "164918.322500", "164920.322500", "164922.322500", "164924.322500", "164926.322500", "164928.322500", "164930.322500", "164932.322500", "164934.322500", "164936.322500", "164938.322500", "164940.322500", "164942.322500", "164944.322500", "164946.322500", "164948.322500", "164950.322500", "164952.322500", "164954.322500", "164956.322500", "164958.322500", "165000.322500", "165002.322500", "165004.322500", "165006.322500", "165008.322500", "165010.322500", "165012.322500", "165014.322500", "165016.322500", "165018.322500", "165020.322500", "165022.322500", "165024.322500", "165026.322500", "165028.322500", "165030.322500", "165032.322500", "165034.322500", "165036.322500", "165038.322500", "165040.322500", "165042.322500", "165044.322500", "165046.322500", "165048.322500", "165050.322500", "165052.322500", "165054.322500", "165056.322500", "165058.322500", "165100.322500", "165102.322500", "165104.322500", "165106.322500", "165108.322500", "165110.322500", "165112.322500", "165114.322500", "165116.322500", "165118.322500", "165120.322500", "165122.322500", "165124.322500", "165126.322500", "165128.322500", "165130.322500", "165132.322500", "165134.322500", "165136.322500", "165138.322500", "165140.322500", "165142.322500", "165144.322500", "165146.322500", "165148.322500", "165150.322500", "165152.322500", "165154.322500", "165156.322500", "165158.322500", "165200.322500", "165202.322500", "165204.322500", "165206.322500", "165208.322500", "165210.322500", "165212.322500", "165214.322500", "165216.322500", "165218.322500", "165220.322500", "165222.322500"],
      "ContentTime": ["164714.665000", "164716.161000", "164718.161000", "164720.161000", "164722.162000", "164724.162000", "164726.161000", "164728.161000", "164730.160000", "164732.161000", "164734.160000", "164736.161000", "164738.161000", "164740.161000", "164742.162000", "164744.161000", "164746.161000", "164748.161000", "164750.160000", "164752.161000", "164754.161000", "164756.162000", "164758.161000", "164800.160000", "164802.160000", "164804.161000", "164806.160000", "164808.161000", "164810.161000", "164812.162000", "164814.161000", "164816.161000", "164818.161000", "164820.160000", "164822.160000", "164824.160000", "164826.161000", "164828.161000", "164830.162000", "164832.162000", "164834.161000", "164836.161000", "164838.160000", "164840.161000", "164842.161000", "164844.160000", "164846.162000", "164848.162000", "164850.162000", "164852.161000", "164854.160000", "164856.160000", "164858.160000", "164900.160000", "164902.161000", "164904.162000", "164906.161000", "164908.162000", "164910.160000", "164912.160000", "164914.160000", "164916.160000", "164918.161000", "164920.161000", "164922.161000", "164924.161000", "164926.162000", "164928.161000", "164930.161000", "164932.161000", "164934.161000", "164936.161000", "164938.161000", "164940.162000", "164942.161000", "164944.161000", "164946.161000", "164948.161000", "164950.160000", "164952.161000", "164954.160000", "164956.161000", "164958.161000", "165000.162000", "165002.161000", "165004.161000", "165006.160000", "165008.161000", "165010.161000", "165012.161000", "165014.161000", "165016.161000", "165018.162000", "165020.160000", "165022.160000", "165024.160000", "165026.160000", "165028.160000", "165030.161000", "165032.161000", "165034.161000", "165036.162000", "165038.160000", "165040.161000", "165042.161000", "165044.161000", "165046.161000", "165048.162000", "165050.162000", "165052.161000", "165054.161000", "165056.161000", "165058.160000", "165100.160000", "165102.160000", "165104.161000", "165106.161000", "165108.162000", "165110.161000", "165112.162000", "165114.160000", "165116.160000", "165118.160000", "165120.160000", "165122.161000", "165124.161000", "165126.162000", "165128.162000", "165130.161000", "165132.160000", "165134.161000", "165136.160000", "165138.160000", "165140.160000", "165142.161000", "165144.161000", "165146.161000", "165148.160000", "165150.160000", "165152.161000", "165154.160000", "165156.161000", "165158.161000", "165200.161000", "165202.161000", "165204.161000", "165206.160000", "165208.160000", "165210.161000", "165212.161000", "165214.161000", "165216.162000", "165218.162000", "165220.161000", "165222.161000", "165224.019000"],
      "InstanceCreationTime": ["164714.665000", "164716.161000", "164718.161000", "164720.161000", "164722.162000", "164724.162000", "164726.161000", "164728.161000", "164730.160000", "164732.161000", "164734.160000", "164736.161000", "164738.161000", "164740.161000", "164742.162000", "164744.161000", "164746.161000", "164748.161000", "164750.160000", "164752.161000", "164754.161000", "164756.162000", "164758.161000", "164800.160000", "164802.160000", "164804.161000", "164806.160000", "164808.161000", "164810.161000", "164812.162000", "164814.161000", "164816.161000", "164818.161000", "164820.160000", "164822.160000", "164824.160000", "164826.161000", "164828.161000", "164830.162000", "164832.162000", "164834.161000", "164836.161000", "164838.160000", "164840.161000", "164842.161000", "164844.160000", "164846.162000", "164848.162000", "164850.162000", "164852.161000", "164854.160000", "164856.160000", "164858.160000", "164900.160000", "164902.161000", "164904.162000", "164906.161000", "164908.162000", "164910.160000", "164912.160000", "164914.160000", "164916.160000", "164918.161000", "164920.161000", "164922.161000", "164924.161000", "164926.162000", "164928.161000", "164930.161000", "164932.161000", "164934.161000", "164936.161000", "164938.161000", "164940.162000", "164942.161000", "164944.161000", "164946.161000", "164948.161000", "164950.160000", "164952.161000", "164954.160000", "164956.161000", "164958.161000", "165000.162000", "165002.161000", "165004.161000", "165006.160000", "165008.161000", "165010.161000", "165012.161000", "165014.161000", "165016.161000", "165018.162000", "165020.160000", "165022.160000", "165024.160000", "165026.160000", "165028.160000", "165030.161000", "165032.161000", "165034.161000", "165036.162000", "165038.160000", "165040.161000", "165042.161000", "165044.161000", "165046.161000", "165048.162000", "165050.162000", "165052.161000", "165054.161000", "165056.161000", "165058.160000", "165100.160000", "165102.160000", "165104.161000", "165106.161000", "165108.162000", "165110.161000", "165112.162000", "165114.160000", "165116.160000", "165118.160000", "165120.160000", "165122.161000", "165124.161000", "165126.162000", "165128.162000", "165130.161000", "165132.160000", "165134.161000", "165136.160000", "165138.160000", "165140.160000", "165142.161000", "165144.161000", "165146.161000", "165148.160000", "165150.160000", "165152.161000", "165154.160000", "165156.161000", "165158.161000", "165200.161000", "165202.161000", "165204.161000", "165206.160000", "165208.160000", "165210.161000", "165212.161000", "165214.161000", "165216.162000", "165218.162000", "165220.161000", "165222.161000", "165224.019000"],
      "InstanceNumber": [1, 2, 3, 4, 5, 6, 7, 8, 9, 10, 11, 12, 13, 14, 15, 16, 17, 18, 19, 20, 21, 22, 23, 24, 25, 26, 27, 28, 29, 30, 31, 32, 33, 34, 35, 36, 37, 38, 39, 40, 41, 42, 43, 44, 45, 46, 47, 48, 49, 50, 51, 52, 53, 54, 55, 56, 57, 58, 59, 60, 61, 62, 63, 64, 65, 66, 67, 68, 69, 70, 71, 72, 73, 74, 75, 76, 77, 78, 79, 80, 81, 82, 83, 84, 85, 86, 87, 88, 89, 90, 91, 92, 93, 94, 95, 96, 97, 98, 99, 100, 101, 102, 103, 104, 105, 106, 107, 108, 109, 110, 111, 112, 113, 114, 115, 116, 117, 118, 119, 120, 121, 122, 123, 124, 125, 126, 127, 128, 129, 130, 131, 132, 133, 134, 135, 136, 137, 138, 139, 140, 141, 142, 143, 144, 145, 146, 147, 148, 149, 150, 151, 152, 153, 154, 155, 156],
      "LargestImagePixelValue": [2511, 2498, 2480, 2542, 2483, 2509, 2478, 2515, 2513, 2552, 2505, 2529, 2504, 2525, 2534, 2500, 2520, 2526, 2530, 2520, 2524, 2530, 2537, 2525, 2527, 2508, 2534, 2531, 2532, 2517, 2518, 2503, 2517, 2524, 2493, 2532, 2519, 2523, 2518, 2492, 2520, 2551, 2527, 2523, 2544, 2507, 2524, 2532, 2529, 2550, 2534, 2507, 2524, 2509, 2507, 2536, 2546, 2532, 2518, 2547, 2535, 2523, 2515, 2537, 2522, 2587, 2535, 2526, 2520, 2530, 2519, 2520, 2574, 2559, 2573, 2580, 2515, 2524, 2542, 2523, 2553, 2555, 2518, 2537, 2514, 2531, 2564, 2517, 2531, 2573, 2541, 2537, 2523, 2554, 2537, 2534, 2543, 2527, 2535, 2535, 2547, 2559, 2565, 2511, 2516, 2505, 2556, 2539, 2523, 2567, 2699, 2527, 2578, 2558, 2517, 2538, 2569, 2545, 2524, 2529, 2529, 2521, 2548, 2561, 2558, 2556, 2546, 2534, 2544, 2559, 2540, 2546, 2554, 2533, 2535, 2546, 2515, 2539, 2537, 2550, 2586, 2557, 2557, 2560, 2550, 2524, 2559, 2548, 2584, 2545, 2559, 2542, 2541, 2557, 2554, 2553],
      "WindowCenter": [728.0, 727.0, 727.0, 728.0, 726.0, 726.0, 726.0, 726.0, 727.0, 729.0, 727.0, 726.0, 725.0, 726.0, 726.0, 726.0, 726.0, 725.0, 724.0, 725.0, 726.0, 725.0, 724.0, 724.0, 725.0, 726.0, 727.0, 726.0, 726.0, 725.0, 725.0, 724.0, 725.0, 725.0, 725.0, 726.0, 726.0, 726.0, 726.0, 725.0, 726.0, 726.0, 727.0, 728.0, 729.0, 727.0, 725.0, 725.0, 725.0, 725.0, 726.0, 725.0, 725.0, 725.0, 726.0, 727.0, 727.0, 727.0, 725.0, 726.0, 727.0, 727.0, 725.0, 724.0, 722.0, 723.0, 723.0, 723.0, 723.0, 724.0, 724.0, 726.0, 728.0, 729.0, 729.0, 728.0, 727.0, 727.0, 726.0, 724.0, 725.0, 726.0, 726.0, 726.0, 726.0, 725.0, 725.0, 724.0, 727.0, 727.0, 726.0, 725.0, 726.0, 727.0, 727.0, 727.0, 727.0, 725.0, 727.0, 728.0, 729.0, 728.0, 727.0, 726.0, 726.0, 725.0, 727.0, 727.0, 726.0, 727.0, 730.0, 726.0, 727.0, 726.0, 726.0, 728.0, 728.0, 727.0, 726.0, 725.0, 726.0, 725.0, 726.0, 729.0, 730.0, 728.0, 726.0, 726.0, 726.0, 725.0, 726.0, 725.0, 726.0, 726.0, 726.0, 725.0, 726.0, 729.0, 728.0, 726.0, 724.0, 726.0, 728.0, 728.0, 727.0, 727.0, 727.0, 726.0, 726.0, 724.0, 725.0, 725.0, 725.0, 725.0, 725.0, 725.0],
      "WindowWidth": [1544.0, 1540.0, 1540.0, 1542.0, 1539.0, 1539.0, 1537.0, 1540.0, 1542.0, 1546.0, 1541.0, 1539.0, 1536.0, 1538.0, 1538.0, 1538.0, 1538.0, 1536.0, 1534.0, 1536.0, 1538.0, 1536.0, 1534.0, 1533.0, 1536.0, 1539.0, 1541.0, 1538.0, 1538.0, 1537.0, 1535.0, 1534.0, 1537.0, 1537.0, 1537.0, 1538.0, 1540.0, 1538.0, 1540.0, 1537.0, 1538.0, 1538.0, 1541.0, 1544.0, 1546.0, 1542.0, 1537.0, 1537.0, 1535.0, 1536.0, 1539.0, 1536.0, 1537.0, 1536.0, 1539.0, 1542.0, 1541.0, 1540.0, 1537.0, 1539.0, 1541.0, 1542.0, 1535.0, 1533.0, 1529.0, 1531.0, 1531.0, 1532.0, 1532.0, 1534.0, 1535.0, 1539.0, 1544.0, 1546.0, 1546.0, 1545.0, 1542.0, 1541.0, 1538.0, 1535.0, 1535.0, 1539.0, 1540.0, 1539.0, 1538.0, 1537.0, 1537.0, 1535.0, 1541.0, 1542.0, 1539.0, 1536.0, 1538.0, 1540.0, 1542.0, 1541.0, 1542.0, 1538.0, 1543.0, 1545.0, 1546.0, 1543.0, 1540.0, 1538.0, 1538.0, 1538.0, 1542.0, 1540.0, 1540.0, 1542.0, 1548.0, 1540.0, 1542.0, 1539.0, 1538.0, 1543.0, 1545.0, 1540.0, 1538.0, 1536.0, 1537.0, 1535.0, 1539.0, 1546.0, 1548.0, 1543.0, 1538.0, 1539.0, 1539.0, 1535.0, 1538.0, 1538.0, 1540.0, 1539.0, 1540.0, 1537.0, 1540.0, 1546.0, 1543.0, 1539.0, 1535.0, 1540.0, 1543.0, 1543.0, 1541.0, 1541.0, 1541.0, 1539.0, 1538.0, 1534.0, 1536.0, 1535.0, 1536.0, 1536.0, 1535.0, 1536.0]
    },
    "slices": {}
  }
}