{
  "AcquisitionMatrixPE": 100,
  "AcquisitionNumber": 1,
  "AcquisitionTime": "16:07:52.385000",
  "BandwidthPerPixelPhaseEncode": 18.519,
  "BaseResolution": 100,
  "BodyPartExamined": "BRAIN",
  "CoilCombinationMethod": "Sum of Squares",
  "ConsistencyInfo": "N4_VE11C_LATEST_20160120",
  "ConversionSoftware": "dcm2niix",
  "ConversionSoftwareVersion": "v1.0.20211006",
  "DerivedVendorReportedEchoSpacing": 0.000539986,
  "DeviceSerialNumber": "166078",
  "DwellTime": 2.1e-06,
  "EchoTime": 0.034,
  "EchoTrainLength": 100,
  "EffectiveEchoSpacing": 0.000539986,
  "FlipAngle": 90,
  "ImageOrientationPatientDICOM": [1, 0, 0, 0, 0.999903, -0.0139622],
  "ImageOrientationText": "Tra>Cor(-0.8)",
  "ImageType": [
    "ORIGINAL",
    "PRIMARY",
    "M",
    "ND",
    "MOSAIC"
],
  "ImagingFrequency": 123.258,
  "InPlanePhaseEncodingDirectionDICOM": "COL",
  "InstitutionAddress": "Street StreetNo,Bei Jing,District,CN,ZIP",
  "InstitutionName": "BeiJing Normal University",
  "InstitutionalDepartmentName": "Department",
  "MRAcquisitionType": "2D",
  "MagneticFieldStrength": 3,
  "Manufacturer": "Siemens",
  "ManufacturersModelName": "Prisma",
  "Modality": "MR",
  "MultibandAccelerationFactor": 3,
  "PartialFourier": 1,
  "PatientPosition": "HFS",
  "PercentPhaseFOV": 100,
  "PercentSampling": 100,
  "PhaseEncodingDirection": "j-",
  "PhaseEncodingSteps": 100,
  "PhaseResolution": 1,
  "PixelBandwidth": 2380,
  "ProcedureStepDescription": "BNU_P2018_64CH^Zhen.ZongLei",
  "ProtocolName": "bold_100x100_s3_2x2x2_static_156",
  "PulseSequenceDetails": "%SiemensSeq%\\ep2d_bold",
  "ReceiveCoilActiveElements": "HC1-7;NC1",
  "ReceiveCoilName": "HeadNeck_64",
  "ReconMatrixPE": 100,
  "RefLinesPE": 32,
  "RepetitionTime": 2,
  "SAR": 0.0796453,
  "ScanOptions": "FS",
  "ScanningSequence": "EP",
  "SequenceName": "*epfid2d1_100",
  "SequenceVariant": "SK",
  "SeriesDescription": "bold_100x100_s3_2x2x2_static_156",
  "SeriesNumber": 7,
  "ShimSetting": [-5469, -11543, -1272, 291, -62, -194, -9, 63],
  "SliceThickness": 2,
  "SliceTiming": [1.485, 0, 0.99, 0.0825, 1.0725, 0.165, 1.155, 0.2475, 1.2375, 0.33, 1.32, 0.4125, 1.4025, 0.5775, 1.5675, 0.66, 1.65, 0.7425, 1.7325, 0.825, 1.815, 0.9075, 1.8975, 0.495, 1.485, 0, 0.99, 0.0825, 1.0725, 0.165, 1.155, 0.2475, 1.2375, 0.33, 1.32, 0.4125, 1.4025, 0.5775, 1.5675, 0.66, 1.65, 0.7425, 1.7325, 0.825, 1.815, 0.9075, 1.8975, 0.495, 1.485, 0, 0.99, 0.0825, 1.0725, 0.165, 1.155, 0.2475, 1.2375, 0.33, 1.32, 0.4125, 1.4025, 0.5775, 1.5675, 0.66, 1.65, 0.7425, 1.7325, 0.825, 1.815, 0.9075, 1.8975, 0.495],
  "SoftwareVersions": "syngo MR E11",
  "SpacingBetweenSlices": 2,
  "StationName": "AWP166078",
  "TaskName": "action",
  "TotalReadoutTime": 0.0534586,
  "TxRefAmp": 213.971,
  "dcmmeta_affine": [
    [-2.0, 0.0, 0.0, 101.3559341430664],
    [0.0, 1.9998050928115845, -0.02792436257004738, -89.20736694335938],
    [0.0, 0.02792436257004738, 1.9998050928115845, -51.13134765625],
    [0.0, 0.0, 0.0, 1.0]
],
  "dcmmeta_reorient_transform": [
    [0.0, -1.0, 0.0, 99.0],
    [1.0, 0.0, 0.0, 0.0],
    [0.0, 0.0, 1.0, 0.0],
    [0.0, 0.0, 0.0, 1.0]
],
  "dcmmeta_shape": [100, 100, 72, 156],
  "dcmmeta_slice_dim": 2,
  "dcmmeta_version": 0.6,
  "global": {
    "const": {
      "AcquisitionMatrix": [100, 0, 0, 100],
      "AngioFlag": "N",
      "BitsAllocated": 16,
      "BitsStored": 12,
      "BodyPartExamined": "BRAIN",
      "Columns": 900,
      "EchoNumbers": 1,
      "EchoTime": 34.0,
      "EchoTrainLength": 100,
      "FlipAngle": 90.0,
      "HighBit": 11,
      "ImageOrientationPatient": [1.0, 0.0, 0.0, 0.0, 0.99990252399856, -0.0139621811089],
      "ImagePositionPatient": [-901.35593223572, -908.69535360707, -37.197090896012],
      "ImageType": [
        "ORIGINAL",
        "PRIMARY",
        "M",
        "ND",
        "MOSAIC"
],
      "ImagedNucleus": "1H",
      "ImagingFrequency": 123.25772,
      "InPlanePhaseEncodingDirection": "COL",
      "MRAcquisitionType": "2D",
      "MagneticFieldStrength": 3.0,
      "Manufacturer": "SIEMENS",
      "ManufacturerModelName": "Prisma",
      "Modality": "MR",
      "NumberOfAverages": 1.0,
      "NumberOfPhaseEncodingSteps": 100,
      "PercentPhaseFieldOfView": 100.0,
      "PercentSampling": 100.0,
      "PerformedProcedureStepStartTime": "153942.174000",
      "PhotometricInterpretation": "MONOCHROME2",
      "PixelBandwidth": 2380.0,
      "PixelRepresentation": 0,
      "PixelSpacing": [2.0, 2.0],
      "ProtocolName": "bold_100x100_s3_2x2x2_static_156",
      "RepetitionTime": 2000.0,
      "Rows": 900,
      "SAR": 0.07964531459085,
      "SamplesPerPixel": 1,
      "ScanOptions": "FS",
      "ScanningSequence": "EP",
      "SequenceName": "*epfid2d1_100",
      "SequenceVariant": "SK",
      "SeriesDescription": "bold_100x100_s3_2x2x2_static_156",
      "SeriesNumber": 7,
      "SeriesTime": "160754.880000",
      "SliceLocation": -49.880834172225,
      "SliceThickness": 2.0,
      "SmallestImagePixelValue": 0,
      "SoftwareVersions": "syngo MR E11",
      "SpacingBetweenSlices": 2.0000000262606,
      "SpecificCharacterSet": "ISO_IR 100",
      "StudyID": "1",
      "StudyTime": "153942.074000",
      "TransmitCoilName": "Body",
      "VariableFlipAngleFlag": "N",
      "WindowCenterWidthExplanation": "Algo1",
      "dBdt": 0.0},
    "slices": {}
  },
  "time": {
    "samples": {
      "AcquisitionNumber": [1, 2, 3, 4, 5, 6, 7, 8, 9, 10, 11, 12, 13, 14, 15, 16, 17, 18, 19, 20, 21, 22, 23, 24, 25, 26, 27, 28, 29, 30, 31, 32, 33, 34, 35, 36, 37, 38, 39, 40, 41, 42, 43, 44, 45, 46, 47, 48, 49, 50, 51, 52, 53, 54, 55, 56, 57, 58, 59, 60, 61, 62, 63, 64, 65, 66, 67, 68, 69, 70, 71, 72, 73, 74, 75, 76, 77, 78, 79, 80, 81, 82, 83, 84, 85, 86, 87, 88, 89, 90, 91, 92, 93, 94, 95, 96, 97, 98, 99, 100, 101, 102, 103, 104, 105, 106, 107, 108, 109, 110, 111, 112, 113, 114, 115, 116, 117, 118, 119, 120, 121, 122, 123, 124, 125, 126, 127, 128, 129, 130, 131, 132, 133, 134, 135, 136, 137, 138, 139, 140, 141, 142, 143, 144, 145, 146, 147, 148, 149, 150, 151, 152, 153, 154, 155, 156],
      "AcquisitionTime": ["160752.385000", "160754.385000", "160756.385000", "160758.385000", "160800.385000", "160802.385000", "160804.385000", "160806.385000", "160808.385000", "160810.385000", "160812.385000", "160814.385000", "160816.385000", "160818.385000", "160820.385000", "160822.385000", "160824.385000", "160826.385000", "160828.385000", "160830.385000", "160832.385000", "160834.385000", "160836.385000", "160838.385000", "160840.385000", "160842.385000", "160844.385000", "160846.385000", "160848.385000", "160850.385000", "160852.385000", "160854.385000", "160856.385000", "160858.385000", "160900.385000", "160902.385000", "160904.385000", "160906.385000", "160908.385000", "160910.385000", "160912.385000", "160914.385000", "160916.385000", "160918.385000", "160920.385000", "160922.385000", "160924.385000", "160926.385000", "160928.385000", "160930.385000", "160932.385000", "160934.385000", "160936.385000", "160938.385000", "160940.385000", "160942.385000", "160944.385000", "160946.385000", "160948.385000", "160950.385000", "160952.385000", "160954.385000", "160956.385000", "160958.385000", "161000.385000", "161002.385000", "161004.385000", "161006.385000", "161008.385000", "161010.385000", "161012.385000", "161014.385000", "161016.385000", "161018.385000", "161020.385000", "161022.385000", "161024.385000", "161026.385000", "161028.385000", "161030.385000", "161032.385000", "161034.385000", "161036.385000", "161038.385000", "161040.385000", "161042.385000", "161044.385000", "161046.385000", "161048.385000", "161050.385000", "161052.385000", "161054.385000", "161056.385000", "161058.385000", "161100.385000", "161102.385000", "161104.385000", "161106.385000", "161108.385000", "161110.385000", "161112.385000", "161114.385000", "161116.385000", "161118.385000", "161120.385000", "161122.385000", "161124.385000", "161126.385000", "161128.385000", "161130.385000", "161132.385000", "161134.385000", "161136.385000", "161138.385000", "161140.385000", "161142.385000", "161144.385000", "161146.385000", "161148.385000", "161150.385000", "161152.385000", "161154.385000", "161156.385000", "161158.385000", "161200.385000", "161202.385000", "161204.385000", "161206.385000", "161208.385000", "161210.385000", "161212.385000", "161214.385000", "161216.385000", "161218.385000", "161220.385000", "161222.385000", "161224.385000", "161226.385000", "161228.385000", "161230.385000", "161232.385000", "161234.385000", "161236.385000", "161238.385000", "161240.385000", "161242.385000", "161244.385000", "161246.385000", "161248.385000", "161250.385000", "161252.385000", "161254.385000", "161256.385000", "161258.385000", "161300.385000", "161302.385000"],
      "ContentTime": ["160754.884000", "160756.380000", "160758.380000", "160800.381000", "160802.379000", "160804.379000", "160806.379000", "160808.379000", "160810.379000", "160812.379000", "160814.379000", "160816.380000", "160818.380000", "160820.380000", "160822.379000", "160824.379000", "160826.379000", "160828.379000", "160830.379000", "160832.379000", "160834.381000", "160836.380000", "160838.379000", "160840.380000", "160842.379000", "160844.380000", "160846.380000", "160848.380000", "160850.380000", "160852.381000", "160854.380000", "160856.380000", "160858.379000", "160900.380000", "160902.380000", "160904.380000", "160906.380000", "160908.381000", "160910.381000", "160912.380000", "160914.380000", "160916.379000", "160918.380000", "160920.380000", "160922.380000", "160924.379000", "160926.381000", "160928.381000", "160930.379000", "160932.379000", "160934.379000", "160936.379000", "160938.379000", "160940.379000", "160942.379000", "160944.381000", "160946.379000", "160948.379000", "160950.380000", "160952.379000", "160954.380000", "160956.379000", "160958.379000", "161000.380000", "161002.380000", "161004.380000", "161006.380000", "161008.379000", "161010.380000", "161012.379000", "161014.380000", "161016.380000", "161018.380000", "161020.380000", "161022.379000", "161024.379000", "161026.380000", "161028.379000", "161030.380000", "161032.380000", "161034.379000", "161036.381000", "161038.380000", "161040.380000", "161042.379000", "161044.379000", "161046.379000", "161048.379000", "161050.380000", "161052.380000", "161054.381000", "161056.380000", "161058.380000", "161100.380000", "161102.379000", "161104.380000", "161106.379000", "161108.380000", "161110.381000", "161112.380000", "161114.380000", "161116.379000", "161118.379000", "161120.379000", "161122.379000", "161124.380000", "161126.379000", "161128.381000", "161130.381000", "161132.379000", "161134.379000", "161136.380000", "161138.380000", "161140.379000", "161142.380000", "161144.380000", "161146.380000", "161148.381000", "161150.380000", "161152.380000", "161154.379000", "161156.380000", "161158.380000", "161200.379000", "161202.380000", "161204.380000", "161206.379000", "161208.379000", "161210.379000", "161212.379000", "161214.379000", "161216.380000", "161218.379000", "161220.380000", "161222.380000", "161224.380000", "161226.380000", "161228.380000", "161230.379000", "161232.379000", "161234.379000", "161236.379000", "161238.380000", "161240.381000", "161242.380000", "161244.380000", "161246.380000", "161248.379000", "161250.380000", "161252.380000", "161254.380000", "161256.381000", "161258.381000", "161300.380000", "161302.379000", "161304.232000"],
      "InstanceCreationTime": ["160754.884000", "160756.380000", "160758.380000", "160800.381000", "160802.379000", "160804.379000", "160806.379000", "160808.379000", "160810.379000", "160812.379000", "160814.379000", "160816.380000", "160818.380000", "160820.380000", "160822.379000", "160824.379000", "160826.379000", "160828.379000", "160830.379000", "160832.379000", "160834.381000", "160836.380000", "160838.379000", "160840.380000", "160842.379000", "160844.380000", "160846.380000", "160848.380000", "160850.380000", "160852.381000", "160854.380000", "160856.380000", "160858.379000", "160900.380000", "160902.380000", "160904.380000", "160906.380000", "160908.381000", "160910.381000", "160912.380000", "160914.380000", "160916.379000", "160918.380000", "160920.380000", "160922.380000", "160924.379000", "160926.381000", "160928.381000", "160930.379000", "160932.379000", "160934.379000", "160936.379000", "160938.379000", "160940.379000", "160942.379000", "160944.381000", "160946.379000", "160948.379000", "160950.380000", "160952.379000", "160954.380000", "160956.379000", "160958.379000", "161000.380000", "161002.380000", "161004.380000", "161006.380000", "161008.379000", "161010.380000", "161012.379000", "161014.380000", "161016.380000", "161018.380000", "161020.380000", "161022.379000", "161024.379000", "161026.380000", "161028.379000", "161030.380000", "161032.380000", "161034.379000", "161036.381000", "161038.380000", "161040.380000", "161042.379000", "161044.379000", "161046.379000", "161048.379000", "161050.380000", "161052.380000", "161054.381000", "161056.380000", "161058.380000", "161100.380000", "161102.379000", "161104.380000", "161106.379000", "161108.380000", "161110.381000", "161112.380000", "161114.380000", "161116.379000", "161118.379000", "161120.379000", "161122.379000", "161124.380000", "161126.379000", "161128.381000", "161130.381000", "161132.379000", "161134.379000", "161136.380000", "161138.380000", "161140.379000", "161142.380000", "161144.380000", "161146.380000", "161148.381000", "161150.380000", "161152.380000", "161154.379000", "161156.380000", "161158.380000", "161200.379000", "161202.380000", "161204.380000", "161206.379000", "161208.379000", "161210.379000", "161212.379000", "161214.379000", "161216.380000", "161218.379000", "161220.380000", "161222.380000", "161224.380000", "161226.380000", "161228.380000", "161230.379000", "161232.379000", "161234.379000", "161236.379000", "161238.380000", "161240.381000", "161242.380000", "161244.380000", "161246.380000", "161248.379000", "161250.380000", "161252.380000", "161254.380000", "161256.381000", "161258.381000", "161300.380000", "161302.379000", "161304.232000"],
      "InstanceNumber": [1, 2, 3, 4, 5, 6, 7, 8, 9, 10, 11, 12, 13, 14, 15, 16, 17, 18, 19, 20, 21, 22, 23, 24, 25, 26, 27, 28, 29, 30, 31, 32, 33, 34, 35, 36, 37, 38, 39, 40, 41, 42, 43, 44, 45, 46, 47, 48, 49, 50, 51, 52, 53, 54, 55, 56, 57, 58, 59, 60, 61, 62, 63, 64, 65, 66, 67, 68, 69, 70, 71, 72, 73, 74, 75, 76, 77, 78, 79, 80, 81, 82, 83, 84, 85, 86, 87, 88, 89, 90, 91, 92, 93, 94, 95, 96, 97, 98, 99, 100, 101, 102, 103, 104, 105, 106, 107, 108, 109, 110, 111, 112, 113, 114, 115, 116, 117, 118, 119, 120, 121, 122, 123, 124, 125, 126, 127, 128, 129, 130, 131, 132, 133, 134, 135, 136, 137, 138, 139, 140, 141, 142, 143, 144, 145, 146, 147, 148, 149, 150, 151, 152, 153, 154, 155, 156],
      "LargestImagePixelValue": [2708, 2639, 2616, 2591, 2664, 2642, 2614, 2613, 2662, 2637, 2614, 2636, 2606, 2646, 2588, 2626, 2590, 2644, 2610, 2661, 2656, 2630, 2627, 2640, 2621, 2608, 2614, 2573, 2623, 2620, 2642, 2575, 2665, 2615, 2628, 2615, 2626, 2645, 2623, 2605, 2596, 2650, 2619, 2639, 2632, 2614, 2634, 2603, 2638, 2559, 2638, 2586, 2649, 2572, 2641, 2595, 2575, 2623, 2568, 2618, 2595, 2617, 2569, 2624, 2653, 2615, 2631, 2622, 2566, 2629, 2654, 2655, 2587, 2631, 2583, 2600, 2669, 2616, 2625, 2615, 2654, 2648, 2675, 2654, 2640, 2660, 2640, 2641, 2632, 2682, 2668, 2668, 2711, 2640, 2667, 2674, 2686, 2658, 2731, 2677, 2689, 2705, 2682, 2722, 2725, 2698, 2724, 2716, 2701, 2700, 2668, 2689, 2716, 2672, 2655, 2629, 2671, 2678, 2714, 2666, 2626, 2667, 2687, 2681, 2695, 2705, 2667, 2701, 2678, 2687, 2748, 2725, 2733, 2692, 2729, 2752, 2717, 2666, 2690, 2720, 2711, 2675, 2707, 2722, 2664, 2700, 2736, 2689, 2708, 2725, 2710, 2710, 2702, 2648, 2649, 2649],
      "WindowCenter": [731.0, 729.0, 729.0, 729.0, 729.0, 729.0, 729.0, 730.0, 731.0, 731.0, 730.0, 730.0, 730.0, 731.0, 730.0, 730.0, 732.0, 731.0, 730.0, 730.0, 730.0, 729.0, 730.0, 731.0, 731.0, 730.0, 730.0, 728.0, 729.0, 730.0, 729.0, 728.0, 729.0, 729.0, 730.0, 730.0, 729.0, 729.0, 729.0, 730.0, 731.0, 731.0, 729.0, 728.0, 729.0, 729.0, 730.0, 730.0, 730.0, 729.0, 729.0, 728.0, 728.0, 728.0, 729.0, 729.0, 729.0, 730.0, 729.0, 730.0, 729.0, 729.0, 729.0, 729.0, 730.0, 729.0, 729.0, 729.0, 729.0, 730.0, 729.0, 729.0, 728.0, 730.0, 729.0, 729.0, 729.0, 728.0, 728.0, 728.0, 729.0, 730.0, 730.0, 729.0, 729.0, 730.0, 730.0, 730.0, 730.0, 730.0, 729.0, 730.0, 731.0, 729.0, 730.0, 729.0, 729.0, 730.0, 732.0, 731.0, 731.0, 731.0, 730.0, 731.0, 731.0, 731.0, 731.0, 731.0, 731.0, 732.0, 731.0, 730.0, 731.0, 730.0, 729.0, 729.0, 730.0, 730.0, 730.0, 730.0, 730.0, 730.0, 731.0, 731.0, 732.0, 732.0, 731.0, 731.0, 731.0, 731.0, 731.0, 731.0, 731.0, 731.0, 731.0, 731.0, 730.0, 730.0, 729.0, 730.0, 732.0, 732.0, 731.0, 729.0, 728.0, 729.0, 730.0, 730.0, 731.0, 731.0, 730.0, 730.0, 730.0, 730.0, 730.0, 730.0],
      "WindowWidth": [1552.0, 1548.0, 1547.0, 1547.0, 1547.0, 1547.0, 1547.0, 1549.0, 1553.0, 1553.0, 1550.0, 1550.0, 1550.0, 1554.0, 1551.0, 1551.0, 1555.0, 1554.0, 1550.0, 1549.0, 1551.0, 1547.0, 1550.0, 1552.0, 1553.0, 1551.0, 1549.0, 1545.0, 1548.0, 1550.0, 1548.0, 1545.0, 1547.0, 1548.0, 1550.0, 1549.0, 1547.0, 1548.0, 1548.0, 1550.0, 1551.0, 1551.0, 1548.0, 1545.0, 1547.0, 1547.0, 1550.0, 1550.0, 1550.0, 1548.0, 1547.0, 1545.0, 1545.0, 1546.0, 1547.0, 1548.0, 1546.0, 1549.0, 1546.0, 1549.0, 1548.0, 1548.0, 1547.0, 1546.0, 1549.0, 1547.0, 1546.0, 1548.0, 1548.0, 1550.0, 1548.0, 1546.0, 1544.0, 1549.0, 1548.0, 1548.0, 1547.0, 1544.0, 1545.0, 1544.0, 1547.0, 1549.0, 1551.0, 1548.0, 1547.0, 1549.0, 1550.0, 1550.0, 1550.0, 1549.0, 1548.0, 1550.0, 1553.0, 1548.0, 1549.0, 1547.0, 1548.0, 1550.0, 1554.0, 1553.0, 1551.0, 1552.0, 1549.0, 1551.0, 1551.0, 1552.0, 1552.0, 1551.0, 1553.0, 1554.0, 1553.0, 1550.0, 1551.0, 1550.0, 1548.0, 1547.0, 1548.0, 1549.0, 1550.0, 1548.0, 1550.0, 1551.0, 1553.0, 1552.0, 1554.0, 1555.0, 1552.0, 1553.0, 1552.0, 1552.0, 1553.0, 1552.0, 1552.0, 1551.0, 1552.0, 1551.0, 1550.0, 1549.0, 1548.0, 1550.0, 1555.0, 1554.0, 1552.0, 1548.0, 1545.0, 1546.0, 1549.0, 1549.0, 1551.0, 1551.0, 1549.0, 1550.0, 1551.0, 1550.0, 1549.0, 1550.0]
    },
    "slices": {}
  }
}