{
  "AcquisitionMatrixPE": 100,
  "AcquisitionNumber": 1,
  "AcquisitionTime": "16:23:4.855000",
  "BandwidthPerPixelPhaseEncode": 18.519,
  "BaseResolution": 100,
  "BodyPartExamined": "BRAIN",
  "CoilCombinationMethod": "Sum of Squares",
  "ConsistencyInfo": "N4_VE11C_LATEST_20160120",
  "ConversionSoftware": "dcm2niix",
  "ConversionSoftwareVersion": "v1.0.20211006",
  "DerivedVendorReportedEchoSpacing": 0.000539986,
  "DeviceSerialNumber": "166078",
  "DwellTime": 2.1e-06,
  "EchoTime": 0.034,
  "EchoTrainLength": 100,
  "EffectiveEchoSpacing": 0.000539986,
  "FlipAngle": 90,
  "ImageOrientationPatientDICOM": [1, 0, 0, 0, 0.999903, -0.0139622],
  "ImageOrientationText": "Tra>Cor(-0.8)",
  "ImageType": [
    "ORIGINAL",
    "PRIMARY",
    "M",
    "ND",
    "MOSAIC"
],
  "ImagingFrequency": 123.258,
  "InPlanePhaseEncodingDirectionDICOM": "COL",
  "InstitutionAddress": "Street StreetNo,Bei Jing,District,CN,ZIP",
  "InstitutionName": "BeiJing Normal University",
  "InstitutionalDepartmentName": "Department",
  "MRAcquisitionType": "2D",
  "MagneticFieldStrength": 3,
  "Manufacturer": "Siemens",
  "ManufacturersModelName": "Prisma",
  "Modality": "MR",
  "MultibandAccelerationFactor": 3,
  "PartialFourier": 1,
  "PatientPosition": "HFS",
  "PercentPhaseFOV": 100,
  "PercentSampling": 100,
  "PhaseEncodingDirection": "j-",
  "PhaseEncodingSteps": 100,
  "PhaseResolution": 1,
  "PixelBandwidth": 2380,
  "ProcedureStepDescription": "BNU_P2018_64CH^Zhen.ZongLei",
  "ProtocolName": "bold_100x100_s3_2x2x2_static_156",
  "PulseSequenceDetails": "%SiemensSeq%\\ep2d_bold",
  "ReceiveCoilActiveElements": "HC1-7;NC1",
  "ReceiveCoilName": "HeadNeck_64",
  "ReconMatrixPE": 100,
  "RefLinesPE": 32,
  "RepetitionTime": 2,
  "SAR": 0.0796453,
  "ScanOptions": "FS",
  "ScanningSequence": "EP",
  "SequenceName": "*epfid2d1_100",
  "SequenceVariant": "SK",
  "SeriesDescription": "bold_100x100_s3_2x2x2_static_156",
  "SeriesNumber": 11,
  "ShimSetting": [-5469, -11543, -1272, 291, -62, -194, -9, 63],
  "SliceThickness": 2,
  "SliceTiming": [1.485, 0, 0.99, 0.0825, 1.0725, 0.165, 1.155, 0.2475, 1.2375, 0.33, 1.32, 0.4125, 1.4025, 0.5775, 1.5675, 0.66, 1.65, 0.7425, 1.7325, 0.825, 1.815, 0.9075, 1.8975, 0.495, 1.485, 0, 0.99, 0.0825, 1.0725, 0.165, 1.155, 0.2475, 1.2375, 0.33, 1.32, 0.4125, 1.4025, 0.5775, 1.5675, 0.66, 1.65, 0.7425, 1.7325, 0.825, 1.815, 0.9075, 1.8975, 0.495, 1.485, 0, 0.99, 0.0825, 1.0725, 0.165, 1.155, 0.2475, 1.2375, 0.33, 1.32, 0.4125, 1.4025, 0.5775, 1.5675, 0.66, 1.65, 0.7425, 1.7325, 0.825, 1.815, 0.9075, 1.8975, 0.495],
  "SoftwareVersions": "syngo MR E11",
  "SpacingBetweenSlices": 2,
  "StationName": "AWP166078",
  "TaskName": "action",
  "TotalReadoutTime": 0.0534586,
  "TxRefAmp": 213.971,
  "dcmmeta_affine": [
    [-2.0, 0.0, 0.0, 101.3559341430664],
    [0.0, 1.9998050928115845, -0.02792436257004738, -89.20736694335938],
    [0.0, 0.02792436257004738, 1.9998050928115845, -51.13134765625],
    [0.0, 0.0, 0.0, 1.0]
],
  "dcmmeta_reorient_transform": [
    [0.0, -1.0, 0.0, 99.0],
    [1.0, 0.0, 0.0, 0.0],
    [0.0, 0.0, 1.0, 0.0],
    [0.0, 0.0, 0.0, 1.0]
],
  "dcmmeta_shape": [100, 100, 72, 156],
  "dcmmeta_slice_dim": 2,
  "dcmmeta_version": 0.6,
  "global": {
    "const": {
      "AcquisitionMatrix": [100, 0, 0, 100],
      "AngioFlag": "N",
      "BitsAllocated": 16,
      "BitsStored": 12,
      "BodyPartExamined": "BRAIN",
      "Columns": 900,
      "EchoNumbers": 1,
      "EchoTime": 34.0,
      "EchoTrainLength": 100,
      "FlipAngle": 90.0,
      "HighBit": 11,
      "ImageOrientationPatient": [1.0, 0.0, 0.0, 0.0, 0.99990252399856, -0.0139621811089],
      "ImagePositionPatient": [-901.35593223572, -908.69535360707, -37.197090896012],
      "ImageType": [
        "ORIGINAL",
        "PRIMARY",
        "M",
        "ND",
        "MOSAIC"
],
      "ImagedNucleus": "1H",
      "ImagingFrequency": 123.257715,
      "InPlanePhaseEncodingDirection": "COL",
      "MRAcquisitionType": "2D",
      "MagneticFieldStrength": 3.0,
      "Manufacturer": "SIEMENS",
      "ManufacturerModelName": "Prisma",
      "Modality": "MR",
      "NumberOfAverages": 1.0,
      "NumberOfPhaseEncodingSteps": 100,
      "PercentPhaseFieldOfView": 100.0,
      "PercentSampling": 100.0,
      "PerformedProcedureStepStartTime": "153942.174000",
      "PhotometricInterpretation": "MONOCHROME2",
      "PixelBandwidth": 2380.0,
      "PixelRepresentation": 0,
      "PixelSpacing": [2.0, 2.0],
      "ProtocolName": "bold_100x100_s3_2x2x2_static_156",
      "RepetitionTime": 2000.0,
      "Rows": 900,
      "SAR": 0.07964531459085,
      "SamplesPerPixel": 1,
      "ScanOptions": "FS",
      "ScanningSequence": "EP",
      "SequenceName": "*epfid2d1_100",
      "SequenceVariant": "SK",
      "SeriesDescription": "bold_100x100_s3_2x2x2_static_156",
      "SeriesNumber": 11,
      "SeriesTime": "162307.542000",
      "SliceLocation": -49.880834172225,
      "SliceThickness": 2.0,
      "SmallestImagePixelValue": 0,
      "SoftwareVersions": "syngo MR E11",
      "SpacingBetweenSlices": 2.0000000262606,
      "SpecificCharacterSet": "ISO_IR 100",
      "StudyID": "1",
      "StudyTime": "153942.074000",
      "TransmitCoilName": "Body",
      "VariableFlipAngleFlag": "N",
      "WindowCenterWidthExplanation": "Algo1",
      "dBdt": 0.0},
    "slices": {}
  },
  "time": {
    "samples": {
      "AcquisitionNumber": [1, 2, 3, 4, 5, 6, 7, 8, 9, 10, 11, 12, 13, 14, 15, 16, 17, 18, 19, 20, 21, 22, 23, 24, 25, 26, 27, 28, 29, 30, 31, 32, 33, 34, 35, 36, 37, 38, 39, 40, 41, 42, 43, 44, 45, 46, 47, 48, 49, 50, 51, 52, 53, 54, 55, 56, 57, 58, 59, 60, 61, 62, 63, 64, 65, 66, 67, 68, 69, 70, 71, 72, 73, 74, 75, 76, 77, 78, 79, 80, 81, 82, 83, 84, 85, 86, 87, 88, 89, 90, 91, 92, 93, 94, 95, 96, 97, 98, 99, 100, 101, 102, 103, 104, 105, 106, 107, 108, 109, 110, 111, 112, 113, 114, 115, 116, 117, 118, 119, 120, 121, 122, 123, 124, 125, 126, 127, 128, 129, 130, 131, 132, 133, 134, 135, 136, 137, 138, 139, 140, 141, 142, 143, 144, 145, 146, 147, 148, 149, 150, 151, 152, 153, 154, 155, 156],
      "AcquisitionTime": ["162304.855000", "162306.855000", "162308.855000", "162310.855000", "162312.855000", "162314.855000", "162316.855000", "162318.855000", "162320.855000", "162322.855000", "162324.855000", "162326.855000", "162328.855000", "162330.855000", "162332.855000", "162334.855000", "162336.855000", "162338.855000", "162340.855000", "162342.855000", "162344.855000", "162346.855000", "162348.855000", "162350.855000", "162352.855000", "162354.855000", "162356.855000", "162358.855000", "162400.855000", "162402.855000", "162404.855000", "162406.855000", "162408.855000", "162410.855000", "162412.855000", "162414.855000", "162416.855000", "162418.855000", "162420.855000", "162422.855000", "162424.855000", "162426.855000", "162428.855000", "162430.855000", "162432.855000", "162434.855000", "162436.855000", "162438.855000", "162440.855000", "162442.855000", "162444.855000", "162446.855000", "162448.855000", "162450.855000", "162452.855000", "162454.855000", "162456.855000", "162458.855000", "162500.855000", "162502.855000", "162504.855000", "162506.855000", "162508.855000", "162510.855000", "162512.855000", "162514.855000", "162516.855000", "162518.855000", "162520.855000", "162522.855000", "162524.855000", "162526.855000", "162528.855000", "162530.855000", "162532.855000", "162534.855000", "162536.855000", "162538.855000", "162540.855000", "162542.855000", "162544.855000", "162546.855000", "162548.855000", "162550.855000", "162552.855000", "162554.855000", "162556.855000", "162558.855000", "162600.855000", "162602.855000", "162604.855000", "162606.855000", "162608.855000", "162610.855000", "162612.855000", "162614.855000", "162616.855000", "162618.855000", "162620.855000", "162622.855000", "162624.855000", "162626.855000", "162628.855000", "162630.855000", "162632.855000", "162634.855000", "162636.855000", "162638.855000", "162640.855000", "162642.855000", "162644.855000", "162646.855000", "162648.855000", "162650.855000", "162652.855000", "162654.855000", "162656.855000", "162658.855000", "162700.855000", "162702.855000", "162704.855000", "162706.855000", "162708.855000", "162710.855000", "162712.855000", "162714.855000", "162716.855000", "162718.855000", "162720.855000", "162722.855000", "162724.855000", "162726.855000", "162728.855000", "162730.855000", "162732.855000", "162734.855000", "162736.855000", "162738.855000", "162740.855000", "162742.855000", "162744.855000", "162746.855000", "162748.855000", "162750.855000", "162752.855000", "162754.855000", "162756.855000", "162758.855000", "162800.855000", "162802.855000", "162804.855000", "162806.855000", "162808.855000", "162810.855000", "162812.855000", "162814.855000"],
      "ContentTime": ["162307.546000", "162309.041000", "162311.042000", "162313.041000", "162315.042000", "162317.041000", "162319.040000", "162321.041000", "162323.040000", "162325.041000", "162327.042000", "162329.041000", "162331.042000", "162333.041000", "162335.041000", "162337.041000", "162339.041000", "162341.040000", "162343.041000", "162345.042000", "162347.041000", "162349.042000", "162351.041000", "162353.040000", "162355.041000", "162357.041000", "162359.041000", "162401.041000", "162403.041000", "162405.041000", "162407.041000", "162409.041000", "162411.040000", "162413.040000", "162415.040000", "162417.042000", "162419.042000", "162421.041000", "162423.042000", "162425.042000", "162427.041000", "162429.041000", "162431.041000", "162433.040000", "162435.041000", "162437.041000", "162439.042000", "162441.042000", "162443.041000", "162445.040000", "162447.040000", "162449.040000", "162451.041000", "162453.042000", "162455.042000", "162457.042000", "162459.041000", "162501.041000", "162503.041000", "162505.040000", "162507.041000", "162509.040000", "162511.042000", "162513.042000", "162515.042000", "162517.041000", "162519.041000", "162521.040000", "162523.041000", "162525.041000", "162527.042000", "162529.042000", "162531.042000", "162533.541000", "162535.041000", "162537.040000", "162539.041000", "162541.041000", "162543.041000", "162545.042000", "162547.041000", "162549.041000", "162551.042000", "162553.041000", "162555.041000", "162557.040000", "162559.040000", "162601.040000", "162603.042000", "162605.041000", "162607.041000", "162609.041000", "162611.042000", "162613.040000", "162615.041000", "162617.041000", "162619.041000", "162621.042000", "162623.041000", "162625.042000", "162627.041000", "162629.040000", "162631.041000", "162633.040000", "162635.041000", "162637.041000", "162639.042000", "162641.042000", "162643.042000", "162645.041000", "162647.040000", "162649.041000", "162651.040000", "162653.040000", "162655.042000", "162657.041000", "162659.041000", "162701.041000", "162703.041000", "162705.040000", "162707.040000", "162709.041000", "162711.040000", "162713.042000", "162715.042000", "162717.042000", "162719.042000", "162721.041000", "162723.041000", "162725.041000", "162727.041000", "162729.041000", "162731.049000", "162733.041000", "162735.042000", "162737.042000", "162739.040000", "162741.041000", "162743.041000", "162745.040000", "162747.042000", "162749.042000", "162751.042000", "162753.041000", "162755.042000", "162757.041000", "162759.041000", "162801.041000", "162803.040000", "162805.042000", "162807.042000", "162809.042000", "162811.042000", "162813.042000", "162815.040000", "162816.887000"],
      "InstanceCreationTime": ["162307.546000", "162309.041000", "162311.042000", "162313.041000", "162315.042000", "162317.041000", "162319.040000", "162321.041000", "162323.040000", "162325.041000", "162327.042000", "162329.041000", "162331.042000", "162333.041000", "162335.041000", "162337.041000", "162339.041000", "162341.040000", "162343.041000", "162345.042000", "162347.041000", "162349.042000", "162351.041000", "162353.040000", "162355.041000", "162357.041000", "162359.041000", "162401.041000", "162403.041000", "162405.041000", "162407.041000", "162409.041000", "162411.040000", "162413.040000", "162415.040000", "162417.042000", "162419.042000", "162421.041000", "162423.042000", "162425.042000", "162427.041000", "162429.041000", "162431.041000", "162433.040000", "162435.041000", "162437.041000", "162439.042000", "162441.042000", "162443.041000", "162445.040000", "162447.040000", "162449.040000", "162451.041000", "162453.042000", "162455.042000", "162457.042000", "162459.041000", "162501.041000", "162503.041000", "162505.040000", "162507.041000", "162509.040000", "162511.042000", "162513.042000", "162515.042000", "162517.041000", "162519.041000", "162521.040000", "162523.041000", "162525.041000", "162527.042000", "162529.042000", "162531.042000", "162533.541000", "162535.041000", "162537.040000", "162539.041000", "162541.041000", "162543.041000", "162545.042000", "162547.041000", "162549.041000", "162551.042000", "162553.041000", "162555.041000", "162557.040000", "162559.040000", "162601.040000", "162603.042000", "162605.041000", "162607.041000", "162609.041000", "162611.042000", "162613.040000", "162615.041000", "162617.041000", "162619.041000", "162621.042000", "162623.041000", "162625.042000", "162627.041000", "162629.040000", "162631.041000", "162633.040000", "162635.041000", "162637.041000", "162639.042000", "162641.042000", "162643.042000", "162645.041000", "162647.040000", "162649.041000", "162651.040000", "162653.040000", "162655.042000", "162657.041000", "162659.041000", "162701.041000", "162703.041000", "162705.040000", "162707.040000", "162709.041000", "162711.040000", "162713.042000", "162715.042000", "162717.042000", "162719.042000", "162721.041000", "162723.041000", "162725.041000", "162727.041000", "162729.041000", "162731.049000", "162733.041000", "162735.042000", "162737.042000", "162739.040000", "162741.041000", "162743.041000", "162745.040000", "162747.042000", "162749.042000", "162751.042000", "162753.041000", "162755.042000", "162757.041000", "162759.041000", "162801.041000", "162803.040000", "162805.042000", "162807.042000", "162809.042000", "162811.042000", "162813.042000", "162815.040000", "162816.887000"],
      "InstanceNumber": [1, 2, 3, 4, 5, 6, 7, 8, 9, 10, 11, 12, 13, 14, 15, 16, 17, 18, 19, 20, 21, 22, 23, 24, 25, 26, 27, 28, 29, 30, 31, 32, 33, 34, 35, 36, 37, 38, 39, 40, 41, 42, 43, 44, 45, 46, 47, 48, 49, 50, 51, 52, 53, 54, 55, 56, 57, 58, 59, 60, 61, 62, 63, 64, 65, 66, 67, 68, 69, 70, 71, 72, 73, 74, 75, 76, 77, 78, 79, 80, 81, 82, 83, 84, 85, 86, 87, 88, 89, 90, 91, 92, 93, 94, 95, 96, 97, 98, 99, 100, 101, 102, 103, 104, 105, 106, 107, 108, 109, 110, 111, 112, 113, 114, 115, 116, 117, 118, 119, 120, 121, 122, 123, 124, 125, 126, 127, 128, 129, 130, 131, 132, 133, 134, 135, 136, 137, 138, 139, 140, 141, 142, 143, 144, 145, 146, 147, 148, 149, 150, 151, 152, 153, 154, 155, 156],
      "LargestImagePixelValue": [2550, 2491, 2476, 2453, 2457, 2462, 2463, 2437, 2459, 2467, 2430, 2516, 2482, 2466, 2495, 2465, 2472, 2496, 2513, 2489, 2521, 2516, 2510, 2519, 2523, 2522, 2503, 2543, 2503, 2508, 2516, 2532, 2509, 2520, 2504, 2510, 2536, 2547, 2556, 2536, 2494, 2534, 2506, 2557, 2489, 2530, 2542, 2512, 2557, 2535, 2507, 2534, 2547, 2553, 2518, 2513, 2518, 2508, 2598, 2514, 2564, 2561, 2546, 2598, 2543, 2547, 2523, 2514, 2522, 2519, 2567, 2546, 2585, 2579, 2547, 2582, 2546, 2603, 2576, 2579, 2597, 2550, 2555, 2546, 2563, 2577, 2573, 2595, 2596, 2631, 2598, 2603, 2582, 2569, 2604, 2612, 2642, 2621, 2594, 2603, 2647, 2643, 2629, 2575, 2618, 2547, 2594, 2600, 2630, 2600, 2617, 2623, 2608, 2595, 2589, 2606, 2605, 2575, 2600, 2611, 2613, 2675, 2617, 2629, 2668, 2651, 2679, 2609, 2627, 2621, 2611, 2639, 2614, 2634, 2676, 2607, 2606, 2571, 2597, 2584, 2636, 2601, 2616, 2635, 2612, 2620, 2592, 2618, 2620, 2642, 2627, 2602, 2601, 2635, 2583, 2620],
      "WindowCenter": [724.0, 723.0, 723.0, 723.0, 723.0, 722.0, 722.0, 721.0, 723.0, 723.0, 723.0, 723.0, 723.0, 720.0, 722.0, 724.0, 723.0, 723.0, 722.0, 721.0, 722.0, 722.0, 723.0, 723.0, 723.0, 723.0, 723.0, 723.0, 723.0, 723.0, 723.0, 723.0, 722.0, 723.0, 724.0, 724.0, 724.0, 723.0, 723.0, 723.0, 724.0, 723.0, 722.0, 723.0, 722.0, 723.0, 723.0, 723.0, 723.0, 724.0, 723.0, 723.0, 723.0, 722.0, 721.0, 722.0, 723.0, 723.0, 723.0, 723.0, 724.0, 724.0, 724.0, 725.0, 724.0, 723.0, 722.0, 723.0, 724.0, 724.0, 724.0, 723.0, 723.0, 723.0, 723.0, 724.0, 724.0, 724.0, 724.0, 723.0, 723.0, 724.0, 725.0, 725.0, 724.0, 723.0, 723.0, 724.0, 725.0, 724.0, 723.0, 723.0, 724.0, 725.0, 725.0, 725.0, 725.0, 724.0, 724.0, 724.0, 724.0, 725.0, 724.0, 724.0, 725.0, 724.0, 725.0, 724.0, 724.0, 724.0, 725.0, 725.0, 725.0, 725.0, 725.0, 724.0, 723.0, 724.0, 725.0, 725.0, 724.0, 724.0, 723.0, 724.0, 725.0, 725.0, 726.0, 725.0, 726.0, 724.0, 724.0, 724.0, 724.0, 724.0, 726.0, 726.0, 726.0, 725.0, 724.0, 724.0, 725.0, 725.0, 725.0, 725.0, 726.0, 726.0, 726.0, 725.0, 725.0, 725.0, 726.0, 726.0, 724.0, 724.0, 723.0, 723.0],
      "WindowWidth": [1535.0, 1532.0, 1532.0, 1533.0, 1531.0, 1529.0, 1529.0, 1528.0, 1532.0, 1532.0, 1532.0, 1532.0, 1531.0, 1525.0, 1531.0, 1535.0, 1533.0, 1531.0, 1529.0, 1528.0, 1530.0, 1530.0, 1532.0, 1531.0, 1531.0, 1531.0, 1531.0, 1532.0, 1531.0, 1531.0, 1531.0, 1531.0, 1529.0, 1532.0, 1533.0, 1533.0, 1533.0, 1531.0, 1532.0, 1533.0, 1534.0, 1533.0, 1529.0, 1531.0, 1530.0, 1532.0, 1532.0, 1531.0, 1532.0, 1533.0, 1531.0, 1530.0, 1531.0, 1528.0, 1527.0, 1529.0, 1531.0, 1531.0, 1532.0, 1531.0, 1534.0, 1534.0, 1533.0, 1536.0, 1534.0, 1532.0, 1530.0, 1531.0, 1533.0, 1534.0, 1534.0, 1532.0, 1531.0, 1532.0, 1532.0, 1534.0, 1534.0, 1535.0, 1533.0, 1532.0, 1533.0, 1534.0, 1537.0, 1537.0, 1534.0, 1531.0, 1533.0, 1534.0, 1535.0, 1533.0, 1530.0, 1530.0, 1534.0, 1536.0, 1536.0, 1535.0, 1535.0, 1534.0, 1534.0, 1533.0, 1535.0, 1535.0, 1535.0, 1534.0, 1536.0, 1535.0, 1536.0, 1534.0, 1533.0, 1534.0, 1537.0, 1537.0, 1538.0, 1538.0, 1536.0, 1535.0, 1532.0, 1535.0, 1537.0, 1536.0, 1534.0, 1533.0, 1532.0, 1533.0, 1536.0, 1536.0, 1538.0, 1537.0, 1538.0, 1534.0, 1534.0, 1534.0, 1534.0, 1535.0, 1539.0, 1538.0, 1538.0, 1537.0, 1533.0, 1533.0, 1537.0, 1535.0, 1537.0, 1536.0, 1538.0, 1540.0, 1539.0, 1536.0, 1536.0, 1537.0, 1539.0, 1538.0, 1534.0, 1533.0, 1532.0, 1532.0]
    },
    "slices": {}
  }
}