{
  "AcquisitionMatrixPE": 100,
  "AcquisitionNumber": 1,
  "AcquisitionTime": "09:47:22.062500",
  "BandwidthPerPixelPhaseEncode": 18.519,
  "BaseResolution": 100,
  "BodyPartExamined": "BRAIN",
  "CoilCombinationMethod": "Sum of Squares",
  "ConsistencyInfo": "N4_VE11C_LATEST_20160120",
  "ConversionSoftware": "dcm2niix",
  "ConversionSoftwareVersion": "v1.0.20211006",
  "DerivedVendorReportedEchoSpacing": 0.000539986,
  "DeviceSerialNumber": "166078",
  "DwellTime": 2.1e-06,
  "EchoTime": 0.034,
  "EchoTrainLength": 100,
  "EffectiveEchoSpacing": 0.000539986,
  "FlipAngle": 90,
  "ImageOrientationPatientDICOM": [1, 0, 0, 0, 0.980615, -0.195946],
  "ImageOrientationText": "Tra>Cor(-11.3)",
  "ImageType": [
    "ORIGINAL",
    "PRIMARY",
    "M",
    "ND",
    "MOSAIC"
],
  "ImagingFrequency": 123.258,
  "InPlanePhaseEncodingDirectionDICOM": "COL",
  "InstitutionAddress": "Street StreetNo,Bei Jing,District,CN,ZIP",
  "InstitutionName": "BeiJing Normal University",
  "InstitutionalDepartmentName": "Department",
  "MRAcquisitionType": "2D",
  "MagneticFieldStrength": 3,
  "Manufacturer": "Siemens",
  "ManufacturersModelName": "Prisma",
  "Modality": "MR",
  "MultibandAccelerationFactor": 3,
  "PartialFourier": 1,
  "PatientPosition": "HFS",
  "PercentPhaseFOV": 100,
  "PercentSampling": 100,
  "PhaseEncodingDirection": "j-",
  "PhaseEncodingSteps": 100,
  "PhaseResolution": 1,
  "PixelBandwidth": 2380,
  "ProcedureStepDescription": "BNU_P2018_64CH^Zhen.ZongLei",
  "ProtocolName": "bold_100x100_s3_2x2x2_static_156",
  "PulseSequenceDetails": "%SiemensSeq%\\ep2d_bold",
  "ReceiveCoilActiveElements": "HC1-7;NC1",
  "ReceiveCoilName": "HeadNeck_64",
  "ReconMatrixPE": 100,
  "RefLinesPE": 32,
  "RepetitionTime": 2,
  "SAR": 0.0659885,
  "ScanOptions": "FS",
  "ScanningSequence": "EP",
  "SequenceName": "*epfid2d1_100",
  "SequenceVariant": "SK",
  "SeriesDescription": "bold_100x100_s3_2x2x2_static_156",
  "SeriesNumber": 11,
  "ShimSetting": [-5477, -11505, -1262, 333, -67, -269, -171, 45],
  "SliceThickness": 2,
  "SliceTiming": [1.485, 0, 0.99, 0.0825, 1.0725, 0.165, 1.155, 0.2475, 1.2375, 0.33, 1.32, 0.4125, 1.4025, 0.5775, 1.5675, 0.66, 1.65, 0.7425, 1.7325, 0.825, 1.815, 0.9075, 1.8975, 0.495, 1.485, 0, 0.99, 0.0825, 1.0725, 0.165, 1.155, 0.2475, 1.2375, 0.33, 1.32, 0.4125, 1.4025, 0.5775, 1.5675, 0.66, 1.65, 0.7425, 1.7325, 0.825, 1.815, 0.9075, 1.8975, 0.495, 1.485, 0, 0.99, 0.0825, 1.0725, 0.165, 1.155, 0.2475, 1.2375, 0.33, 1.32, 0.4125, 1.4025, 0.5775, 1.5675, 0.66, 1.65, 0.7425, 1.7325, 0.825, 1.815, 0.9075, 1.8975, 0.495],
  "SoftwareVersions": "syngo MR E11",
  "SpacingBetweenSlices": 2,
  "StationName": "AWP166078",
  "TaskName": "action",
  "TotalReadoutTime": 0.0534586,
  "TxRefAmp": 205.639,
  "dcmmeta_affine": [
    [-2.0, 0.0, 0.0, 101.3559341430664],
    [0.0, 1.9612293243408203, -0.39189228415489197, -84.04277801513672],
    [0.0, 0.39189228415489197, 1.9612293243408203, -82.89900207519531],
    [0.0, 0.0, 0.0, 1.0]
],
  "dcmmeta_reorient_transform": [
    [0.0, -1.0, 0.0, 99.0],
    [1.0, 0.0, 0.0, 0.0],
    [0.0, 0.0, 1.0, 0.0],
    [0.0, 0.0, 0.0, 1.0]
],
  "dcmmeta_shape": [100, 100, 72, 156],
  "dcmmeta_slice_dim": 2,
  "dcmmeta_version": 0.6,
  "global": {
    "const": {
      "AcquisitionMatrix": [100, 0, 0, 100],
      "AngioFlag": "N",
      "BitsAllocated": 16,
      "BitsStored": 12,
      "BodyPartExamined": "BRAIN",
      "Columns": 900,
      "EchoNumbers": 1,
      "EchoTime": 34.0,
      "EchoTrainLength": 100,
      "FlipAngle": 90.0,
      "HighBit": 11,
      "ImageOrientationPatient": [1.0, 0.0, 0.0, 0.0, 0.98061465988951, -0.195946137522],
      "ImagePositionPatient": [-901.35593223572, -894.61064896343, 112.65524233668],
      "ImageType": [
        "ORIGINAL",
        "PRIMARY",
        "M",
        "ND",
        "MOSAIC"
],
      "ImagedNucleus": "1H",
      "ImagingFrequency": 123.257755,
      "InPlanePhaseEncodingDirection": "COL",
      "MRAcquisitionType": "2D",
      "MagneticFieldStrength": 3.0,
      "Manufacturer": "SIEMENS",
      "ManufacturerModelName": "Prisma",
      "Modality": "MR",
      "NumberOfAverages": 1.0,
      "NumberOfPhaseEncodingSteps": 100,
      "PercentPhaseFieldOfView": 100.0,
      "PercentSampling": 100.0,
      "PerformedProcedureStepStartTime": "090048.041000",
      "PhotometricInterpretation": "MONOCHROME2",
      "PixelBandwidth": 2380.0,
      "PixelRepresentation": 0,
      "PixelSpacing": [2.0, 2.0],
      "ProtocolName": "bold_100x100_s3_2x2x2_static_156",
      "RepetitionTime": 2000.0,
      "Rows": 900,
      "SAR": 0.06598855024734,
      "SamplesPerPixel": 1,
      "ScanOptions": "FS",
      "ScanningSequence": "EP",
      "SequenceName": "*epfid2d1_100",
      "SequenceVariant": "SK",
      "SeriesDescription": "bold_100x100_s3_2x2x2_static_156",
      "SeriesNumber": 11,
      "SeriesTime": "094724.980000",
      "SliceLocation": -64.824119101665,
      "SliceThickness": 2.0,
      "SmallestImagePixelValue": 0,
      "SoftwareVersions": "syngo MR E11",
      "SpacingBetweenSlices": 2.0000000354806,
      "SpecificCharacterSet": "ISO_IR 100",
      "StudyID": "1",
      "StudyTime": "090047.842000",
      "TransmitCoilName": "Body",
      "VariableFlipAngleFlag": "N",
      "WindowCenterWidthExplanation": "Algo1",
      "dBdt": 0.0},
    "slices": {}
  },
  "time": {
    "samples": {
      "AcquisitionNumber": [1, 2, 3, 4, 5, 6, 7, 8, 9, 10, 11, 12, 13, 14, 15, 16, 17, 18, 19, 20, 21, 22, 23, 24, 25, 26, 27, 28, 29, 30, 31, 32, 33, 34, 35, 36, 37, 38, 39, 40, 41, 42, 43, 44, 45, 46, 47, 48, 49, 50, 51, 52, 53, 54, 55, 56, 57, 58, 59, 60, 61, 62, 63, 64, 65, 66, 67, 68, 69, 70, 71, 72, 73, 74, 75, 76, 77, 78, 79, 80, 81, 82, 83, 84, 85, 86, 87, 88, 89, 90, 91, 92, 93, 94, 95, 96, 97, 98, 99, 100, 101, 102, 103, 104, 105, 106, 107, 108, 109, 110, 111, 112, 113, 114, 115, 116, 117, 118, 119, 120, 121, 122, 123, 124, 125, 126, 127, 128, 129, 130, 131, 132, 133, 134, 135, 136, 137, 138, 139, 140, 141, 142, 143, 144, 145, 146, 147, 148, 149, 150, 151, 152, 153, 154, 155, 156],
      "AcquisitionTime": ["094722.062500", "094724.062500", "094726.062500", "094728.062500", "094730.062500", "094732.062500", "094734.062500", "094736.062500", "094738.062500", "094740.062500", "094742.062500", "094744.062500", "094746.062500", "094748.062500", "094750.062500", "094752.062500", "094754.062500", "094756.062500", "094758.062500", "094800.062500", "094802.062500", "094804.062500", "094806.062500", "094808.062500", "094810.062500", "094812.062500", "094814.062500", "094816.062500", "094818.062500", "094820.062500", "094822.062500", "094824.062500", "094826.062500", "094828.062500", "094830.062500", "094832.062500", "094834.062500", "094836.062500", "094838.062500", "094840.062500", "094842.062500", "094844.062500", "094846.062500", "094848.062500", "094850.062500", "094852.062500", "094854.062500", "094856.062500", "094858.062500", "094900.062500", "094902.062500", "094904.062500", "094906.062500", "094908.062500", "094910.062500", "094912.062500", "094914.062500", "094916.062500", "094918.062500", "094920.062500", "094922.062500", "094924.062500", "094926.062500", "094928.062500", "094930.062500", "094932.062500", "094934.062500", "094936.062500", "094938.062500", "094940.062500", "094942.062500", "094944.062500", "094946.062500", "094948.062500", "094950.062500", "094952.062500", "094954.062500", "094956.062500", "094958.062500", "095000.062500", "095002.062500", "095004.062500", "095006.062500", "095008.062500", "095010.062500", "095012.062500", "095014.062500", "095016.062500", "095018.062500", "095020.062500", "095022.062500", "095024.062500", "095026.062500", "095028.062500", "095030.062500", "095032.062500", "095034.062500", "095036.062500", "095038.062500", "095040.062500", "095042.062500", "095044.062500", "095046.062500", "095048.062500", "095050.062500", "095052.062500", "095054.062500", "095056.062500", "095058.062500", "095100.062500", "095102.062500", "095104.062500", "095106.062500", "095108.062500", "095110.062500", "095112.062500", "095114.062500", "095116.062500", "095118.062500", "095120.062500", "095122.062500", "095124.062500", "095126.062500", "095128.062500", "095130.062500", "095132.062500", "095134.062500", "095136.062500", "095138.062500", "095140.062500", "095142.062500", "095144.062500", "095146.062500", "095148.062500", "095150.062500", "095152.062500", "095154.062500", "095156.062500", "095158.062500", "095200.062500", "095202.062500", "095204.062500", "095206.062500", "095208.062500", "095210.062500", "095212.062500", "095214.062500", "095216.062500", "095218.062500", "095220.062500", "095222.062500", "095224.062500", "095226.062500", "095228.062500", "095230.062500", "095232.062500"],
      "ContentTime": ["094724.983000", "094726.479000", "094728.479000", "094730.479000", "094732.479000", "094734.479000", "094736.479000", "094738.479000", "094740.479000", "094742.479000", "094744.480000", "094746.480000", "094748.479000", "094750.479000", "094752.479000", "094754.480000", "094756.480000", "094758.479000", "094800.480000", "094802.480000", "094804.479000", "094806.479000", "094808.480000", "094810.480000", "094812.479000", "094814.480000", "094816.480000", "094818.480000", "094820.480000", "094822.480000", "094823.980000", "094826.479000", "094828.479000", "094829.979000", "094832.480000", "094834.480000", "094836.480000", "094838.479000", "094840.480000", "094842.479000", "094844.479000", "094846.479000", "094848.480000", "094850.480000", "094852.479000", "094854.479000", "094856.479000", "094858.480000", "094900.479000", "094902.479000", "094904.480000", "094906.479000", "094908.480000", "094910.479000", "094912.480000", "094914.480000", "094916.480000", "094918.479000", "094920.479000", "094922.480000", "094924.480000", "094926.480000", "094928.479000", "094930.480000", "094932.480000", "094934.480000", "094936.480000", "094938.480000", "094940.480000", "094942.480000", "094944.479000", "094946.480000", "094948.479000", "094950.479000", "094952.479000", "094954.479000", "094956.479000", "094958.479000", "095000.480000", "095002.479000", "095004.479000", "095005.979000", "095008.479000", "095009.979000", "095012.479000", "095014.479000", "095016.479000", "095018.479000", "095020.480000", "095022.479000", "095024.480000", "095026.480000", "095028.480000", "095030.479000", "095032.480000", "095034.479000", "095036.479000", "095038.479000", "095040.479000", "095042.479000", "095044.480000", "095046.480000", "095048.479000", "095050.479000", "095052.479000", "095054.480000", "095056.479000", "095058.480000", "095100.479000", "095102.480000", "095104.480000", "095106.480000", "095108.479000", "095110.480000", "095112.480000", "095114.480000", "095116.480000", "095118.479000", "095120.479000", "095122.480000", "095124.480000", "095126.480000", "095128.479000", "095130.480000", "095132.479000", "095134.479000", "095136.480000", "095138.480000", "095140.479000", "095142.479000", "095144.480000", "095146.479000", "095148.480000", "095150.480000", "095152.480000", "095154.480000", "095156.479000", "095158.480000", "095200.479000", "095202.480000", "095204.480000", "095206.480000", "095208.480000", "095210.480000", "095212.479000", "095214.480000", "095216.479000", "095218.479000", "095220.480000", "095222.479000", "095224.480000", "095226.479000", "095228.479000", "095230.479000", "095232.479000", "095234.062000"],
      "InstanceCreationTime": ["094724.983000", "094726.479000", "094728.479000", "094730.479000", "094732.479000", "094734.479000", "094736.479000", "094738.479000", "094740.479000", "094742.479000", "094744.480000", "094746.480000", "094748.479000", "094750.479000", "094752.479000", "094754.480000", "094756.480000", "094758.479000", "094800.480000", "094802.480000", "094804.479000", "094806.479000", "094808.480000", "094810.480000", "094812.479000", "094814.480000", "094816.480000", "094818.480000", "094820.480000", "094822.480000", "094823.980000", "094826.479000", "094828.479000", "094829.979000", "094832.480000", "094834.480000", "094836.480000", "094838.479000", "094840.480000", "094842.479000", "094844.479000", "094846.479000", "094848.480000", "094850.480000", "094852.479000", "094854.479000", "094856.479000", "094858.480000", "094900.479000", "094902.479000", "094904.480000", "094906.479000", "094908.480000", "094910.479000", "094912.480000", "094914.480000", "094916.480000", "094918.479000", "094920.479000", "094922.480000", "094924.480000", "094926.480000", "094928.479000", "094930.480000", "094932.480000", "094934.480000", "094936.480000", "094938.480000", "094940.480000", "094942.480000", "094944.479000", "094946.480000", "094948.479000", "094950.479000", "094952.479000", "094954.479000", "094956.479000", "094958.479000", "095000.480000", "095002.479000", "095004.479000", "095005.979000", "095008.479000", "095009.979000", "095012.479000", "095014.479000", "095016.479000", "095018.479000", "095020.480000", "095022.479000", "095024.480000", "095026.480000", "095028.480000", "095030.479000", "095032.480000", "095034.479000", "095036.479000", "095038.479000", "095040.479000", "095042.479000", "095044.480000", "095046.480000", "095048.479000", "095050.479000", "095052.479000", "095054.480000", "095056.479000", "095058.480000", "095100.479000", "095102.480000", "095104.480000", "095106.480000", "095108.479000", "095110.480000", "095112.480000", "095114.480000", "095116.480000", "095118.479000", "095120.479000", "095122.480000", "095124.480000", "095126.480000", "095128.479000", "095130.480000", "095132.479000", "095134.479000", "095136.480000", "095138.480000", "095140.479000", "095142.479000", "095144.480000", "095146.479000", "095148.480000", "095150.480000", "095152.480000", "095154.480000", "095156.479000", "095158.480000", "095200.479000", "095202.480000", "095204.480000", "095206.480000", "095208.480000", "095210.480000", "095212.479000", "095214.480000", "095216.479000", "095218.479000", "095220.480000", "095222.479000", "095224.480000", "095226.479000", "095228.479000", "095230.479000", "095232.479000", "095234.062000"],
      "InstanceNumber": [1, 2, 3, 4, 5, 6, 7, 8, 9, 10, 11, 12, 13, 14, 15, 16, 17, 18, 19, 20, 21, 22, 23, 24, 25, 26, 27, 28, 29, 30, 31, 32, 33, 34, 35, 36, 37, 38, 39, 40, 41, 42, 43, 44, 45, 46, 47, 48, 49, 50, 51, 52, 53, 54, 55, 56, 57, 58, 59, 60, 61, 62, 63, 64, 65, 66, 67, 68, 69, 70, 71, 72, 73, 74, 75, 76, 77, 78, 79, 80, 81, 82, 83, 84, 85, 86, 87, 88, 89, 90, 91, 92, 93, 94, 95, 96, 97, 98, 99, 100, 101, 102, 103, 104, 105, 106, 107, 108, 109, 110, 111, 112, 113, 114, 115, 116, 117, 118, 119, 120, 121, 122, 123, 124, 125, 126, 127, 128, 129, 130, 131, 132, 133, 134, 135, 136, 137, 138, 139, 140, 141, 142, 143, 144, 145, 146, 147, 148, 149, 150, 151, 152, 153, 154, 155, 156],
      "LargestImagePixelValue": [3258, 3201, 3125, 3140, 3173, 3213, 3187, 3217, 3251, 3198, 3215, 3210, 3186, 3193, 3233, 3238, 3185, 3205, 3221, 3197, 3181, 3200, 3221, 3251, 3192, 3203, 3259, 3239, 3238, 3226, 3254, 3245, 3174, 3208, 3251, 3252, 3239, 3161, 3216, 3246, 3213, 3181, 3210, 3181, 3189, 3209, 3167, 3209, 3230, 3261, 3181, 3209, 3239, 3208, 3236, 3244, 3237, 3270, 3226, 3264, 3268, 3217, 3236, 3239, 3199, 3236, 3214, 3242, 3193, 3209, 3177, 3134, 3170, 3155, 3172, 3174, 3182, 3203, 3197, 3191, 3203, 3236, 3196, 3152, 3152, 3185, 3165, 3148, 3148, 3208, 3135, 3196, 3226, 3185, 3144, 3186, 3155, 3207, 3188, 3127, 3151, 3211, 3206, 3184, 3127, 3186, 3229, 3161, 3192, 3244, 3191, 3211, 3172, 3273, 3306, 3251, 3294, 3275, 3289, 3200, 3231, 3207, 3199, 3207, 3216, 3167, 3189, 3185, 3230, 3129, 3163, 3212, 3138, 3195, 3206, 3220, 3230, 3190, 3224, 3225, 3260, 3218, 3137, 3169, 3235, 3244, 3265, 3275, 3186, 3201, 3210, 3213, 3260, 3221, 3226, 3185],
      "WindowCenter": [764.0, 762.0, 761.0, 762.0, 762.0, 761.0, 760.0, 759.0, 759.0, 759.0, 760.0, 759.0, 759.0, 760.0, 761.0, 760.0, 760.0, 761.0, 761.0, 760.0, 761.0, 761.0, 760.0, 760.0, 760.0, 760.0, 760.0, 761.0, 761.0, 761.0, 760.0, 760.0, 760.0, 761.0, 762.0, 762.0, 763.0, 762.0, 762.0, 763.0, 762.0, 762.0, 762.0, 762.0, 763.0, 764.0, 763.0, 762.0, 762.0, 762.0, 762.0, 763.0, 763.0, 762.0, 762.0, 762.0, 762.0, 763.0, 762.0, 762.0, 762.0, 762.0, 762.0, 761.0, 761.0, 761.0, 760.0, 761.0, 762.0, 762.0, 761.0, 761.0, 761.0, 761.0, 762.0, 762.0, 762.0, 761.0, 760.0, 760.0, 760.0, 761.0, 761.0, 761.0, 761.0, 761.0, 762.0, 762.0, 762.0, 761.0, 759.0, 759.0, 761.0, 761.0, 761.0, 760.0, 759.0, 761.0, 761.0, 761.0, 761.0, 761.0, 761.0, 761.0, 761.0, 762.0, 762.0, 762.0, 761.0, 762.0, 762.0, 762.0, 761.0, 761.0, 761.0, 760.0, 761.0, 761.0, 762.0, 761.0, 762.0, 762.0, 762.0, 762.0, 761.0, 761.0, 761.0, 761.0, 761.0, 760.0, 761.0, 762.0, 761.0, 761.0, 761.0, 761.0, 761.0, 761.0, 760.0, 760.0, 762.0, 762.0, 762.0, 761.0, 761.0, 760.0, 760.0, 761.0, 761.0, 761.0, 761.0, 760.0, 759.0, 759.0, 760.0, 760.0],
      "WindowWidth": [1655.0, 1651.0, 1648.0, 1650.0, 1649.0, 1648.0, 1644.0, 1642.0, 1642.0, 1642.0, 1644.0, 1643.0, 1643.0, 1645.0, 1648.0, 1646.0, 1645.0, 1646.0, 1646.0, 1646.0, 1648.0, 1647.0, 1645.0, 1644.0, 1643.0, 1643.0, 1645.0, 1646.0, 1648.0, 1648.0, 1646.0, 1645.0, 1644.0, 1646.0, 1649.0, 1651.0, 1652.0, 1649.0, 1651.0, 1652.0, 1651.0, 1649.0, 1650.0, 1651.0, 1654.0, 1655.0, 1651.0, 1649.0, 1649.0, 1650.0, 1650.0, 1651.0, 1653.0, 1651.0, 1649.0, 1648.0, 1650.0, 1651.0, 1649.0, 1649.0, 1649.0, 1649.0, 1649.0, 1648.0, 1645.0, 1646.0, 1644.0, 1647.0, 1650.0, 1651.0, 1648.0, 1646.0, 1647.0, 1647.0, 1649.0, 1650.0, 1650.0, 1647.0, 1643.0, 1643.0, 1645.0, 1647.0, 1647.0, 1647.0, 1646.0, 1647.0, 1649.0, 1651.0, 1650.0, 1647.0, 1643.0, 1643.0, 1647.0, 1648.0, 1646.0, 1644.0, 1643.0, 1647.0, 1648.0, 1647.0, 1648.0, 1649.0, 1648.0, 1648.0, 1647.0, 1650.0, 1651.0, 1649.0, 1648.0, 1650.0, 1649.0, 1649.0, 1646.0, 1646.0, 1646.0, 1645.0, 1646.0, 1647.0, 1649.0, 1647.0, 1650.0, 1650.0, 1650.0, 1649.0, 1647.0, 1646.0, 1646.0, 1646.0, 1646.0, 1645.0, 1646.0, 1649.0, 1647.0, 1647.0, 1648.0, 1648.0, 1647.0, 1646.0, 1644.0, 1644.0, 1648.0, 1650.0, 1648.0, 1646.0, 1645.0, 1644.0, 1644.0, 1646.0, 1646.0, 1647.0, 1646.0, 1642.0, 1641.0, 1641.0, 1643.0, 1644.0]
    },
    "slices": {}
  }
}