{
  "AcquisitionMatrixPE": 100,
  "AcquisitionNumber": 1,
  "AcquisitionTime": "09:08:51.490000",
  "BandwidthPerPixelPhaseEncode": 18.519,
  "BaseResolution": 100,
  "BodyPartExamined": "BRAIN",
  "CoilCombinationMethod": "Sum of Squares",
  "ConsistencyInfo": "N4_VE11C_LATEST_20160120",
  "ConversionSoftware": "dcm2niix",
  "ConversionSoftwareVersion": "v1.0.20211006",
  "DerivedVendorReportedEchoSpacing": 0.000539986,
  "DeviceSerialNumber": "166078",
  "DwellTime": 2.1e-06,
  "EchoTime": 0.034,
  "EchoTrainLength": 100,
  "EffectiveEchoSpacing": 0.000539986,
  "FlipAngle": 90,
  "ImageOrientationPatientDICOM": [1, 0, 0, 0, 0.980615, -0.195946],
  "ImageOrientationText": "Tra>Cor(-11.3)",
  "ImageType": [
    "ORIGINAL",
    "PRIMARY",
    "M",
    "ND",
    "MOSAIC"
],
  "ImagingFrequency": 123.258,
  "InPlanePhaseEncodingDirectionDICOM": "COL",
  "InstitutionAddress": "Street StreetNo,Bei Jing,District,CN,ZIP",
  "InstitutionName": "BeiJing Normal University",
  "InstitutionalDepartmentName": "Department",
  "MRAcquisitionType": "2D",
  "MagneticFieldStrength": 3,
  "Manufacturer": "Siemens",
  "ManufacturersModelName": "Prisma",
  "Modality": "MR",
  "MultibandAccelerationFactor": 3,
  "PartialFourier": 1,
  "PatientPosition": "HFS",
  "PercentPhaseFOV": 100,
  "PercentSampling": 100,
  "PhaseEncodingDirection": "j-",
  "PhaseEncodingSteps": 100,
  "PhaseResolution": 1,
  "PixelBandwidth": 2380,
  "ProcedureStepDescription": "BNU_P2018_64CH^Zhen.ZongLei",
  "ProtocolName": "bold_100x100_s3_2x2x2_static_156",
  "PulseSequenceDetails": "%SiemensSeq%\\ep2d_bold",
  "ReceiveCoilActiveElements": "HC1-7;NC1",
  "ReceiveCoilName": "HeadNeck_64",
  "ReconMatrixPE": 100,
  "RefLinesPE": 32,
  "RepetitionTime": 2,
  "SAR": 0.0659885,
  "ScanOptions": "FS",
  "ScanningSequence": "EP",
  "SequenceName": "*epfid2d1_100",
  "SequenceVariant": "SK",
  "SeriesDescription": "bold_100x100_s3_2x2x2_static_156",
  "SeriesNumber": 3,
  "ShimSetting": [-5477, -11505, -1262, 333, -67, -269, -171, 45],
  "SliceThickness": 2,
  "SliceTiming": [1.485, 0, 0.99, 0.0825, 1.0725, 0.165, 1.155, 0.2475, 1.2375, 0.33, 1.32, 0.4125, 1.4025, 0.5775, 1.5675, 0.66, 1.65, 0.7425, 1.7325, 0.825, 1.815, 0.9075, 1.8975, 0.495, 1.485, 0, 0.99, 0.0825, 1.0725, 0.165, 1.155, 0.2475, 1.2375, 0.33, 1.32, 0.4125, 1.4025, 0.5775, 1.5675, 0.66, 1.65, 0.7425, 1.7325, 0.825, 1.815, 0.9075, 1.8975, 0.495, 1.485, 0, 0.99, 0.0825, 1.0725, 0.165, 1.155, 0.2475, 1.2375, 0.33, 1.32, 0.4125, 1.4025, 0.5775, 1.5675, 0.66, 1.65, 0.7425, 1.7325, 0.825, 1.815, 0.9075, 1.8975, 0.495],
  "SoftwareVersions": "syngo MR E11",
  "SpacingBetweenSlices": 2,
  "StationName": "AWP166078",
  "TaskName": "action",
  "TotalReadoutTime": 0.0534586,
  "TxRefAmp": 205.639,
  "dcmmeta_affine": [
    [-2.0, 0.0, 0.0, 101.3559341430664],
    [0.0, 1.9612293243408203, -0.39189228415489197, -84.04277801513672],
    [0.0, 0.39189228415489197, 1.9612293243408203, -82.89900207519531],
    [0.0, 0.0, 0.0, 1.0]
],
  "dcmmeta_reorient_transform": [
    [0.0, -1.0, 0.0, 99.0],
    [1.0, 0.0, 0.0, 0.0],
    [0.0, 0.0, 1.0, 0.0],
    [0.0, 0.0, 0.0, 1.0]
],
  "dcmmeta_shape": [100, 100, 72, 156],
  "dcmmeta_slice_dim": 2,
  "dcmmeta_version": 0.6,
  "global": {
    "const": {
      "AcquisitionMatrix": [100, 0, 0, 100],
      "AngioFlag": "N",
      "BitsAllocated": 16,
      "BitsStored": 12,
      "BodyPartExamined": "BRAIN",
      "Columns": 900,
      "EchoNumbers": 1,
      "EchoTime": 34.0,
      "EchoTrainLength": 100,
      "FlipAngle": 90.0,
      "HighBit": 11,
      "ImageOrientationPatient": [1.0, 0.0, 0.0, 0.0, 0.98061465988951, -0.195946137522],
      "ImagePositionPatient": [-901.35593223572, -894.61064896343, 112.65524233668],
      "ImageType": [
        "ORIGINAL",
        "PRIMARY",
        "M",
        "ND",
        "MOSAIC"
],
      "ImagedNucleus": "1H",
      "ImagingFrequency": 123.257748,
      "InPlanePhaseEncodingDirection": "COL",
      "MRAcquisitionType": "2D",
      "MagneticFieldStrength": 3.0,
      "Manufacturer": "SIEMENS",
      "ManufacturerModelName": "Prisma",
      "Modality": "MR",
      "NumberOfAverages": 1.0,
      "NumberOfPhaseEncodingSteps": 100,
      "PercentPhaseFieldOfView": 100.0,
      "PercentSampling": 100.0,
      "PerformedProcedureStepStartTime": "090048.041000",
      "PhotometricInterpretation": "MONOCHROME2",
      "PixelBandwidth": 2380.0,
      "PixelRepresentation": 0,
      "PixelSpacing": [2.0, 2.0],
      "ProtocolName": "bold_100x100_s3_2x2x2_static_156",
      "RepetitionTime": 2000.0,
      "Rows": 900,
      "SAR": 0.06598855024734,
      "SamplesPerPixel": 1,
      "ScanOptions": "FS",
      "ScanningSequence": "EP",
      "SequenceName": "*epfid2d1_100",
      "SequenceVariant": "SK",
      "SeriesDescription": "bold_100x100_s3_2x2x2_static_156",
      "SeriesNumber": 3,
      "SeriesTime": "090854.392000",
      "SliceLocation": -64.824119101665,
      "SliceThickness": 2.0,
      "SmallestImagePixelValue": 0,
      "SoftwareVersions": "syngo MR E11",
      "SpacingBetweenSlices": 2.0000000354806,
      "SpecificCharacterSet": "ISO_IR 100",
      "StudyID": "1",
      "StudyTime": "090047.842000",
      "TransmitCoilName": "Body",
      "VariableFlipAngleFlag": "N",
      "WindowCenterWidthExplanation": "Algo1",
      "dBdt": 0.0},
    "slices": {}
  },
  "time": {
    "samples": {
      "AcquisitionNumber": [1, 2, 3, 4, 5, 6, 7, 8, 9, 10, 11, 12, 13, 14, 15, 16, 17, 18, 19, 20, 21, 22, 23, 24, 25, 26, 27, 28, 29, 30, 31, 32, 33, 34, 35, 36, 37, 38, 39, 40, 41, 42, 43, 44, 45, 46, 47, 48, 49, 50, 51, 52, 53, 54, 55, 56, 57, 58, 59, 60, 61, 62, 63, 64, 65, 66, 67, 68, 69, 70, 71, 72, 73, 74, 75, 76, 77, 78, 79, 80, 81, 82, 83, 84, 85, 86, 87, 88, 89, 90, 91, 92, 93, 94, 95, 96, 97, 98, 99, 100, 101, 102, 103, 104, 105, 106, 107, 108, 109, 110, 111, 112, 113, 114, 115, 116, 117, 118, 119, 120, 121, 122, 123, 124, 125, 126, 127, 128, 129, 130, 131, 132, 133, 134, 135, 136, 137, 138, 139, 140, 141, 142, 143, 144, 145, 146, 147, 148, 149, 150, 151, 152, 153, 154, 155, 156],
      "AcquisitionTime": ["090851.490000", "090853.490000", "090855.490000", "090857.490000", "090859.490000", "090901.490000", "090903.490000", "090905.490000", "090907.490000", "090909.490000", "090911.490000", "090913.490000", "090915.490000", "090917.490000", "090919.490000", "090921.490000", "090923.490000", "090925.490000", "090927.490000", "090929.490000", "090931.490000", "090933.490000", "090935.490000", "090937.490000", "090939.490000", "090941.490000", "090943.490000", "090945.490000", "090947.490000", "090949.490000", "090951.490000", "090953.490000", "090955.490000", "090957.490000", "090959.490000", "091001.490000", "091003.490000", "091005.490000", "091007.490000", "091009.490000", "091011.490000", "091013.490000", "091015.490000", "091017.490000", "091019.490000", "091021.490000", "091023.490000", "091025.490000", "091027.490000", "091029.490000", "091031.490000", "091033.490000", "091035.490000", "091037.490000", "091039.490000", "091041.490000", "091043.490000", "091045.490000", "091047.490000", "091049.490000", "091051.490000", "091053.490000", "091055.490000", "091057.490000", "091059.490000", "091101.490000", "091103.490000", "091105.490000", "091107.490000", "091109.490000", "091111.490000", "091113.490000", "091115.490000", "091117.490000", "091119.490000", "091121.490000", "091123.490000", "091125.490000", "091127.490000", "091129.490000", "091131.490000", "091133.490000", "091135.490000", "091137.490000", "091139.490000", "091141.490000", "091143.490000", "091145.490000", "091147.490000", "091149.490000", "091151.490000", "091153.490000", "091155.490000", "091157.490000", "091159.490000", "091201.490000", "091203.490000", "091205.490000", "091207.490000", "091209.490000", "091211.490000", "091213.490000", "091215.490000", "091217.490000", "091219.490000", "091221.490000", "091223.490000", "091225.490000", "091227.490000", "091229.490000", "091231.490000", "091233.490000", "091235.490000", "091237.490000", "091239.490000", "091241.490000", "091243.490000", "091245.490000", "091247.490000", "091249.490000", "091251.490000", "091253.490000", "091255.490000", "091257.490000", "091259.490000", "091301.490000", "091303.490000", "091305.490000", "091307.490000", "091309.490000", "091311.490000", "091313.490000", "091315.490000", "091317.490000", "091319.490000", "091321.490000", "091323.490000", "091325.490000", "091327.490000", "091329.490000", "091331.490000", "091333.490000", "091335.490000", "091337.490000", "091339.490000", "091341.490000", "091343.490000", "091345.490000", "091347.490000", "091349.490000", "091351.490000", "091353.490000", "091355.490000", "091357.490000", "091359.490000", "091401.490000"],
      "ContentTime": ["090854.415000", "090855.796000", "090857.796000", "090859.796000", "090901.795000", "090903.796000", "090905.796000", "090907.795000", "090909.795000", "090911.795000", "090913.795000", "090915.295000", "090917.795000", "090919.796000", "090921.795000", "090923.295000", "090925.795000", "090927.296000", "090929.296000", "090931.295000", "090933.296000", "090935.795000", "090937.295000", "090939.795000", "090941.796000", "090943.295000", "090945.796000", "090947.296000", "090949.796000", "090951.796000", "090953.795000", "090955.796000", "090957.796000", "090959.796000", "091001.296000", "091003.296000", "091005.296000", "091007.296000", "091009.795000", "091011.796000", "091013.795000", "091015.296000", "091017.796000", "091019.295000", "091021.295000", "091023.795000", "091025.796000", "091027.796000", "091029.296000", "091031.796000", "091033.796000", "091035.295000", "091037.796000", "091039.295000", "091041.295000", "091043.795000", "091045.795000", "091047.295000", "091049.296000", "091051.796000", "091053.796000", "091055.296000", "091057.795000", "091059.796000", "091101.796000", "091103.295000", "091105.795000", "091107.296000", "091109.795000", "091111.796000", "091113.296000", "091115.296000", "091117.295000", "091119.795000", "091121.295000", "091123.796000", "091125.295000", "091127.296000", "091129.796000", "091131.296000", "091133.296000", "091135.795000", "091137.795000", "091139.796000", "091141.296000", "091143.296000", "091145.796000", "091147.796000", "091149.795000", "091151.796000", "091153.795000", "091155.296000", "091157.296000", "091159.296000", "091201.296000", "091203.295000", "091205.296000", "091207.296000", "091209.295000", "091211.795000", "091213.295000", "091215.795000", "091217.796000", "091219.295000", "091221.796000", "091223.296000", "091225.295000", "091227.295000", "091229.796000", "091231.796000", "091233.295000", "091235.795000", "091237.796000", "091239.295000", "091241.295000", "091243.796000", "091245.296000", "091247.796000", "091249.796000", "091251.796000", "091253.796000", "091255.796000", "091257.796000", "091259.796000", "091301.295000", "091303.795000", "091305.796000", "091307.795000", "091309.296000", "091311.796000", "091313.295000", "091315.796000", "091317.795000", "091319.295000", "091321.796000", "091323.296000", "091325.796000", "091327.796000", "091329.295000", "091331.296000", "091333.796000", "091335.795000", "091337.295000", "091339.295000", "091341.296000", "091343.296000", "091345.796000", "091347.796000", "091349.295000", "091351.795000", "091353.796000", "091355.795000", "091357.795000", "091359.795000", "091401.795000", "091403.294000"],
      "InstanceCreationTime": ["090854.415000", "090855.796000", "090857.796000", "090859.796000", "090901.795000", "090903.796000", "090905.796000", "090907.795000", "090909.795000", "090911.795000", "090913.795000", "090915.295000", "090917.795000", "090919.796000", "090921.795000", "090923.295000", "090925.795000", "090927.296000", "090929.296000", "090931.295000", "090933.296000", "090935.795000", "090937.295000", "090939.795000", "090941.796000", "090943.295000", "090945.796000", "090947.296000", "090949.796000", "090951.796000", "090953.795000", "090955.796000", "090957.796000", "090959.796000", "091001.296000", "091003.296000", "091005.296000", "091007.296000", "091009.795000", "091011.796000", "091013.795000", "091015.296000", "091017.796000", "091019.295000", "091021.295000", "091023.795000", "091025.796000", "091027.796000", "091029.296000", "091031.796000", "091033.796000", "091035.295000", "091037.796000", "091039.295000", "091041.295000", "091043.795000", "091045.795000", "091047.295000", "091049.296000", "091051.796000", "091053.796000", "091055.296000", "091057.795000", "091059.796000", "091101.796000", "091103.295000", "091105.795000", "091107.296000", "091109.795000", "091111.796000", "091113.296000", "091115.296000", "091117.295000", "091119.795000", "091121.295000", "091123.796000", "091125.295000", "091127.296000", "091129.796000", "091131.296000", "091133.296000", "091135.795000", "091137.795000", "091139.796000", "091141.296000", "091143.296000", "091145.796000", "091147.796000", "091149.795000", "091151.796000", "091153.795000", "091155.296000", "091157.296000", "091159.296000", "091201.296000", "091203.295000", "091205.296000", "091207.296000", "091209.295000", "091211.795000", "091213.295000", "091215.795000", "091217.796000", "091219.295000", "091221.796000", "091223.296000", "091225.295000", "091227.295000", "091229.796000", "091231.796000", "091233.295000", "091235.795000", "091237.796000", "091239.295000", "091241.295000", "091243.796000", "091245.296000", "091247.796000", "091249.796000", "091251.796000", "091253.796000", "091255.796000", "091257.796000", "091259.796000", "091301.295000", "091303.795000", "091305.796000", "091307.795000", "091309.296000", "091311.796000", "091313.295000", "091315.796000", "091317.795000", "091319.295000", "091321.796000", "091323.296000", "091325.796000", "091327.796000", "091329.295000", "091331.296000", "091333.796000", "091335.795000", "091337.295000", "091339.295000", "091341.296000", "091343.296000", "091345.796000", "091347.796000", "091349.295000", "091351.795000", "091353.796000", "091355.795000", "091357.795000", "091359.795000", "091401.795000", "091403.294000"],
      "InstanceNumber": [1, 2, 3, 4, 5, 6, 7, 8, 9, 10, 11, 12, 13, 14, 15, 16, 17, 18, 19, 20, 21, 22, 23, 24, 25, 26, 27, 28, 29, 30, 31, 32, 33, 34, 35, 36, 37, 38, 39, 40, 41, 42, 43, 44, 45, 46, 47, 48, 49, 50, 51, 52, 53, 54, 55, 56, 57, 58, 59, 60, 61, 62, 63, 64, 65, 66, 67, 68, 69, 70, 71, 72, 73, 74, 75, 76, 77, 78, 79, 80, 81, 82, 83, 84, 85, 86, 87, 88, 89, 90, 91, 92, 93, 94, 95, 96, 97, 98, 99, 100, 101, 102, 103, 104, 105, 106, 107, 108, 109, 110, 111, 112, 113, 114, 115, 116, 117, 118, 119, 120, 121, 122, 123, 124, 125, 126, 127, 128, 129, 130, 131, 132, 133, 134, 135, 136, 137, 138, 139, 140, 141, 142, 143, 144, 145, 146, 147, 148, 149, 150, 151, 152, 153, 154, 155, 156],
      "LargestImagePixelValue": [3303, 3239, 3236, 3262, 3251, 3214, 3187, 3226, 3233, 3257, 3273, 3255, 3213, 3235, 3254, 3262, 3233, 3246, 3224, 3192, 3218, 3253, 3225, 3234, 3236, 3218, 3193, 3204, 3228, 3238, 3247, 3241, 3216, 3194, 3213, 3218, 3232, 3198, 3216, 3199, 3213, 3222, 3195, 3239, 3271, 3246, 3215, 3223, 3237, 3254, 3268, 3213, 3211, 3197, 3232, 3239, 3242, 3222, 3182, 3198, 3211, 3244, 3283, 3294, 3229, 3248, 3264, 3215, 3213, 3195, 3182, 3201, 3177, 3194, 3218, 3199, 3153, 3160, 3179, 3198, 3205, 3246, 3231, 3172, 3180, 3241, 3265, 3239, 3229, 3191, 3213, 3171, 3217, 3245, 3237, 3261, 3244, 3229, 3235, 3217, 3195, 3180, 3217, 3228, 3205, 3208, 3192, 3178, 3209, 3200, 3226, 3250, 3214, 3191, 3198, 3184, 3200, 3236, 3187, 3212, 3199, 3218, 3225, 3186, 3223, 3209, 3189, 3195, 3187, 3165, 3187, 3193, 3197, 3206, 3225, 3204, 3192, 3207, 3222, 3209, 3215, 3235, 3258, 3235, 3182, 3188, 3226, 3192, 3211, 3258, 3262, 3220, 3219, 3210, 3206, 3198],
      "WindowCenter": [760.0, 758.0, 758.0, 759.0, 759.0, 758.0, 757.0, 757.0, 757.0, 759.0, 760.0, 759.0, 759.0, 759.0, 760.0, 759.0, 758.0, 757.0, 756.0, 756.0, 757.0, 758.0, 759.0, 759.0, 758.0, 757.0, 756.0, 757.0, 757.0, 757.0, 756.0, 756.0, 756.0, 757.0, 758.0, 758.0, 757.0, 757.0, 758.0, 758.0, 757.0, 757.0, 757.0, 757.0, 758.0, 758.0, 758.0, 758.0, 759.0, 759.0, 759.0, 759.0, 759.0, 758.0, 758.0, 758.0, 759.0, 759.0, 759.0, 759.0, 759.0, 759.0, 760.0, 760.0, 760.0, 760.0, 759.0, 758.0, 757.0, 758.0, 759.0, 760.0, 759.0, 759.0, 759.0, 759.0, 759.0, 760.0, 760.0, 759.0, 758.0, 759.0, 759.0, 759.0, 758.0, 758.0, 759.0, 759.0, 760.0, 759.0, 758.0, 757.0, 758.0, 758.0, 758.0, 759.0, 760.0, 760.0, 759.0, 758.0, 758.0, 757.0, 758.0, 757.0, 758.0, 757.0, 757.0, 757.0, 758.0, 758.0, 758.0, 759.0, 758.0, 757.0, 757.0, 757.0, 758.0, 759.0, 758.0, 757.0, 757.0, 757.0, 758.0, 758.0, 759.0, 759.0, 758.0, 757.0, 757.0, 758.0, 759.0, 759.0, 759.0, 759.0, 760.0, 759.0, 759.0, 758.0, 758.0, 758.0, 759.0, 761.0, 762.0, 761.0, 759.0, 758.0, 758.0, 758.0, 759.0, 760.0, 759.0, 758.0, 758.0, 758.0, 758.0, 758.0],
      "WindowWidth": [1646.0, 1641.0, 1642.0, 1645.0, 1645.0, 1641.0, 1638.0, 1638.0, 1640.0, 1644.0, 1646.0, 1645.0, 1643.0, 1644.0, 1646.0, 1644.0, 1642.0, 1640.0, 1636.0, 1636.0, 1639.0, 1643.0, 1643.0, 1644.0, 1641.0, 1639.0, 1637.0, 1638.0, 1639.0, 1639.0, 1637.0, 1636.0, 1637.0, 1638.0, 1641.0, 1640.0, 1640.0, 1640.0, 1641.0, 1640.0, 1640.0, 1638.0, 1637.0, 1639.0, 1643.0, 1643.0, 1642.0, 1641.0, 1643.0, 1644.0, 1644.0, 1643.0, 1644.0, 1642.0, 1641.0, 1641.0, 1644.0, 1644.0, 1643.0, 1643.0, 1642.0, 1644.0, 1646.0, 1647.0, 1646.0, 1647.0, 1644.0, 1640.0, 1639.0, 1641.0, 1643.0, 1645.0, 1644.0, 1642.0, 1642.0, 1643.0, 1644.0, 1646.0, 1644.0, 1642.0, 1641.0, 1644.0, 1644.0, 1642.0, 1641.0, 1642.0, 1644.0, 1644.0, 1644.0, 1642.0, 1641.0, 1638.0, 1640.0, 1640.0, 1641.0, 1643.0, 1645.0, 1645.0, 1644.0, 1642.0, 1640.0, 1639.0, 1639.0, 1638.0, 1640.0, 1639.0, 1637.0, 1637.0, 1639.0, 1640.0, 1642.0, 1642.0, 1640.0, 1639.0, 1637.0, 1636.0, 1640.0, 1644.0, 1640.0, 1638.0, 1637.0, 1638.0, 1640.0, 1641.0, 1642.0, 1642.0, 1639.0, 1638.0, 1638.0, 1639.0, 1642.0, 1642.0, 1642.0, 1644.0, 1646.0, 1643.0, 1642.0, 1641.0, 1639.0, 1639.0, 1643.0, 1648.0, 1651.0, 1647.0, 1642.0, 1639.0, 1639.0, 1640.0, 1644.0, 1646.0, 1643.0, 1640.0, 1638.0, 1639.0, 1639.0, 1641.0]
    },
    "slices": {}
  }
}