{
  "AcquisitionMatrixPE": 100,
  "AcquisitionNumber": 1,
  "AcquisitionTime": "10:06:19.985000",
  "BandwidthPerPixelPhaseEncode": 18.519,
  "BaseResolution": 100,
  "BodyPartExamined": "BRAIN",
  "CoilCombinationMethod": "Sum of Squares",
  "ConsistencyInfo": "N4_VE11C_LATEST_20160120",
  "ConversionSoftware": "dcm2niix",
  "ConversionSoftwareVersion": "v1.0.20211006",
  "DerivedVendorReportedEchoSpacing": 0.000539986,
  "DeviceSerialNumber": "166078",
  "DwellTime": 2.1e-06,
  "EchoTime": 0.034,
  "EchoTrainLength": 100,
  "EffectiveEchoSpacing": 0.000539986,
  "FlipAngle": 90,
  "ImageOrientationPatientDICOM": [1, 0, 0, 0, 0.980615, -0.195946],
  "ImageOrientationText": "Tra>Cor(-11.3)",
  "ImageType": [
    "ORIGINAL",
    "PRIMARY",
    "M",
    "ND",
    "MOSAIC"
],
  "ImagingFrequency": 123.258,
  "InPlanePhaseEncodingDirectionDICOM": "COL",
  "InstitutionAddress": "Street StreetNo,Bei Jing,District,CN,ZIP",
  "InstitutionName": "BeiJing Normal University",
  "InstitutionalDepartmentName": "Department",
  "MRAcquisitionType": "2D",
  "MagneticFieldStrength": 3,
  "Manufacturer": "Siemens",
  "ManufacturersModelName": "Prisma",
  "Modality": "MR",
  "MultibandAccelerationFactor": 3,
  "PartialFourier": 1,
  "PatientPosition": "HFS",
  "PercentPhaseFOV": 100,
  "PercentSampling": 100,
  "PhaseEncodingDirection": "j-",
  "PhaseEncodingSteps": 100,
  "PhaseResolution": 1,
  "PixelBandwidth": 2380,
  "ProcedureStepDescription": "BNU_P2018_64CH^Zhen.ZongLei",
  "ProtocolName": "bold_100x100_s3_2x2x2_static_156",
  "PulseSequenceDetails": "%SiemensSeq%\\ep2d_bold",
  "ReceiveCoilActiveElements": "HC1-7;NC1",
  "ReceiveCoilName": "HeadNeck_64",
  "ReconMatrixPE": 100,
  "RefLinesPE": 32,
  "RepetitionTime": 2,
  "SAR": 0.0659885,
  "ScanOptions": "FS",
  "ScanningSequence": "EP",
  "SequenceName": "*epfid2d1_100",
  "SequenceVariant": "SK",
  "SeriesDescription": "bold_100x100_s3_2x2x2_static_156",
  "SeriesNumber": 14,
  "ShimSetting": [-5477, -11505, -1262, 333, -67, -269, -171, 45],
  "SliceThickness": 2,
  "SliceTiming": [1.485, 0, 0.99, 0.0825, 1.0725, 0.165, 1.155, 0.2475, 1.2375, 0.33, 1.32, 0.4125, 1.4025, 0.5775, 1.5675, 0.66, 1.65, 0.7425, 1.7325, 0.825, 1.815, 0.9075, 1.8975, 0.495, 1.485, 0, 0.99, 0.0825, 1.0725, 0.165, 1.155, 0.2475, 1.2375, 0.33, 1.32, 0.4125, 1.4025, 0.5775, 1.5675, 0.66, 1.65, 0.7425, 1.7325, 0.825, 1.815, 0.9075, 1.8975, 0.495, 1.485, 0, 0.99, 0.0825, 1.0725, 0.165, 1.155, 0.2475, 1.2375, 0.33, 1.32, 0.4125, 1.4025, 0.5775, 1.5675, 0.66, 1.65, 0.7425, 1.7325, 0.825, 1.815, 0.9075, 1.8975, 0.495],
  "SoftwareVersions": "syngo MR E11",
  "SpacingBetweenSlices": 2,
  "StationName": "AWP166078",
  "TaskName": "action",
  "TotalReadoutTime": 0.0534586,
  "TxRefAmp": 205.639,
  "dcmmeta_affine": [
    [-2.0, 0.0, 0.0, 101.3559341430664],
    [0.0, 1.9612293243408203, -0.39189228415489197, -84.04277801513672],
    [0.0, 0.39189228415489197, 1.9612293243408203, -82.89900207519531],
    [0.0, 0.0, 0.0, 1.0]
],
  "dcmmeta_reorient_transform": [
    [0.0, -1.0, 0.0, 99.0],
    [1.0, 0.0, 0.0, 0.0],
    [0.0, 0.0, 1.0, 0.0],
    [0.0, 0.0, 0.0, 1.0]
],
  "dcmmeta_shape": [100, 100, 72, 156],
  "dcmmeta_slice_dim": 2,
  "dcmmeta_version": 0.6,
  "global": {
    "const": {
      "AcquisitionMatrix": [100, 0, 0, 100],
      "AngioFlag": "N",
      "BitsAllocated": 16,
      "BitsStored": 12,
      "BodyPartExamined": "BRAIN",
      "Columns": 900,
      "EchoNumbers": 1,
      "EchoTime": 34.0,
      "EchoTrainLength": 100,
      "FlipAngle": 90.0,
      "HighBit": 11,
      "ImageOrientationPatient": [1.0, 0.0, 0.0, 0.0, 0.98061465988951, -0.195946137522],
      "ImagePositionPatient": [-901.35593223572, -894.61064896343, 112.65524233668],
      "ImageType": [
        "ORIGINAL",
        "PRIMARY",
        "M",
        "ND",
        "MOSAIC"
],
      "ImagedNucleus": "1H",
      "ImagingFrequency": 123.257761,
      "InPlanePhaseEncodingDirection": "COL",
      "MRAcquisitionType": "2D",
      "MagneticFieldStrength": 3.0,
      "Manufacturer": "SIEMENS",
      "ManufacturerModelName": "Prisma",
      "Modality": "MR",
      "NumberOfAverages": 1.0,
      "NumberOfPhaseEncodingSteps": 100,
      "PercentPhaseFieldOfView": 100.0,
      "PercentSampling": 100.0,
      "PerformedProcedureStepStartTime": "090048.041000",
      "PhotometricInterpretation": "MONOCHROME2",
      "PixelBandwidth": 2380.0,
      "PixelRepresentation": 0,
      "PixelSpacing": [2.0, 2.0],
      "ProtocolName": "bold_100x100_s3_2x2x2_static_156",
      "RepetitionTime": 2000.0,
      "Rows": 900,
      "SAR": 0.06598855024734,
      "SamplesPerPixel": 1,
      "ScanOptions": "FS",
      "ScanningSequence": "EP",
      "SequenceName": "*epfid2d1_100",
      "SequenceVariant": "SK",
      "SeriesDescription": "bold_100x100_s3_2x2x2_static_156",
      "SeriesNumber": 14,
      "SeriesTime": "100622.628000",
      "SliceLocation": -64.824119101665,
      "SliceThickness": 2.0,
      "SmallestImagePixelValue": 0,
      "SoftwareVersions": "syngo MR E11",
      "SpacingBetweenSlices": 2.0000000354806,
      "SpecificCharacterSet": "ISO_IR 100",
      "StudyID": "1",
      "StudyTime": "090047.842000",
      "TransmitCoilName": "Body",
      "VariableFlipAngleFlag": "N",
      "WindowCenterWidthExplanation": "Algo1",
      "dBdt": 0.0},
    "slices": {}
  },
  "time": {
    "samples": {
      "AcquisitionNumber": [1, 2, 3, 4, 5, 6, 7, 8, 9, 10, 11, 12, 13, 14, 15, 16, 17, 18, 19, 20, 21, 22, 23, 24, 25, 26, 27, 28, 29, 30, 31, 32, 33, 34, 35, 36, 37, 38, 39, 40, 41, 42, 43, 44, 45, 46, 47, 48, 49, 50, 51, 52, 53, 54, 55, 56, 57, 58, 59, 60, 61, 62, 63, 64, 65, 66, 67, 68, 69, 70, 71, 72, 73, 74, 75, 76, 77, 78, 79, 80, 81, 82, 83, 84, 85, 86, 87, 88, 89, 90, 91, 92, 93, 94, 95, 96, 97, 98, 99, 100, 101, 102, 103, 104, 105, 106, 107, 108, 109, 110, 111, 112, 113, 114, 115, 116, 117, 118, 119, 120, 121, 122, 123, 124, 125, 126, 127, 128, 129, 130, 131, 132, 133, 134, 135, 136, 137, 138, 139, 140, 141, 142, 143, 144, 145, 146, 147, 148, 149, 150, 151, 152, 153, 154, 155, 156],
      "AcquisitionTime": ["100619.985000", "100621.985000", "100623.985000", "100625.985000", "100627.985000", "100629.985000", "100631.985000", "100633.985000", "100635.985000", "100637.985000", "100639.985000", "100641.985000", "100643.985000", "100645.985000", "100647.985000", "100649.985000", "100651.985000", "100653.985000", "100655.985000", "100657.985000", "100659.985000", "100701.985000", "100703.985000", "100705.985000", "100707.985000", "100709.985000", "100711.985000", "100713.985000", "100715.985000", "100717.985000", "100719.985000", "100721.985000", "100723.985000", "100725.985000", "100727.985000", "100729.985000", "100731.985000", "100733.985000", "100735.985000", "100737.985000", "100739.985000", "100741.985000", "100743.985000", "100745.985000", "100747.985000", "100749.985000", "100751.985000", "100753.985000", "100755.985000", "100757.985000", "100759.985000", "100801.985000", "100803.985000", "100805.985000", "100807.985000", "100809.985000", "100811.985000", "100813.985000", "100815.985000", "100817.985000", "100819.985000", "100821.985000", "100823.985000", "100825.985000", "100827.985000", "100829.985000", "100831.985000", "100833.985000", "100835.985000", "100837.985000", "100839.985000", "100841.985000", "100843.985000", "100845.985000", "100847.985000", "100849.985000", "100851.985000", "100853.985000", "100855.985000", "100857.985000", "100859.985000", "100901.985000", "100903.985000", "100905.985000", "100907.985000", "100909.985000", "100911.985000", "100913.985000", "100915.985000", "100917.985000", "100919.985000", "100921.985000", "100923.985000", "100925.985000", "100927.985000", "100929.985000", "100931.985000", "100933.985000", "100935.985000", "100937.985000", "100939.985000", "100941.985000", "100943.985000", "100945.985000", "100947.985000", "100949.985000", "100951.985000", "100953.985000", "100955.985000", "100957.985000", "100959.985000", "101001.985000", "101003.985000", "101005.985000", "101007.985000", "101009.985000", "101011.985000", "101013.985000", "101015.985000", "101017.985000", "101019.985000", "101021.985000", "101023.985000", "101025.985000", "101027.985000", "101029.985000", "101031.985000", "101033.985000", "101035.985000", "101037.985000", "101039.985000", "101041.985000", "101043.985000", "101045.985000", "101047.985000", "101049.985000", "101051.985000", "101053.985000", "101055.985000", "101057.985000", "101059.985000", "101101.985000", "101103.985000", "101105.985000", "101107.985000", "101109.985000", "101111.985000", "101113.985000", "101115.985000", "101117.985000", "101119.985000", "101121.985000", "101123.985000", "101125.985000", "101127.985000", "101129.985000"],
      "ContentTime": ["100622.632000", "100624.128000", "100626.128000", "100628.128000", "100630.127000", "100632.128000", "100634.126000", "100636.127000", "100638.628000", "100640.127000", "100642.128000", "100644.127000", "100646.128000", "100648.128000", "100650.127000", "100652.127000", "100654.127000", "100656.127000", "100658.128000", "100700.128000", "100702.628000", "100704.128000", "100706.128000", "100708.127000", "100710.127000", "100712.127000", "100714.128000", "100716.127000", "100718.127000", "100720.127000", "100722.627000", "100724.628000", "100726.127000", "100728.627000", "100730.126000", "100732.127000", "100734.627000", "100736.627000", "100738.127000", "100740.127000", "100742.127000", "100744.126000", "100746.127000", "100748.127000", "100750.128000", "100752.128000", "100754.628000", "100756.128000", "100758.628000", "100800.128000", "100802.126000", "100804.126000", "100806.128000", "100808.127000", "100810.127000", "100812.127000", "100814.128000", "100816.128000", "100818.127000", "100820.126000", "100822.127000", "100824.128000", "100826.127000", "100828.127000", "100830.127000", "100832.628000", "100834.628000", "100836.626000", "100838.127000", "100840.127000", "100842.128000", "100844.127000", "100846.128000", "100848.628000", "100850.628000", "100852.628000", "100854.127000", "100856.126000", "100858.628000", "100900.128000", "100902.127000", "100904.128000", "100906.128000", "100908.127000", "100910.627000", "100912.126000", "100914.126000", "100916.128000", "100918.127000", "100920.628000", "100922.128000", "100924.128000", "100926.127000", "100928.128000", "100930.127000", "100932.126000", "100934.127000", "100936.127000", "100938.127000", "100940.128000", "100942.127000", "100944.127000", "100946.126000", "100948.627000", "100950.127000", "100952.628000", "100954.127000", "100956.127000", "100958.627000", "101000.127000", "101002.127000", "101004.627000", "101006.126000", "101008.127000", "101010.127000", "101012.628000", "101014.127000", "101016.127000", "101018.628000", "101020.628000", "101022.126000", "101024.643000", "101026.127000", "101028.127000", "101030.127000", "101032.628000", "101034.127000", "101036.128000", "101038.127000", "101040.127000", "101042.127000", "101044.628000", "101046.128000", "101048.128000", "101050.127000", "101052.128000", "101054.128000", "101056.626000", "101058.126000", "101100.126000", "101102.628000", "101104.628000", "101106.128000", "101108.128000", "101110.128000", "101112.127000", "101114.126000", "101116.127000", "101118.128000", "101120.127000", "101122.128000", "101124.628000", "101126.127000", "101128.128000", "101130.128000", "101132.200000"],
      "InstanceCreationTime": ["100622.632000", "100624.128000", "100626.128000", "100628.128000", "100630.127000", "100632.128000", "100634.126000", "100636.127000", "100638.628000", "100640.127000", "100642.128000", "100644.127000", "100646.128000", "100648.128000", "100650.127000", "100652.127000", "100654.127000", "100656.127000", "100658.128000", "100700.128000", "100702.628000", "100704.128000", "100706.128000", "100708.127000", "100710.127000", "100712.127000", "100714.128000", "100716.127000", "100718.127000", "100720.127000", "100722.627000", "100724.628000", "100726.127000", "100728.627000", "100730.126000", "100732.127000", "100734.627000", "100736.627000", "100738.127000", "100740.127000", "100742.127000", "100744.126000", "100746.127000", "100748.127000", "100750.128000", "100752.128000", "100754.628000", "100756.128000", "100758.628000", "100800.128000", "100802.126000", "100804.126000", "100806.128000", "100808.127000", "100810.127000", "100812.127000", "100814.128000", "100816.128000", "100818.127000", "100820.126000", "100822.127000", "100824.128000", "100826.127000", "100828.127000", "100830.127000", "100832.628000", "100834.628000", "100836.626000", "100838.127000", "100840.127000", "100842.128000", "100844.127000", "100846.128000", "100848.628000", "100850.628000", "100852.628000", "100854.127000", "100856.126000", "100858.628000", "100900.128000", "100902.127000", "100904.128000", "100906.128000", "100908.127000", "100910.627000", "100912.126000", "100914.126000", "100916.128000", "100918.127000", "100920.628000", "100922.128000", "100924.128000", "100926.127000", "100928.128000", "100930.127000", "100932.126000", "100934.127000", "100936.127000", "100938.127000", "100940.128000", "100942.127000", "100944.127000", "100946.126000", "100948.627000", "100950.127000", "100952.628000", "100954.127000", "100956.127000", "100958.627000", "101000.127000", "101002.127000", "101004.627000", "101006.126000", "101008.127000", "101010.127000", "101012.628000", "101014.127000", "101016.127000", "101018.628000", "101020.628000", "101022.126000", "101024.643000", "101026.127000", "101028.127000", "101030.127000", "101032.628000", "101034.127000", "101036.128000", "101038.127000", "101040.127000", "101042.127000", "101044.628000", "101046.128000", "101048.128000", "101050.127000", "101052.128000", "101054.128000", "101056.626000", "101058.126000", "101100.126000", "101102.628000", "101104.628000", "101106.128000", "101108.128000", "101110.128000", "101112.127000", "101114.126000", "101116.127000", "101118.128000", "101120.127000", "101122.128000", "101124.628000", "101126.127000", "101128.128000", "101130.128000", "101132.200000"],
      "InstanceNumber": [1, 2, 3, 4, 5, 6, 7, 8, 9, 10, 11, 12, 13, 14, 15, 16, 17, 18, 19, 20, 21, 22, 23, 24, 25, 26, 27, 28, 29, 30, 31, 32, 33, 34, 35, 36, 37, 38, 39, 40, 41, 42, 43, 44, 45, 46, 47, 48, 49, 50, 51, 52, 53, 54, 55, 56, 57, 58, 59, 60, 61, 62, 63, 64, 65, 66, 67, 68, 69, 70, 71, 72, 73, 74, 75, 76, 77, 78, 79, 80, 81, 82, 83, 84, 85, 86, 87, 88, 89, 90, 91, 92, 93, 94, 95, 96, 97, 98, 99, 100, 101, 102, 103, 104, 105, 106, 107, 108, 109, 110, 111, 112, 113, 114, 115, 116, 117, 118, 119, 120, 121, 122, 123, 124, 125, 126, 127, 128, 129, 130, 131, 132, 133, 134, 135, 136, 137, 138, 139, 140, 141, 142, 143, 144, 145, 146, 147, 148, 149, 150, 151, 152, 153, 154, 155, 156],
      "LargestImagePixelValue": [3361, 3292, 3248, 3227, 3267, 3262, 3289, 3299, 3229, 3250, 3234, 3257, 3250, 3249, 3289, 3305, 3282, 3248, 3269, 3286, 3238, 3269, 3273, 3265, 3270, 3267, 3280, 3259, 3281, 3257, 3269, 3220, 3276, 3270, 3262, 3240, 3273, 3297, 3244, 3240, 3285, 3292, 3306, 3285, 3314, 3251, 3286, 3329, 3300, 3279, 3283, 3260, 3311, 3256, 3274, 3283, 3307, 3263, 3292, 3297, 3318, 3274, 3306, 3330, 3244, 3271, 3322, 3252, 3308, 3348, 3285, 3289, 3320, 3251, 3293, 3321, 3305, 3316, 3369, 3288, 3293, 3351, 3354, 3300, 3312, 3302, 3303, 3280, 3224, 3291, 3278, 3285, 3220, 3283, 3275, 3301, 3259, 3260, 3290, 3320, 3284, 3311, 3302, 3339, 3350, 3294, 3294, 3276, 3333, 3343, 3281, 3324, 3321, 3332, 3277, 3274, 3323, 3303, 3307, 3241, 3269, 3280, 3309, 3266, 3280, 3337, 3330, 3346, 3303, 3294, 3316, 3320, 3294, 3302, 3326, 3353, 3350, 3299, 3290, 3304, 3308, 3312, 3320, 3314, 3319, 3274, 3300, 3300, 3283, 3299, 3318, 3356, 3344, 3307, 3336, 3343],
      "WindowCenter": [761.0, 760.0, 760.0, 760.0, 760.0, 760.0, 759.0, 759.0, 759.0, 760.0, 761.0, 761.0, 759.0, 758.0, 759.0, 759.0, 760.0, 760.0, 759.0, 759.0, 758.0, 758.0, 759.0, 760.0, 760.0, 759.0, 759.0, 759.0, 760.0, 760.0, 759.0, 759.0, 760.0, 760.0, 760.0, 760.0, 760.0, 760.0, 760.0, 760.0, 759.0, 759.0, 758.0, 758.0, 759.0, 759.0, 759.0, 759.0, 759.0, 759.0, 759.0, 759.0, 759.0, 758.0, 757.0, 757.0, 758.0, 759.0, 760.0, 760.0, 760.0, 759.0, 759.0, 760.0, 759.0, 758.0, 758.0, 757.0, 757.0, 758.0, 758.0, 759.0, 759.0, 759.0, 759.0, 758.0, 758.0, 759.0, 759.0, 758.0, 758.0, 758.0, 758.0, 759.0, 758.0, 759.0, 759.0, 759.0, 759.0, 759.0, 759.0, 759.0, 758.0, 759.0, 758.0, 759.0, 759.0, 759.0, 758.0, 757.0, 756.0, 756.0, 756.0, 757.0, 758.0, 759.0, 759.0, 758.0, 758.0, 757.0, 757.0, 757.0, 758.0, 759.0, 758.0, 757.0, 758.0, 759.0, 760.0, 759.0, 759.0, 759.0, 759.0, 759.0, 759.0, 760.0, 759.0, 758.0, 758.0, 758.0, 759.0, 759.0, 759.0, 758.0, 758.0, 759.0, 758.0, 758.0, 757.0, 758.0, 759.0, 760.0, 760.0, 760.0, 759.0, 759.0, 759.0, 760.0, 760.0, 760.0, 759.0, 759.0, 759.0, 759.0, 759.0, 759.0],
      "WindowWidth": [1648.0, 1644.0, 1643.0, 1645.0, 1646.0, 1645.0, 1642.0, 1642.0, 1642.0, 1645.0, 1647.0, 1646.0, 1642.0, 1640.0, 1641.0, 1643.0, 1644.0, 1643.0, 1642.0, 1641.0, 1640.0, 1640.0, 1642.0, 1643.0, 1644.0, 1642.0, 1642.0, 1641.0, 1643.0, 1643.0, 1643.0, 1641.0, 1643.0, 1644.0, 1643.0, 1643.0, 1643.0, 1646.0, 1645.0, 1644.0, 1642.0, 1641.0, 1638.0, 1639.0, 1642.0, 1641.0, 1640.0, 1641.0, 1640.0, 1641.0, 1642.0, 1642.0, 1641.0, 1639.0, 1636.0, 1636.0, 1639.0, 1641.0, 1643.0, 1644.0, 1643.0, 1641.0, 1642.0, 1644.0, 1641.0, 1640.0, 1639.0, 1635.0, 1637.0, 1638.0, 1639.0, 1641.0, 1642.0, 1640.0, 1640.0, 1639.0, 1640.0, 1640.0, 1640.0, 1638.0, 1638.0, 1639.0, 1639.0, 1640.0, 1639.0, 1640.0, 1643.0, 1642.0, 1641.0, 1641.0, 1641.0, 1641.0, 1639.0, 1640.0, 1640.0, 1641.0, 1641.0, 1641.0, 1638.0, 1636.0, 1633.0, 1633.0, 1633.0, 1635.0, 1639.0, 1640.0, 1640.0, 1637.0, 1637.0, 1636.0, 1635.0, 1637.0, 1640.0, 1642.0, 1638.0, 1636.0, 1639.0, 1641.0, 1643.0, 1641.0, 1641.0, 1641.0, 1641.0, 1641.0, 1641.0, 1643.0, 1641.0, 1639.0, 1638.0, 1640.0, 1642.0, 1642.0, 1640.0, 1639.0, 1640.0, 1640.0, 1639.0, 1638.0, 1637.0, 1638.0, 1640.0, 1644.0, 1645.0, 1643.0, 1641.0, 1641.0, 1642.0, 1644.0, 1644.0, 1643.0, 1640.0, 1640.0, 1639.0, 1640.0, 1640.0, 1642.0]
    },
    "slices": {}
  }
}