{
  "AcquisitionMatrixPE": 100,
  "AcquisitionNumber": 1,
  "AcquisitionTime": "09:53:14.187500",
  "BandwidthPerPixelPhaseEncode": 18.519,
  "BaseResolution": 100,
  "BodyPartExamined": "BRAIN",
  "CoilCombinationMethod": "Sum of Squares",
  "ConsistencyInfo": "N4_VE11C_LATEST_20160120",
  "ConversionSoftware": "dcm2niix",
  "ConversionSoftwareVersion": "v1.0.20211006",
  "DerivedVendorReportedEchoSpacing": 0.000539986,
  "DeviceSerialNumber": "166078",
  "DwellTime": 2.1e-06,
  "EchoTime": 0.034,
  "EchoTrainLength": 100,
  "EffectiveEchoSpacing": 0.000539986,
  "FlipAngle": 90,
  "ImageOrientationPatientDICOM": [1, 0, 0, 0, 0.980615, -0.195946],
  "ImageOrientationText": "Tra>Cor(-11.3)",
  "ImageType": [
    "ORIGINAL",
    "PRIMARY",
    "M",
    "ND",
    "MOSAIC"
],
  "ImagingFrequency": 123.258,
  "InPlanePhaseEncodingDirectionDICOM": "COL",
  "InstitutionAddress": "Street StreetNo,Bei Jing,District,CN,ZIP",
  "InstitutionName": "BeiJing Normal University",
  "InstitutionalDepartmentName": "Department",
  "MRAcquisitionType": "2D",
  "MagneticFieldStrength": 3,
  "Manufacturer": "Siemens",
  "ManufacturersModelName": "Prisma",
  "Modality": "MR",
  "MultibandAccelerationFactor": 3,
  "PartialFourier": 1,
  "PatientPosition": "HFS",
  "PercentPhaseFOV": 100,
  "PercentSampling": 100,
  "PhaseEncodingDirection": "j-",
  "PhaseEncodingSteps": 100,
  "PhaseResolution": 1,
  "PixelBandwidth": 2380,
  "ProcedureStepDescription": "BNU_P2018_64CH^Zhen.ZongLei",
  "ProtocolName": "bold_100x100_s3_2x2x2_static_156",
  "PulseSequenceDetails": "%SiemensSeq%\\ep2d_bold",
  "ReceiveCoilActiveElements": "HC1-7;NC1",
  "ReceiveCoilName": "HeadNeck_64",
  "ReconMatrixPE": 100,
  "RefLinesPE": 32,
  "RepetitionTime": 2,
  "SAR": 0.0659885,
  "ScanOptions": "FS",
  "ScanningSequence": "EP",
  "SequenceName": "*epfid2d1_100",
  "SequenceVariant": "SK",
  "SeriesDescription": "bold_100x100_s3_2x2x2_static_156",
  "SeriesNumber": 12,
  "ShimSetting": [-5477, -11505, -1262, 333, -67, -269, -171, 45],
  "SliceThickness": 2,
  "SliceTiming": [1.485, 0, 0.99, 0.0825, 1.0725, 0.165, 1.155, 0.2475, 1.2375, 0.33, 1.32, 0.4125, 1.4025, 0.5775, 1.5675, 0.66, 1.65, 0.7425, 1.7325, 0.825, 1.815, 0.9075, 1.8975, 0.495, 1.485, 0, 0.99, 0.0825, 1.0725, 0.165, 1.155, 0.2475, 1.2375, 0.33, 1.32, 0.4125, 1.4025, 0.5775, 1.5675, 0.66, 1.65, 0.7425, 1.7325, 0.825, 1.815, 0.9075, 1.8975, 0.495, 1.485, 0, 0.99, 0.0825, 1.0725, 0.165, 1.155, 0.2475, 1.2375, 0.33, 1.32, 0.4125, 1.4025, 0.5775, 1.5675, 0.66, 1.65, 0.7425, 1.7325, 0.825, 1.815, 0.9075, 1.8975, 0.495],
  "SoftwareVersions": "syngo MR E11",
  "SpacingBetweenSlices": 2,
  "StationName": "AWP166078",
  "TaskName": "action",
  "TotalReadoutTime": 0.0534586,
  "TxRefAmp": 205.639,
  "dcmmeta_affine": [
    [-2.0, 0.0, 0.0, 101.3559341430664],
    [0.0, 1.9612293243408203, -0.39189228415489197, -84.04277801513672],
    [0.0, 0.39189228415489197, 1.9612293243408203, -82.89900207519531],
    [0.0, 0.0, 0.0, 1.0]
],
  "dcmmeta_reorient_transform": [
    [0.0, -1.0, 0.0, 99.0],
    [1.0, 0.0, 0.0, 0.0],
    [0.0, 0.0, 1.0, 0.0],
    [0.0, 0.0, 0.0, 1.0]
],
  "dcmmeta_shape": [100, 100, 72, 156],
  "dcmmeta_slice_dim": 2,
  "dcmmeta_version": 0.6,
  "global": {
    "const": {
      "AcquisitionMatrix": [100, 0, 0, 100],
      "AngioFlag": "N",
      "BitsAllocated": 16,
      "BitsStored": 12,
      "BodyPartExamined": "BRAIN",
      "Columns": 900,
      "EchoNumbers": 1,
      "EchoTime": 34.0,
      "EchoTrainLength": 100,
      "FlipAngle": 90.0,
      "HighBit": 11,
      "ImageOrientationPatient": [1.0, 0.0, 0.0, 0.0, 0.98061465988951, -0.195946137522],
      "ImagePositionPatient": [-901.35593223572, -894.61064896343, 112.65524233668],
      "ImageType": [
        "ORIGINAL",
        "PRIMARY",
        "M",
        "ND",
        "MOSAIC"
],
      "ImagedNucleus": "1H",
      "ImagingFrequency": 123.257759,
      "InPlanePhaseEncodingDirection": "COL",
      "MRAcquisitionType": "2D",
      "MagneticFieldStrength": 3.0,
      "Manufacturer": "SIEMENS",
      "ManufacturerModelName": "Prisma",
      "Modality": "MR",
      "NumberOfAverages": 1.0,
      "NumberOfPhaseEncodingSteps": 100,
      "PercentPhaseFieldOfView": 100.0,
      "PercentSampling": 100.0,
      "PerformedProcedureStepStartTime": "090048.041000",
      "PhotometricInterpretation": "MONOCHROME2",
      "PixelBandwidth": 2380.0,
      "PixelRepresentation": 0,
      "PixelSpacing": [2.0, 2.0],
      "ProtocolName": "bold_100x100_s3_2x2x2_static_156",
      "RepetitionTime": 2000.0,
      "Rows": 900,
      "SAR": 0.06598855024734,
      "SamplesPerPixel": 1,
      "ScanOptions": "FS",
      "ScanningSequence": "EP",
      "SequenceName": "*epfid2d1_100",
      "SequenceVariant": "SK",
      "SeriesDescription": "bold_100x100_s3_2x2x2_static_156",
      "SeriesNumber": 12,
      "SeriesTime": "095316.499000",
      "SliceLocation": -64.824119101665,
      "SliceThickness": 2.0,
      "SmallestImagePixelValue": 0,
      "SoftwareVersions": "syngo MR E11",
      "SpacingBetweenSlices": 2.0000000354806,
      "SpecificCharacterSet": "ISO_IR 100",
      "StudyID": "1",
      "StudyTime": "090047.842000",
      "TransmitCoilName": "Body",
      "VariableFlipAngleFlag": "N",
      "WindowCenterWidthExplanation": "Algo1",
      "dBdt": 0.0},
    "slices": {}
  },
  "time": {
    "samples": {
      "AcquisitionNumber": [1, 2, 3, 4, 5, 6, 7, 8, 9, 10, 11, 12, 13, 14, 15, 16, 17, 18, 19, 20, 21, 22, 23, 24, 25, 26, 27, 28, 29, 30, 31, 32, 33, 34, 35, 36, 37, 38, 39, 40, 41, 42, 43, 44, 45, 46, 47, 48, 49, 50, 51, 52, 53, 54, 55, 56, 57, 58, 59, 60, 61, 62, 63, 64, 65, 66, 67, 68, 69, 70, 71, 72, 73, 74, 75, 76, 77, 78, 79, 80, 81, 82, 83, 84, 85, 86, 87, 88, 89, 90, 91, 92, 93, 94, 95, 96, 97, 98, 99, 100, 101, 102, 103, 104, 105, 106, 107, 108, 109, 110, 111, 112, 113, 114, 115, 116, 117, 118, 119, 120, 121, 122, 123, 124, 125, 126, 127, 128, 129, 130, 131, 132, 133, 134, 135, 136, 137, 138, 139, 140, 141, 142, 143, 144, 145, 146, 147, 148, 149, 150, 151, 152, 153, 154, 155, 156],
      "AcquisitionTime": ["095314.187500", "095316.187500", "095318.187500", "095320.187500", "095322.187500", "095324.187500", "095326.187500", "095328.187500", "095330.187500", "095332.187500", "095334.187500", "095336.187500", "095338.187500", "095340.187500", "095342.187500", "095344.187500", "095346.187500", "095348.187500", "095350.187500", "095352.187500", "095354.187500", "095356.187500", "095358.187500", "095400.187500", "095402.187500", "095404.187500", "095406.187500", "095408.187500", "095410.187500", "095412.187500", "095414.187500", "095416.187500", "095418.187500", "095420.187500", "095422.187500", "095424.187500", "095426.187500", "095428.187500", "095430.187500", "095432.187500", "095434.187500", "095436.187500", "095438.187500", "095440.187500", "095442.187500", "095444.187500", "095446.187500", "095448.187500", "095450.187500", "095452.187500", "095454.187500", "095456.187500", "095458.187500", "095500.187500", "095502.187500", "095504.187500", "095506.187500", "095508.187500", "095510.187500", "095512.187500", "095514.187500", "095516.187500", "095518.187500", "095520.187500", "095522.187500", "095524.187500", "095526.187500", "095528.187500", "095530.187500", "095532.187500", "095534.187500", "095536.187500", "095538.187500", "095540.187500", "095542.187500", "095544.187500", "095546.187500", "095548.187500", "095550.187500", "095552.187500", "095554.187500", "095556.187500", "095558.187500", "095600.187500", "095602.187500", "095604.187500", "095606.187500", "095608.187500", "095610.187500", "095612.187500", "095614.187500", "095616.187500", "095618.187500", "095620.187500", "095622.187500", "095624.187500", "095626.187500", "095628.187500", "095630.187500", "095632.187500", "095634.187500", "095636.187500", "095638.187500", "095640.187500", "095642.187500", "095644.187500", "095646.187500", "095648.187500", "095650.187500", "095652.187500", "095654.187500", "095656.187500", "095658.187500", "095700.187500", "095702.187500", "095704.187500", "095706.187500", "095708.187500", "095710.187500", "095712.187500", "095714.187500", "095716.187500", "095718.187500", "095720.187500", "095722.187500", "095724.187500", "095726.187500", "095728.187500", "095730.187500", "095732.187500", "095734.187500", "095736.187500", "095738.187500", "095740.187500", "095742.187500", "095744.187500", "095746.187500", "095748.187500", "095750.187500", "095752.187500", "095754.187500", "095756.187500", "095758.187500", "095800.187500", "095802.187500", "095804.187500", "095806.187500", "095808.187500", "095810.187500", "095812.187500", "095814.187500", "095816.187500", "095818.187500", "095820.187500", "095822.187500", "095824.187500"],
      "ContentTime": ["095316.503000", "095318.000000", "095319.998000", "095321.998000", "095323.998000", "095325.998000", "095327.997000", "095329.997000", "095331.998000", "095333.998000", "095335.998000", "095337.998000", "095339.998000", "095341.998000", "095343.998000", "095345.997000", "095347.997000", "095350.000000", "095351.998000", "095353.998000", "095355.998000", "095358.000000", "095400.000000", "095401.998000", "095403.997000", "095405.998000", "095407.998000", "095410.000000", "095412.000000", "095414.000000", "095415.998000", "095418.000000", "095420.000000", "095421.998000", "095423.999000", "095425.998000", "095428.000000", "095430.000000", "095431.998000", "095434.000000", "095436.000000", "095437.998000", "095439.998000", "095441.998000", "095443.998000", "095446.000000", "095448.000000", "095450.000000", "095452.000000", "095454.000000", "095455.997000", "095457.997000", "095459.998000", "095502.000000", "095504.000000", "095505.998000", "095508.000000", "095510.000000", "095511.999000", "095513.998000", "095515.997000", "095517.998000", "095519.998000", "095522.000000", "095524.000000", "095526.000000", "095527.998000", "095530.000000", "095531.998000", "095533.999000", "095535.998000", "095538.000000", "095540.000000", "095541.998000", "095544.000000", "095545.998000", "095547.997000", "095549.997000", "095551.998000", "095553.998000", "095556.000000", "095557.998000", "095559.998000", "095602.000000", "095604.000000", "095605.997000", "095607.997000", "095609.998000", "095611.998000", "095613.998000", "095615.998000", "095617.998000", "095619.998000", "095621.998000", "095623.998000", "095625.999000", "095627.998000", "095630.000000", "095632.000000", "095633.998000", "095635.998000", "095638.000000", "095640.000000", "095641.997000", "095643.998000", "095645.998000", "095647.998000", "095649.998000", "095651.998000", "095653.998000", "095655.998000", "095657.998000", "095659.998000", "095701.998000", "095704.000000", "095705.998000", "095707.998000", "095709.998000", "095711.998000", "095713.998000", "095715.998000", "095717.998000", "095720.000000", "095721.998000", "095724.000000", "095725.998000", "095728.000000", "095730.000000", "095732.000000", "095733.997000", "095735.999000", "095738.000000", "095740.000000", "095741.998000", "095744.000000", "095746.000000", "095748.000000", "095750.000000", "095751.998000", "095753.999000", "095756.000000", "095757.998000", "095759.998000", "095802.000000", "095803.998000", "095806.000000", "095807.998000", "095809.997000", "095812.000000", "095814.000000", "095816.000000", "095818.000000", "095820.000000", "095822.000000", "095823.998000", "095825.728000"],
      "InstanceCreationTime": ["095316.503000", "095318.000000", "095319.998000", "095321.998000", "095323.998000", "095325.998000", "095327.997000", "095329.997000", "095331.998000", "095333.998000", "095335.998000", "095337.998000", "095339.998000", "095341.998000", "095343.998000", "095345.997000", "095347.997000", "095350.000000", "095351.998000", "095353.998000", "095355.998000", "095358.000000", "095400.000000", "095401.998000", "095403.997000", "095405.998000", "095407.998000", "095410.000000", "095412.000000", "095414.000000", "095415.998000", "095418.000000", "095420.000000", "095421.998000", "095423.999000", "095425.998000", "095428.000000", "095430.000000", "095431.998000", "095434.000000", "095436.000000", "095437.998000", "095439.998000", "095441.998000", "095443.998000", "095446.000000", "095448.000000", "095450.000000", "095452.000000", "095454.000000", "095455.997000", "095457.997000", "095459.998000", "095502.000000", "095504.000000", "095505.998000", "095508.000000", "095510.000000", "095511.999000", "095513.998000", "095515.997000", "095517.998000", "095519.998000", "095522.000000", "095524.000000", "095526.000000", "095527.998000", "095530.000000", "095531.998000", "095533.999000", "095535.998000", "095538.000000", "095540.000000", "095541.998000", "095544.000000", "095545.998000", "095547.997000", "095549.997000", "095551.998000", "095553.998000", "095556.000000", "095557.998000", "095559.998000", "095602.000000", "095604.000000", "095605.997000", "095607.997000", "095609.998000", "095611.998000", "095613.998000", "095615.998000", "095617.998000", "095619.998000", "095621.998000", "095623.998000", "095625.999000", "095627.998000", "095630.000000", "095632.000000", "095633.998000", "095635.998000", "095638.000000", "095640.000000", "095641.997000", "095643.998000", "095645.998000", "095647.998000", "095649.998000", "095651.998000", "095653.998000", "095655.998000", "095657.998000", "095659.998000", "095701.998000", "095704.000000", "095705.998000", "095707.998000", "095709.998000", "095711.998000", "095713.998000", "095715.998000", "095717.998000", "095720.000000", "095721.998000", "095724.000000", "095725.998000", "095728.000000", "095730.000000", "095732.000000", "095733.997000", "095735.999000", "095738.000000", "095740.000000", "095741.998000", "095744.000000", "095746.000000", "095748.000000", "095750.000000", "095751.998000", "095753.999000", "095756.000000", "095757.998000", "095759.998000", "095802.000000", "095803.998000", "095806.000000", "095807.998000", "095809.997000", "095812.000000", "095814.000000", "095816.000000", "095818.000000", "095820.000000", "095822.000000", "095823.998000", "095825.728000"],
      "InstanceNumber": [1, 2, 3, 4, 5, 6, 7, 8, 9, 10, 11, 12, 13, 14, 15, 16, 17, 18, 19, 20, 21, 22, 23, 24, 25, 26, 27, 28, 29, 30, 31, 32, 33, 34, 35, 36, 37, 38, 39, 40, 41, 42, 43, 44, 45, 46, 47, 48, 49, 50, 51, 52, 53, 54, 55, 56, 57, 58, 59, 60, 61, 62, 63, 64, 65, 66, 67, 68, 69, 70, 71, 72, 73, 74, 75, 76, 77, 78, 79, 80, 81, 82, 83, 84, 85, 86, 87, 88, 89, 90, 91, 92, 93, 94, 95, 96, 97, 98, 99, 100, 101, 102, 103, 104, 105, 106, 107, 108, 109, 110, 111, 112, 113, 114, 115, 116, 117, 118, 119, 120, 121, 122, 123, 124, 125, 126, 127, 128, 129, 130, 131, 132, 133, 134, 135, 136, 137, 138, 139, 140, 141, 142, 143, 144, 145, 146, 147, 148, 149, 150, 151, 152, 153, 154, 155, 156],
      "LargestImagePixelValue": [3252, 3127, 3121, 3080, 3109, 3134, 3190, 3160, 3147, 3161, 3148, 3171, 3168, 3177, 3195, 3211, 3235, 3222, 3200, 3182, 3159, 3157, 3125, 3110, 3120, 3155, 3171, 3134, 3140, 3119, 3150, 3149, 3157, 3166, 3166, 3168, 3152, 3155, 3168, 3184, 3163, 3144, 3135, 3148, 3152, 3194, 3191, 3174, 3141, 3101, 3112, 3140, 3124, 3113, 3115, 3113, 3107, 3125, 3114, 3066, 3080, 3092, 3068, 3098, 3102, 3085, 3129, 3126, 3109, 3139, 3146, 3154, 3117, 3153, 3149, 3142, 3147, 3163, 3166, 3134, 3122, 3108, 3122, 3148, 3176, 3136, 3091, 3101, 3084, 3112, 3139, 3151, 3129, 3115, 3124, 3127, 3102, 3125, 3131, 3124, 3083, 3082, 3100, 3092, 3096, 3146, 3152, 3122, 3107, 3123, 3079, 3094, 3109, 3086, 3108, 3111, 3118, 3125, 3111, 3104, 3064, 3092, 3106, 3096, 3086, 3078, 3070, 3090, 3136, 3137, 3129, 3131, 3117, 3095, 3088, 3083, 3120, 3106, 3134, 3113, 3116, 3094, 3074, 3102, 3110, 3118, 3121, 3127, 3089, 3101, 3089, 3100, 3096, 3097, 3090, 3100],
      "WindowCenter": [763.0, 761.0, 761.0, 760.0, 760.0, 761.0, 760.0, 760.0, 760.0, 761.0, 761.0, 762.0, 762.0, 762.0, 761.0, 761.0, 761.0, 761.0, 761.0, 761.0, 762.0, 762.0, 761.0, 761.0, 761.0, 761.0, 762.0, 762.0, 762.0, 761.0, 761.0, 761.0, 762.0, 761.0, 761.0, 761.0, 761.0, 762.0, 762.0, 762.0, 761.0, 760.0, 760.0, 760.0, 761.0, 761.0, 761.0, 761.0, 761.0, 761.0, 761.0, 761.0, 760.0, 760.0, 760.0, 760.0, 760.0, 760.0, 761.0, 760.0, 760.0, 761.0, 760.0, 760.0, 760.0, 760.0, 760.0, 760.0, 760.0, 760.0, 760.0, 760.0, 760.0, 760.0, 760.0, 760.0, 760.0, 761.0, 760.0, 761.0, 761.0, 760.0, 760.0, 759.0, 759.0, 759.0, 760.0, 760.0, 760.0, 759.0, 759.0, 760.0, 760.0, 761.0, 761.0, 761.0, 760.0, 760.0, 761.0, 761.0, 761.0, 761.0, 761.0, 760.0, 759.0, 760.0, 761.0, 761.0, 761.0, 761.0, 760.0, 760.0, 760.0, 760.0, 760.0, 760.0, 760.0, 761.0, 761.0, 760.0, 759.0, 759.0, 760.0, 760.0, 761.0, 761.0, 761.0, 761.0, 761.0, 761.0, 761.0, 762.0, 762.0, 761.0, 760.0, 759.0, 759.0, 759.0, 760.0, 759.0, 759.0, 758.0, 758.0, 758.0, 759.0, 759.0, 759.0, 759.0, 758.0, 759.0, 758.0, 758.0, 759.0, 759.0, 760.0, 760.0],
      "WindowWidth": [1654.0, 1648.0, 1647.0, 1646.0, 1646.0, 1646.0, 1646.0, 1645.0, 1646.0, 1647.0, 1648.0, 1649.0, 1649.0, 1649.0, 1648.0, 1647.0, 1648.0, 1648.0, 1647.0, 1648.0, 1650.0, 1650.0, 1649.0, 1648.0, 1647.0, 1649.0, 1651.0, 1650.0, 1649.0, 1647.0, 1648.0, 1649.0, 1650.0, 1648.0, 1647.0, 1647.0, 1649.0, 1650.0, 1651.0, 1650.0, 1648.0, 1646.0, 1646.0, 1646.0, 1647.0, 1647.0, 1647.0, 1647.0, 1648.0, 1648.0, 1647.0, 1647.0, 1645.0, 1644.0, 1644.0, 1645.0, 1645.0, 1646.0, 1647.0, 1645.0, 1646.0, 1647.0, 1645.0, 1645.0, 1646.0, 1646.0, 1646.0, 1646.0, 1646.0, 1645.0, 1645.0, 1646.0, 1644.0, 1646.0, 1646.0, 1646.0, 1645.0, 1646.0, 1646.0, 1647.0, 1648.0, 1646.0, 1645.0, 1643.0, 1643.0, 1643.0, 1645.0, 1646.0, 1644.0, 1643.0, 1643.0, 1645.0, 1646.0, 1648.0, 1648.0, 1646.0, 1645.0, 1646.0, 1647.0, 1648.0, 1648.0, 1648.0, 1647.0, 1645.0, 1642.0, 1644.0, 1646.0, 1647.0, 1647.0, 1646.0, 1645.0, 1644.0, 1644.0, 1643.0, 1644.0, 1645.0, 1646.0, 1648.0, 1647.0, 1644.0, 1643.0, 1643.0, 1644.0, 1645.0, 1647.0, 1648.0, 1647.0, 1646.0, 1647.0, 1647.0, 1648.0, 1650.0, 1649.0, 1648.0, 1646.0, 1643.0, 1642.0, 1643.0, 1644.0, 1643.0, 1642.0, 1639.0, 1639.0, 1639.0, 1641.0, 1642.0, 1643.0, 1642.0, 1640.0, 1641.0, 1640.0, 1641.0, 1641.0, 1642.0, 1644.0, 1645.0]
    },
    "slices": {}
  }
}