{
  "AcquisitionMatrixPE": 100,
  "AcquisitionNumber": 1,
  "AcquisitionTime": "09:32:42.687500",
  "BandwidthPerPixelPhaseEncode": 18.519,
  "BaseResolution": 100,
  "BodyPartExamined": "BRAIN",
  "CoilCombinationMethod": "Sum of Squares",
  "ConsistencyInfo": "N4_VE11C_LATEST_20160120",
  "ConversionSoftware": "dcm2niix",
  "ConversionSoftwareVersion": "v1.0.20211006",
  "DerivedVendorReportedEchoSpacing": 0.000539986,
  "DeviceSerialNumber": "166078",
  "DwellTime": 2.1e-06,
  "EchoTime": 0.034,
  "EchoTrainLength": 100,
  "EffectiveEchoSpacing": 0.000539986,
  "FlipAngle": 90,
  "ImageOrientationPatientDICOM": [1, 0, 0, 0, 0.980615, -0.195946],
  "ImageOrientationText": "Tra>Cor(-11.3)",
  "ImageType": [
    "ORIGINAL",
    "PRIMARY",
    "M",
    "ND",
    "MOSAIC"
],
  "ImagingFrequency": 123.258,
  "InPlanePhaseEncodingDirectionDICOM": "COL",
  "InstitutionAddress": "Street StreetNo,Bei Jing,District,CN,ZIP",
  "InstitutionName": "BeiJing Normal University",
  "InstitutionalDepartmentName": "Department",
  "MRAcquisitionType": "2D",
  "MagneticFieldStrength": 3,
  "Manufacturer": "Siemens",
  "ManufacturersModelName": "Prisma",
  "Modality": "MR",
  "MultibandAccelerationFactor": 3,
  "PartialFourier": 1,
  "PatientPosition": "HFS",
  "PercentPhaseFOV": 100,
  "PercentSampling": 100,
  "PhaseEncodingDirection": "j-",
  "PhaseEncodingSteps": 100,
  "PhaseResolution": 1,
  "PixelBandwidth": 2380,
  "ProcedureStepDescription": "BNU_P2018_64CH^Zhen.ZongLei",
  "ProtocolName": "bold_100x100_s3_2x2x2_static_156",
  "PulseSequenceDetails": "%SiemensSeq%\\ep2d_bold",
  "ReceiveCoilActiveElements": "HC1-7;NC1",
  "ReceiveCoilName": "HeadNeck_64",
  "ReconMatrixPE": 100,
  "RefLinesPE": 32,
  "RepetitionTime": 2,
  "SAR": 0.0659885,
  "ScanOptions": "FS",
  "ScanningSequence": "EP",
  "SequenceName": "*epfid2d1_100",
  "SequenceVariant": "SK",
  "SeriesDescription": "bold_100x100_s3_2x2x2_static_156",
  "SeriesNumber": 7,
  "ShimSetting": [-5477, -11505, -1262, 333, -67, -269, -171, 45],
  "SliceThickness": 2,
  "SliceTiming": [1.485, 0, 0.99, 0.0825, 1.0725, 0.165, 1.155, 0.2475, 1.2375, 0.33, 1.32, 0.4125, 1.4025, 0.5775, 1.5675, 0.66, 1.65, 0.7425, 1.7325, 0.825, 1.815, 0.9075, 1.8975, 0.495, 1.485, 0, 0.99, 0.0825, 1.0725, 0.165, 1.155, 0.2475, 1.2375, 0.33, 1.32, 0.4125, 1.4025, 0.5775, 1.5675, 0.66, 1.65, 0.7425, 1.7325, 0.825, 1.815, 0.9075, 1.8975, 0.495, 1.485, 0, 0.99, 0.0825, 1.0725, 0.165, 1.155, 0.2475, 1.2375, 0.33, 1.32, 0.4125, 1.4025, 0.5775, 1.5675, 0.66, 1.65, 0.7425, 1.7325, 0.825, 1.815, 0.9075, 1.8975, 0.495],
  "SoftwareVersions": "syngo MR E11",
  "SpacingBetweenSlices": 2,
  "StationName": "AWP166078",
  "TaskName": "action",
  "TotalReadoutTime": 0.0534586,
  "TxRefAmp": 205.639,
  "dcmmeta_affine": [
    [-2.0, 0.0, 0.0, 101.3559341430664],
    [0.0, 1.9612293243408203, -0.39189228415489197, -84.04277801513672],
    [0.0, 0.39189228415489197, 1.9612293243408203, -82.89900207519531],
    [0.0, 0.0, 0.0, 1.0]
],
  "dcmmeta_reorient_transform": [
    [0.0, -1.0, 0.0, 99.0],
    [1.0, 0.0, 0.0, 0.0],
    [0.0, 0.0, 1.0, 0.0],
    [0.0, 0.0, 0.0, 1.0]
],
  "dcmmeta_shape": [100, 100, 72, 156],
  "dcmmeta_slice_dim": 2,
  "dcmmeta_version": 0.6,
  "global": {
    "const": {
      "AcquisitionMatrix": [100, 0, 0, 100],
      "AngioFlag": "N",
      "BitsAllocated": 16,
      "BitsStored": 12,
      "BodyPartExamined": "BRAIN",
      "Columns": 900,
      "EchoNumbers": 1,
      "EchoTime": 34.0,
      "EchoTrainLength": 100,
      "FlipAngle": 90.0,
      "HighBit": 11,
      "ImageOrientationPatient": [1.0, 0.0, 0.0, 0.0, 0.98061465988951, -0.195946137522],
      "ImagePositionPatient": [-901.35593223572, -894.61064896343, 112.65524233668],
      "ImageType": [
        "ORIGINAL",
        "PRIMARY",
        "M",
        "ND",
        "MOSAIC"
],
      "ImagedNucleus": "1H",
      "ImagingFrequency": 123.257759,
      "InPlanePhaseEncodingDirection": "COL",
      "MRAcquisitionType": "2D",
      "MagneticFieldStrength": 3.0,
      "Manufacturer": "SIEMENS",
      "ManufacturerModelName": "Prisma",
      "Modality": "MR",
      "NumberOfAverages": 1.0,
      "NumberOfPhaseEncodingSteps": 100,
      "PercentPhaseFieldOfView": 100.0,
      "PercentSampling": 100.0,
      "PerformedProcedureStepStartTime": "090048.041000",
      "PhotometricInterpretation": "MONOCHROME2",
      "PixelBandwidth": 2380.0,
      "PixelRepresentation": 0,
      "PixelSpacing": [2.0, 2.0],
      "ProtocolName": "bold_100x100_s3_2x2x2_static_156",
      "RepetitionTime": 2000.0,
      "Rows": 900,
      "SAR": 0.06598855024734,
      "SamplesPerPixel": 1,
      "ScanOptions": "FS",
      "ScanningSequence": "EP",
      "SequenceName": "*epfid2d1_100",
      "SequenceVariant": "SK",
      "SeriesDescription": "bold_100x100_s3_2x2x2_static_156",
      "SeriesNumber": 7,
      "SeriesTime": "093245.555000",
      "SliceLocation": -64.824119101665,
      "SliceThickness": 2.0,
      "SmallestImagePixelValue": 0,
      "SoftwareVersions": "syngo MR E11",
      "SpacingBetweenSlices": 2.0000000354806,
      "SpecificCharacterSet": "ISO_IR 100",
      "StudyID": "1",
      "StudyTime": "090047.842000",
      "TransmitCoilName": "Body",
      "VariableFlipAngleFlag": "N",
      "WindowCenterWidthExplanation": "Algo1",
      "dBdt": 0.0},
    "slices": {}
  },
  "time": {
    "samples": {
      "AcquisitionNumber": [1, 2, 3, 4, 5, 6, 7, 8, 9, 10, 11, 12, 13, 14, 15, 16, 17, 18, 19, 20, 21, 22, 23, 24, 25, 26, 27, 28, 29, 30, 31, 32, 33, 34, 35, 36, 37, 38, 39, 40, 41, 42, 43, 44, 45, 46, 47, 48, 49, 50, 51, 52, 53, 54, 55, 56, 57, 58, 59, 60, 61, 62, 63, 64, 65, 66, 67, 68, 69, 70, 71, 72, 73, 74, 75, 76, 77, 78, 79, 80, 81, 82, 83, 84, 85, 86, 87, 88, 89, 90, 91, 92, 93, 94, 95, 96, 97, 98, 99, 100, 101, 102, 103, 104, 105, 106, 107, 108, 109, 110, 111, 112, 113, 114, 115, 116, 117, 118, 119, 120, 121, 122, 123, 124, 125, 126, 127, 128, 129, 130, 131, 132, 133, 134, 135, 136, 137, 138, 139, 140, 141, 142, 143, 144, 145, 146, 147, 148, 149, 150, 151, 152, 153, 154, 155, 156],
      "AcquisitionTime": ["093242.687500", "093244.687500", "093246.687500", "093248.687500", "093250.687500", "093252.687500", "093254.687500", "093256.687500", "093258.687500", "093300.687500", "093302.687500", "093304.687500", "093306.687500", "093308.687500", "093310.687500", "093312.687500", "093314.687500", "093316.687500", "093318.687500", "093320.687500", "093322.687500", "093324.687500", "093326.687500", "093328.687500", "093330.687500", "093332.687500", "093334.687500", "093336.687500", "093338.687500", "093340.687500", "093342.687500", "093344.687500", "093346.687500", "093348.687500", "093350.687500", "093352.687500", "093354.687500", "093356.687500", "093358.687500", "093400.687500", "093402.687500", "093404.687500", "093406.687500", "093408.687500", "093410.687500", "093412.687500", "093414.687500", "093416.687500", "093418.687500", "093420.687500", "093422.687500", "093424.687500", "093426.687500", "093428.687500", "093430.687500", "093432.687500", "093434.687500", "093436.687500", "093438.687500", "093440.687500", "093442.687500", "093444.687500", "093446.687500", "093448.687500", "093450.687500", "093452.687500", "093454.687500", "093456.687500", "093458.687500", "093500.687500", "093502.687500", "093504.687500", "093506.687500", "093508.687500", "093510.687500", "093512.687500", "093514.687500", "093516.687500", "093518.687500", "093520.687500", "093522.687500", "093524.687500", "093526.687500", "093528.687500", "093530.687500", "093532.687500", "093534.687500", "093536.687500", "093538.687500", "093540.687500", "093542.687500", "093544.687500", "093546.687500", "093548.687500", "093550.687500", "093552.687500", "093554.687500", "093556.687500", "093558.687500", "093600.687500", "093602.687500", "093604.687500", "093606.687500", "093608.687500", "093610.687500", "093612.687500", "093614.687500", "093616.687500", "093618.687500", "093620.687500", "093622.687500", "093624.687500", "093626.687500", "093628.687500", "093630.687500", "093632.687500", "093634.687500", "093636.687500", "093638.687500", "093640.687500", "093642.687500", "093644.687500", "093646.687500", "093648.687500", "093650.687500", "093652.687500", "093654.687500", "093656.687500", "093658.687500", "093700.687500", "093702.687500", "093704.687500", "093706.687500", "093708.687500", "093710.687500", "093712.687500", "093714.687500", "093716.687500", "093718.687500", "093720.687500", "093722.687500", "093724.687500", "093726.687500", "093728.687500", "093730.687500", "093732.687500", "093734.687500", "093736.687500", "093738.687500", "093740.687500", "093742.687500", "093744.687500", "093746.687500", "093748.687500", "093750.687500", "093752.687500"],
      "ContentTime": ["093245.559000", "093247.054000", "093249.055000", "093251.055000", "093253.054000", "093255.055000", "093257.054000", "093259.054000", "093301.055000", "093303.054000", "093305.055000", "093307.054000", "093309.055000", "093311.055000", "093313.055000", "093315.055000", "093317.055000", "093319.055000", "093321.055000", "093323.055000", "093325.055000", "093327.054000", "093329.054000", "093331.055000", "093333.054000", "093335.054000", "093337.054000", "093339.054000", "093341.054000", "093343.055000", "093345.055000", "093347.055000", "093349.055000", "093351.055000", "093353.055000", "093355.055000", "093357.055000", "093359.055000", "093401.056000", "093403.054000", "093405.054000", "093407.054000", "093409.054000", "093411.054000", "093413.054000", "093415.054000", "093417.054000", "093419.054000", "093421.054000", "093423.054000", "093425.055000", "093427.055000", "093429.055000", "093431.054000", "093433.055000", "093435.056000", "093437.055000", "093439.054000", "093441.055000", "093443.055000", "093445.055000", "093447.055000", "093449.054000", "093451.055000", "093453.055000", "093455.055000", "093457.054000", "093459.054000", "093501.054000", "093503.055000", "093505.054000", "093507.054000", "093509.054000", "093511.056000", "093513.055000", "093515.055000", "093517.055000", "093519.055000", "093521.055000", "093523.055000", "093525.054000", "093527.054000", "093529.055000", "093531.054000", "093533.055000", "093535.055000", "093537.055000", "093539.055000", "093541.054000", "093543.054000", "093545.056000", "093547.055000", "093549.055000", "093551.055000", "093553.055000", "093555.054000", "093557.055000", "093559.055000", "093601.055000", "093603.056000", "093605.055000", "093607.054000", "093609.054000", "093611.054000", "093613.054000", "093615.055000", "093617.054000", "093619.054000", "093621.055000", "093623.055000", "093625.055000", "093627.055000", "093629.055000", "093631.055000", "093633.054000", "093635.055000", "093637.055000", "093639.054000", "093641.054000", "093643.054000", "093645.054000", "093647.054000", "093649.054000", "093651.054000", "093653.055000", "093655.055000", "093657.054000", "093659.055000", "093701.054000", "093703.054000", "093705.054000", "093707.054000", "093709.055000", "093711.054000", "093713.056000", "093715.054000", "093717.055000", "093719.055000", "093721.055000", "093723.055000", "093725.054000", "093727.055000", "093729.055000", "093731.071000", "093733.055000", "093735.055000", "093737.055000", "093739.054000", "093741.055000", "093743.055000", "093745.054000", "093747.056000", "093749.055000", "093751.055000", "093753.055000", "093754.748000"],
      "InstanceCreationTime": ["093245.559000", "093247.054000", "093249.055000", "093251.055000", "093253.054000", "093255.055000", "093257.054000", "093259.054000", "093301.055000", "093303.054000", "093305.055000", "093307.054000", "093309.055000", "093311.055000", "093313.055000", "093315.055000", "093317.055000", "093319.055000", "093321.055000", "093323.055000", "093325.055000", "093327.054000", "093329.054000", "093331.055000", "093333.054000", "093335.054000", "093337.054000", "093339.054000", "093341.054000", "093343.055000", "093345.055000", "093347.055000", "093349.055000", "093351.055000", "093353.055000", "093355.055000", "093357.055000", "093359.055000", "093401.056000", "093403.054000", "093405.054000", "093407.054000", "093409.054000", "093411.054000", "093413.054000", "093415.054000", "093417.054000", "093419.054000", "093421.054000", "093423.054000", "093425.055000", "093427.055000", "093429.055000", "093431.054000", "093433.055000", "093435.056000", "093437.055000", "093439.054000", "093441.055000", "093443.055000", "093445.055000", "093447.055000", "093449.054000", "093451.055000", "093453.055000", "093455.055000", "093457.054000", "093459.054000", "093501.054000", "093503.055000", "093505.054000", "093507.054000", "093509.054000", "093511.056000", "093513.055000", "093515.055000", "093517.055000", "093519.055000", "093521.055000", "093523.055000", "093525.054000", "093527.054000", "093529.055000", "093531.054000", "093533.055000", "093535.055000", "093537.055000", "093539.055000", "093541.054000", "093543.054000", "093545.056000", "093547.055000", "093549.055000", "093551.055000", "093553.055000", "093555.054000", "093557.055000", "093559.055000", "093601.055000", "093603.056000", "093605.055000", "093607.054000", "093609.054000", "093611.054000", "093613.054000", "093615.055000", "093617.054000", "093619.054000", "093621.055000", "093623.055000", "093625.055000", "093627.055000", "093629.055000", "093631.055000", "093633.054000", "093635.055000", "093637.055000", "093639.054000", "093641.054000", "093643.054000", "093645.054000", "093647.054000", "093649.054000", "093651.054000", "093653.055000", "093655.055000", "093657.054000", "093659.055000", "093701.054000", "093703.054000", "093705.054000", "093707.054000", "093709.055000", "093711.054000", "093713.056000", "093715.054000", "093717.055000", "093719.055000", "093721.055000", "093723.055000", "093725.054000", "093727.055000", "093729.055000", "093731.071000", "093733.055000", "093735.055000", "093737.055000", "093739.054000", "093741.055000", "093743.055000", "093745.054000", "093747.056000", "093749.055000", "093751.055000", "093753.055000", "093754.748000"],
      "InstanceNumber": [1, 2, 3, 4, 5, 6, 7, 8, 9, 10, 11, 12, 13, 14, 15, 16, 17, 18, 19, 20, 21, 22, 23, 24, 25, 26, 27, 28, 29, 30, 31, 32, 33, 34, 35, 36, 37, 38, 39, 40, 41, 42, 43, 44, 45, 46, 47, 48, 49, 50, 51, 52, 53, 54, 55, 56, 57, 58, 59, 60, 61, 62, 63, 64, 65, 66, 67, 68, 69, 70, 71, 72, 73, 74, 75, 76, 77, 78, 79, 80, 81, 82, 83, 84, 85, 86, 87, 88, 89, 90, 91, 92, 93, 94, 95, 96, 97, 98, 99, 100, 101, 102, 103, 104, 105, 106, 107, 108, 109, 110, 111, 112, 113, 114, 115, 116, 117, 118, 119, 120, 121, 122, 123, 124, 125, 126, 127, 128, 129, 130, 131, 132, 133, 134, 135, 136, 137, 138, 139, 140, 141, 142, 143, 144, 145, 146, 147, 148, 149, 150, 151, 152, 153, 154, 155, 156],
      "LargestImagePixelValue": [3442, 3401, 3430, 3315, 3320, 3344, 3367, 3375, 3394, 3384, 3351, 3377, 3376, 3372, 3337, 3331, 3358, 3369, 3393, 3417, 3344, 3328, 3359, 3365, 3380, 3418, 3337, 3364, 3379, 3403, 3364, 3389, 3384, 3391, 3377, 3349, 3368, 3408, 3370, 3375, 3389, 3364, 3408, 3398, 3350, 3396, 3392, 3381, 3320, 3364, 3361, 3333, 3386, 3396, 3338, 3337, 3334, 3305, 3346, 3362, 3399, 3338, 3395, 3434, 3340, 3341, 3353, 3315, 3334, 3421, 3354, 3372, 3399, 3425, 3362, 3373, 3415, 3413, 3451, 3340, 3362, 3420, 3445, 3355, 3374, 3400, 3350, 3381, 3407, 3413, 3387, 3339, 3339, 3377, 3393, 3394, 3383, 3370, 3372, 3328, 3379, 3408, 3418, 3343, 3387, 3432, 3365, 3419, 3425, 3364, 3380, 3389, 3435, 3365, 3376, 3395, 3413, 3436, 3408, 3328, 3365, 3369, 3379, 3414, 3328, 3390, 3387, 3401, 3382, 3381, 3409, 3397, 3430, 3356, 3386, 3426, 3419, 3373, 3420, 3416, 3420, 3450, 3368, 3374, 3366, 3382, 3371, 3384, 3358, 3388, 3378, 3395, 3453, 3398, 3337, 3368],
      "WindowCenter": [765.0, 763.0, 762.0, 761.0, 761.0, 761.0, 761.0, 761.0, 762.0, 762.0, 762.0, 763.0, 762.0, 762.0, 761.0, 762.0, 762.0, 761.0, 760.0, 760.0, 761.0, 761.0, 762.0, 761.0, 761.0, 761.0, 761.0, 761.0, 762.0, 762.0, 761.0, 760.0, 761.0, 761.0, 761.0, 761.0, 762.0, 763.0, 763.0, 763.0, 762.0, 762.0, 761.0, 762.0, 761.0, 762.0, 762.0, 762.0, 762.0, 762.0, 762.0, 762.0, 762.0, 763.0, 762.0, 762.0, 763.0, 763.0, 764.0, 764.0, 764.0, 763.0, 763.0, 763.0, 763.0, 763.0, 763.0, 763.0, 763.0, 764.0, 763.0, 762.0, 762.0, 763.0, 763.0, 762.0, 762.0, 762.0, 762.0, 761.0, 762.0, 762.0, 762.0, 761.0, 761.0, 762.0, 762.0, 762.0, 761.0, 761.0, 760.0, 761.0, 761.0, 762.0, 762.0, 762.0, 761.0, 762.0, 762.0, 761.0, 761.0, 761.0, 760.0, 760.0, 761.0, 762.0, 762.0, 762.0, 762.0, 762.0, 762.0, 762.0, 763.0, 762.0, 761.0, 761.0, 762.0, 763.0, 763.0, 762.0, 763.0, 762.0, 763.0, 763.0, 762.0, 762.0, 762.0, 762.0, 763.0, 763.0, 763.0, 762.0, 762.0, 762.0, 763.0, 763.0, 762.0, 762.0, 761.0, 761.0, 761.0, 763.0, 762.0, 763.0, 763.0, 763.0, 762.0, 762.0, 762.0, 763.0, 761.0, 761.0, 762.0, 762.0, 762.0, 761.0],
      "WindowWidth": [1659.0, 1655.0, 1651.0, 1648.0, 1648.0, 1647.0, 1647.0, 1648.0, 1650.0, 1652.0, 1652.0, 1653.0, 1651.0, 1650.0, 1649.0, 1651.0, 1651.0, 1649.0, 1646.0, 1646.0, 1647.0, 1649.0, 1650.0, 1649.0, 1649.0, 1648.0, 1648.0, 1648.0, 1650.0, 1650.0, 1647.0, 1646.0, 1647.0, 1647.0, 1647.0, 1647.0, 1650.0, 1652.0, 1653.0, 1652.0, 1651.0, 1649.0, 1649.0, 1649.0, 1649.0, 1650.0, 1651.0, 1652.0, 1650.0, 1651.0, 1650.0, 1650.0, 1651.0, 1653.0, 1650.0, 1651.0, 1653.0, 1654.0, 1655.0, 1656.0, 1655.0, 1652.0, 1652.0, 1653.0, 1653.0, 1654.0, 1654.0, 1652.0, 1653.0, 1655.0, 1654.0, 1650.0, 1650.0, 1652.0, 1653.0, 1651.0, 1651.0, 1651.0, 1649.0, 1648.0, 1650.0, 1651.0, 1651.0, 1649.0, 1649.0, 1651.0, 1651.0, 1649.0, 1648.0, 1647.0, 1646.0, 1647.0, 1649.0, 1651.0, 1652.0, 1650.0, 1649.0, 1651.0, 1651.0, 1647.0, 1647.0, 1647.0, 1645.0, 1645.0, 1648.0, 1651.0, 1650.0, 1650.0, 1651.0, 1650.0, 1651.0, 1651.0, 1652.0, 1651.0, 1649.0, 1648.0, 1650.0, 1654.0, 1654.0, 1652.0, 1653.0, 1651.0, 1652.0, 1654.0, 1650.0, 1651.0, 1650.0, 1650.0, 1653.0, 1653.0, 1653.0, 1651.0, 1652.0, 1651.0, 1652.0, 1653.0, 1652.0, 1649.0, 1648.0, 1648.0, 1649.0, 1652.0, 1651.0, 1652.0, 1652.0, 1653.0, 1652.0, 1651.0, 1652.0, 1652.0, 1649.0, 1647.0, 1650.0, 1651.0, 1649.0, 1647.0]
    },
    "slices": {}
  }
}