{
  "AcquisitionMatrixPE": 100,
  "AcquisitionNumber": 1,
  "AcquisitionTime": "10:26:44.860000",
  "BandwidthPerPixelPhaseEncode": 18.519,
  "BaseResolution": 100,
  "BodyPartExamined": "BRAIN",
  "CoilCombinationMethod": "Sum of Squares",
  "ConsistencyInfo": "N4_VE11C_LATEST_20160120",
  "ConversionSoftware": "dcm2niix",
  "ConversionSoftwareVersion": "v1.0.20211006",
  "DerivedVendorReportedEchoSpacing": 0.000539986,
  "DeviceSerialNumber": "166078",
  "DwellTime": 2.1e-06,
  "EchoTime": 0.034,
  "EchoTrainLength": 100,
  "EffectiveEchoSpacing": 0.000539986,
  "FlipAngle": 90,
  "ImageOrientationPatientDICOM": [0.99685, 0.0187054, 0.0770665, -5.99349e-09, 0.971785, -0.235869],
  "ImageOrientationText": "Tra>Cor(-13.6)>Sag(4.5)",
  "ImageType": [
    "ORIGINAL",
    "PRIMARY",
    "M",
    "ND",
    "MOSAIC"
],
  "ImagingFrequency": 123.258,
  "InPlanePhaseEncodingDirectionDICOM": "COL",
  "InstitutionAddress": "Street StreetNo,Bei Jing,District,CN,ZIP",
  "InstitutionName": "BeiJing Normal University",
  "InstitutionalDepartmentName": "Department",
  "MRAcquisitionType": "2D",
  "MagneticFieldStrength": 3,
  "Manufacturer": "Siemens",
  "ManufacturersModelName": "Prisma",
  "Modality": "MR",
  "MultibandAccelerationFactor": 3,
  "PartialFourier": 1,
  "PatientPosition": "HFS",
  "PercentPhaseFOV": 100,
  "PercentSampling": 100,
  "PhaseEncodingDirection": "j-",
  "PhaseEncodingSteps": 100,
  "PhaseResolution": 1,
  "PixelBandwidth": 2380,
  "ProcedureStepDescription": "BNU_P2018_64CH^Zhen.ZongLei",
  "ProtocolName": "bold_100x100_s3_2x2x2_static_156",
  "PulseSequenceDetails": "%SiemensSeq%\\ep2d_bold",
  "ReceiveCoilActiveElements": "HC1-7;NC1",
  "ReceiveCoilName": "HeadNeck_64",
  "ReconMatrixPE": 100,
  "RefLinesPE": 32,
  "RepetitionTime": 2,
  "SAR": 0.0680172,
  "ScanOptions": "FS",
  "ScanningSequence": "EP",
  "SequenceName": "*epfid2d1_100",
  "SequenceVariant": "SK",
  "SeriesDescription": "bold_100x100_s3_2x2x2_static_156",
  "SeriesNumber": 16,
  "ShimSetting": [-5428, -11517, -1313, 415, 115, -426, -218, -38],
  "SliceThickness": 2,
  "SliceTiming": [1.485, 0, 0.99, 0.0825, 1.0725, 0.165, 1.155, 0.2475, 1.2375, 0.33, 1.32, 0.4125, 1.4025, 0.5775, 1.5675, 0.66, 1.65, 0.7425, 1.7325, 0.825, 1.815, 0.9075, 1.8975, 0.495, 1.485, 0, 0.99, 0.0825, 1.0725, 0.165, 1.155, 0.2475, 1.2375, 0.33, 1.32, 0.4125, 1.4025, 0.5775, 1.5675, 0.66, 1.65, 0.7425, 1.7325, 0.825, 1.815, 0.9075, 1.8975, 0.495, 1.485, 0, 0.99, 0.0825, 1.0725, 0.165, 1.155, 0.2475, 1.2375, 0.33, 1.32, 0.4125, 1.4025, 0.5775, 1.5675, 0.66, 1.65, 0.7425, 1.7325, 0.825, 1.815, 0.9075, 1.8975, 0.495],
  "SoftwareVersions": "syngo MR E11",
  "SpacingBetweenSlices": 2,
  "StationName": "AWP166078",
  "TaskName": "action",
  "TotalReadoutTime": 0.0534586,
  "TxRefAmp": 209.779,
  "dcmmeta_affine": [
    [-1.9937009811401367, -1.1986972303645871e-08, 0.15860825777053833, 97.49837493896484],
    [-0.03741084039211273, 1.943569540977478, -0.4702529311180115, -70.97064208984375],
    [0.15413309633731842, 0.47173869609832764, 1.937448263168335, -101.6880111694336],
    [0.0, 0.0, 0.0, 1.0]
],
  "dcmmeta_reorient_transform": [
    [0.0, -1.0, 0.0, 99.0],
    [1.0, 0.0, 0.0, 0.0],
    [0.0, 0.0, 1.0, 0.0],
    [0.0, 0.0, 0.0, 1.0]
],
  "dcmmeta_shape": [100, 100, 72, 156],
  "dcmmeta_slice_dim": 2,
  "dcmmeta_version": 0.6,
  "global": {
    "const": {
      "AcquisitionMatrix": [100, 0, 0, 100],
      "AngioFlag": "N",
      "BitsAllocated": 16,
      "BitsStored": 12,
      "BodyPartExamined": "BRAIN",
      "Columns": 900,
      "EchoNumbers": 1,
      "EchoTime": 34.0,
      "EchoTrainLength": 100,
      "FlipAngle": 90.0,
      "HighBit": 11,
      "ImageOrientationPatient": [0.99685046763352, 0.018705419536, 0.07706654565252, -5.993486e-09, 0.9717847756587, -0.2358693490006],
      "ImagePositionPatient": [-894.97874111957, -913.83490011676, 72.056365481554],
      "ImageType": [
        "ORIGINAL",
        "PRIMARY",
        "M",
        "ND",
        "MOSAIC"
],
      "ImagedNucleus": "1H",
      "ImagingFrequency": 123.25775,
      "InPlanePhaseEncodingDirection": "COL",
      "LargestImagePixelValue": 4095,
      "MRAcquisitionType": "2D",
      "MagneticFieldStrength": 3.0,
      "Manufacturer": "SIEMENS",
      "ManufacturerModelName": "Prisma",
      "Modality": "MR",
      "NumberOfAverages": 1.0,
      "NumberOfPhaseEncodingSteps": 100,
      "PercentPhaseFieldOfView": 100.0,
      "PercentSampling": 100.0,
      "PerformedProcedureStepStartTime": "090325.218000",
      "PhotometricInterpretation": "MONOCHROME2",
      "PixelBandwidth": 2380.0,
      "PixelRepresentation": 0,
      "PixelSpacing": [2.0, 2.0],
      "ProtocolName": "bold_100x100_s3_2x2x2_static_156",
      "RepetitionTime": 2000.0,
      "Rows": 900,
      "SAR": 0.06801716196721,
      "SamplesPerPixel": 1,
      "ScanOptions": "FS",
      "ScanningSequence": "EP",
      "SequenceName": "*epfid2d1_100",
      "SequenceVariant": "SK",
      "SeriesDescription": "bold_100x100_s3_2x2x2_static_156",
      "SeriesNumber": 16,
      "SeriesTime": "102647.694000",
      "SliceLocation": -74.088524950361,
      "SliceThickness": 2.0,
      "SmallestImagePixelValue": 0,
      "SoftwareVersions": "syngo MR E11",
      "SpacingBetweenSlices": 1.9999999926164,
      "SpecificCharacterSet": "ISO_IR 100",
      "StudyID": "1",
      "StudyTime": "090325.146000",
      "TransmitCoilName": "Body",
      "VariableFlipAngleFlag": "N",
      "WindowCenterWidthExplanation": "Algo1",
      "dBdt": 0.0},
    "slices": {}
  },
  "time": {
    "samples": {
      "AcquisitionNumber": [1, 2, 3, 4, 5, 6, 7, 8, 9, 10, 11, 12, 13, 14, 15, 16, 17, 18, 19, 20, 21, 22, 23, 24, 25, 26, 27, 28, 29, 30, 31, 32, 33, 34, 35, 36, 37, 38, 39, 40, 41, 42, 43, 44, 45, 46, 47, 48, 49, 50, 51, 52, 53, 54, 55, 56, 57, 58, 59, 60, 61, 62, 63, 64, 65, 66, 67, 68, 69, 70, 71, 72, 73, 74, 75, 76, 77, 78, 79, 80, 81, 82, 83, 84, 85, 86, 87, 88, 89, 90, 91, 92, 93, 94, 95, 96, 97, 98, 99, 100, 101, 102, 103, 104, 105, 106, 107, 108, 109, 110, 111, 112, 113, 114, 115, 116, 117, 118, 119, 120, 121, 122, 123, 124, 125, 126, 127, 128, 129, 130, 131, 132, 133, 134, 135, 136, 137, 138, 139, 140, 141, 142, 143, 144, 145, 146, 147, 148, 149, 150, 151, 152, 153, 154, 155, 156],
      "AcquisitionTime": ["102644.860000", "102646.860000", "102648.860000", "102650.860000", "102652.860000", "102654.860000", "102656.860000", "102658.860000", "102700.860000", "102702.860000", "102704.860000", "102706.860000", "102708.860000", "102710.860000", "102712.860000", "102714.860000", "102716.860000", "102718.860000", "102720.860000", "102722.860000", "102724.860000", "102726.860000", "102728.860000", "102730.860000", "102732.860000", "102734.860000", "102736.860000", "102738.860000", "102740.860000", "102742.860000", "102744.860000", "102746.860000", "102748.860000", "102750.860000", "102752.860000", "102754.860000", "102756.860000", "102758.860000", "102800.860000", "102802.860000", "102804.860000", "102806.860000", "102808.860000", "102810.860000", "102812.860000", "102814.860000", "102816.860000", "102818.860000", "102820.860000", "102822.860000", "102824.860000", "102826.860000", "102828.860000", "102830.860000", "102832.860000", "102834.860000", "102836.860000", "102838.860000", "102840.860000", "102842.860000", "102844.860000", "102846.860000", "102848.860000", "102850.860000", "102852.860000", "102854.860000", "102856.860000", "102858.860000", "102900.860000", "102902.860000", "102904.860000", "102906.860000", "102908.860000", "102910.860000", "102912.860000", "102914.860000", "102916.860000", "102918.860000", "102920.860000", "102922.860000", "102924.860000", "102926.860000", "102928.860000", "102930.860000", "102932.860000", "102934.860000", "102936.860000", "102938.860000", "102940.860000", "102942.860000", "102944.860000", "102946.860000", "102948.860000", "102950.860000", "102952.860000", "102954.860000", "102956.860000", "102958.860000", "103000.860000", "103002.860000", "103004.860000", "103006.860000", "103008.860000", "103010.860000", "103012.860000", "103014.860000", "103016.860000", "103018.860000", "103020.860000", "103022.860000", "103024.860000", "103026.860000", "103028.860000", "103030.860000", "103032.860000", "103034.860000", "103036.860000", "103038.860000", "103040.860000", "103042.860000", "103044.860000", "103046.860000", "103048.860000", "103050.860000", "103052.860000", "103054.860000", "103056.860000", "103058.860000", "103100.860000", "103102.860000", "103104.860000", "103106.860000", "103108.860000", "103110.860000", "103112.860000", "103114.860000", "103116.860000", "103118.860000", "103120.860000", "103122.860000", "103124.860000", "103126.860000", "103128.860000", "103130.860000", "103132.860000", "103134.860000", "103136.860000", "103138.860000", "103140.860000", "103142.860000", "103144.860000", "103146.860000", "103148.860000", "103150.860000", "103152.860000", "103154.860000"],
      "ContentTime": ["102647.697000", "102649.193000", "102651.192000", "102653.194000", "102655.194000", "102657.194000", "102659.194000", "102701.193000", "102703.192000", "102705.192000", "102707.192000", "102709.192000", "102711.194000", "102713.194000", "102715.193000", "102717.194000", "102719.193000", "102721.192000", "102723.192000", "102725.192000", "102727.194000", "102729.193000", "102731.193000", "102733.193000", "102735.193000", "102737.192000", "102739.192000", "102741.192000", "102743.192000", "102745.193000", "102747.193000", "102749.194000", "102751.193000", "102753.193000", "102755.193000", "102757.192000", "102759.192000", "102801.192000", "102803.193000", "102805.193000", "102807.193000", "102809.194000", "102811.193000", "102813.193000", "102815.192000", "102817.193000", "102819.193000", "102821.193000", "102823.193000", "102825.193000", "102827.194000", "102829.194000", "102831.192000", "102833.192000", "102835.193000", "102837.194000", "102839.193000", "102841.194000", "102843.194000", "102845.193000", "102847.192000", "102849.193000", "102851.192000", "102853.193000", "102855.194000", "102857.194000", "102859.194000", "102901.193000", "102903.193000", "102905.192000", "102907.192000", "102909.192000", "102911.192000", "102913.194000", "102915.194000", "102917.193000", "102919.194000", "102921.193000", "102923.192000", "102925.192000", "102927.193000", "102929.193000", "102931.193000", "102933.194000", "102935.193000", "102937.193000", "102939.194000", "102941.193000", "102943.192000", "102945.193000", "102947.194000", "102949.194000", "102951.193000", "102953.193000", "102955.193000", "102957.192000", "102959.192000", "103001.192000", "103003.192000", "103005.194000", "103007.193000", "103009.193000", "103011.194000", "103013.194000", "103015.192000", "103017.192000", "103019.193000", "103021.193000", "103023.193000", "103025.194000", "103027.193000", "103029.194000", "103031.194000", "103033.192000", "103035.192000", "103037.193000", "103039.192000", "103041.193000", "103043.193000", "103045.194000", "103047.194000", "103049.194000", "103051.193000", "103053.193000", "103055.192000", "103057.193000", "103059.194000", "103101.194000", "103103.194000", "103105.193000", "103107.192000", "103109.193000", "103111.192000", "103113.192000", "103115.193000", "103117.194000", "103119.194000", "103121.193000", "103123.194000", "103125.192000", "103127.192000", "103129.193000", "103131.192000", "103133.194000", "103135.194000", "103137.193000", "103139.193000", "103141.194000", "103143.192000", "103145.192000", "103147.193000", "103149.193000", "103151.193000", "103153.193000", "103155.194000", "103156.949000"],
      "InstanceCreationTime": ["102647.697000", "102649.193000", "102651.192000", "102653.194000", "102655.194000", "102657.194000", "102659.194000", "102701.193000", "102703.192000", "102705.192000", "102707.192000", "102709.192000", "102711.194000", "102713.194000", "102715.193000", "102717.194000", "102719.193000", "102721.192000", "102723.192000", "102725.192000", "102727.194000", "102729.193000", "102731.193000", "102733.193000", "102735.193000", "102737.192000", "102739.192000", "102741.192000", "102743.192000", "102745.193000", "102747.193000", "102749.194000", "102751.193000", "102753.193000", "102755.193000", "102757.192000", "102759.192000", "102801.192000", "102803.193000", "102805.193000", "102807.193000", "102809.194000", "102811.193000", "102813.193000", "102815.192000", "102817.193000", "102819.193000", "102821.193000", "102823.193000", "102825.193000", "102827.194000", "102829.194000", "102831.192000", "102833.192000", "102835.193000", "102837.194000", "102839.193000", "102841.194000", "102843.194000", "102845.193000", "102847.192000", "102849.193000", "102851.192000", "102853.193000", "102855.194000", "102857.194000", "102859.194000", "102901.193000", "102903.193000", "102905.192000", "102907.192000", "102909.192000", "102911.192000", "102913.194000", "102915.194000", "102917.193000", "102919.194000", "102921.193000", "102923.192000", "102925.192000", "102927.193000", "102929.193000", "102931.193000", "102933.194000", "102935.193000", "102937.193000", "102939.194000", "102941.193000", "102943.192000", "102945.193000", "102947.194000", "102949.194000", "102951.193000", "102953.193000", "102955.193000", "102957.192000", "102959.192000", "103001.192000", "103003.192000", "103005.194000", "103007.193000", "103009.193000", "103011.194000", "103013.194000", "103015.192000", "103017.192000", "103019.193000", "103021.193000", "103023.193000", "103025.194000", "103027.193000", "103029.194000", "103031.194000", "103033.192000", "103035.192000", "103037.193000", "103039.192000", "103041.193000", "103043.193000", "103045.194000", "103047.194000", "103049.194000", "103051.193000", "103053.193000", "103055.192000", "103057.193000", "103059.194000", "103101.194000", "103103.194000", "103105.193000", "103107.192000", "103109.193000", "103111.192000", "103113.192000", "103115.193000", "103117.194000", "103119.194000", "103121.193000", "103123.194000", "103125.192000", "103127.192000", "103129.193000", "103131.192000", "103133.194000", "103135.194000", "103137.193000", "103139.193000", "103141.194000", "103143.192000", "103145.192000", "103147.193000", "103149.193000", "103151.193000", "103153.193000", "103155.194000", "103156.949000"],
      "InstanceNumber": [1, 2, 3, 4, 5, 6, 7, 8, 9, 10, 11, 12, 13, 14, 15, 16, 17, 18, 19, 20, 21, 22, 23, 24, 25, 26, 27, 28, 29, 30, 31, 32, 33, 34, 35, 36, 37, 38, 39, 40, 41, 42, 43, 44, 45, 46, 47, 48, 49, 50, 51, 52, 53, 54, 55, 56, 57, 58, 59, 60, 61, 62, 63, 64, 65, 66, 67, 68, 69, 70, 71, 72, 73, 74, 75, 76, 77, 78, 79, 80, 81, 82, 83, 84, 85, 86, 87, 88, 89, 90, 91, 92, 93, 94, 95, 96, 97, 98, 99, 100, 101, 102, 103, 104, 105, 106, 107, 108, 109, 110, 111, 112, 113, 114, 115, 116, 117, 118, 119, 120, 121, 122, 123, 124, 125, 126, 127, 128, 129, 130, 131, 132, 133, 134, 135, 136, 137, 138, 139, 140, 141, 142, 143, 144, 145, 146, 147, 148, 149, 150, 151, 152, 153, 154, 155, 156],
      "WindowCenter": [837.0, 835.0, 835.0, 836.0, 836.0, 837.0, 836.0, 837.0, 836.0, 836.0, 835.0, 835.0, 835.0, 833.0, 833.0, 834.0, 835.0, 836.0, 835.0, 834.0, 835.0, 835.0, 834.0, 834.0, 834.0, 834.0, 834.0, 834.0, 834.0, 834.0, 835.0, 835.0, 834.0, 834.0, 834.0, 834.0, 835.0, 835.0, 835.0, 834.0, 833.0, 833.0, 833.0, 833.0, 833.0, 834.0, 835.0, 834.0, 833.0, 833.0, 835.0, 835.0, 835.0, 836.0, 836.0, 834.0, 833.0, 833.0, 835.0, 837.0, 837.0, 836.0, 834.0, 834.0, 833.0, 831.0, 830.0, 831.0, 832.0, 833.0, 832.0, 832.0, 833.0, 835.0, 835.0, 833.0, 832.0, 833.0, 835.0, 836.0, 836.0, 835.0, 834.0, 835.0, 835.0, 835.0, 834.0, 833.0, 833.0, 832.0, 831.0, 830.0, 831.0, 832.0, 833.0, 835.0, 835.0, 834.0, 834.0, 835.0, 837.0, 837.0, 836.0, 835.0, 836.0, 837.0, 837.0, 837.0, 837.0, 837.0, 837.0, 838.0, 837.0, 837.0, 835.0, 834.0, 834.0, 834.0, 834.0, 834.0, 834.0, 834.0, 833.0, 832.0, 832.0, 832.0, 832.0, 832.0, 832.0, 834.0, 834.0, 834.0, 834.0, 832.0, 831.0, 832.0, 833.0, 831.0, 828.0, 826.0, 827.0, 827.0, 826.0, 825.0, 825.0, 827.0, 829.0, 830.0, 832.0, 832.0, 832.0, 832.0, 834.0, 837.0, 837.0, 838.0],
      "WindowWidth": [1877.0, 1869.0, 1870.0, 1873.0, 1874.0, 1876.0, 1875.0, 1876.0, 1875.0, 1874.0, 1872.0, 1871.0, 1871.0, 1866.0, 1866.0, 1869.0, 1873.0, 1874.0, 1871.0, 1869.0, 1870.0, 1872.0, 1869.0, 1868.0, 1869.0, 1868.0, 1867.0, 1867.0, 1867.0, 1868.0, 1871.0, 1873.0, 1870.0, 1868.0, 1868.0, 1869.0, 1872.0, 1871.0, 1871.0, 1868.0, 1867.0, 1866.0, 1866.0, 1864.0, 1866.0, 1870.0, 1871.0, 1870.0, 1866.0, 1867.0, 1871.0, 1872.0, 1872.0, 1873.0, 1873.0, 1869.0, 1865.0, 1865.0, 1873.0, 1878.0, 1878.0, 1874.0, 1870.0, 1869.0, 1864.0, 1860.0, 1857.0, 1858.0, 1863.0, 1864.0, 1864.0, 1863.0, 1866.0, 1871.0, 1872.0, 1866.0, 1864.0, 1865.0, 1872.0, 1876.0, 1874.0, 1871.0, 1870.0, 1871.0, 1871.0, 1870.0, 1868.0, 1865.0, 1865.0, 1864.0, 1859.0, 1857.0, 1860.0, 1862.0, 1865.0, 1871.0, 1872.0, 1869.0, 1867.0, 1871.0, 1876.0, 1878.0, 1874.0, 1870.0, 1873.0, 1877.0, 1877.0, 1875.0, 1876.0, 1877.0, 1876.0, 1879.0, 1878.0, 1876.0, 1871.0, 1868.0, 1869.0, 1869.0, 1869.0, 1868.0, 1869.0, 1869.0, 1863.0, 1862.0, 1863.0, 1863.0, 1862.0, 1862.0, 1863.0, 1868.0, 1869.0, 1869.0, 1866.0, 1863.0, 1859.0, 1863.0, 1865.0, 1859.0, 1848.0, 1843.0, 1848.0, 1847.0, 1843.0, 1841.0, 1842.0, 1846.0, 1852.0, 1856.0, 1860.0, 1862.0, 1861.0, 1863.0, 1869.0, 1876.0, 1879.0, 1879.0]
    },
    "slices": {}
  }
}