{
  "AcquisitionMatrixPE": 100,
  "AcquisitionNumber": 1,
  "AcquisitionTime": "13:51:35.785000",
  "BandwidthPerPixelPhaseEncode": 18.519,
  "BaseResolution": 100,
  "BodyPartExamined": "BRAIN",
  "CoilCombinationMethod": "Sum of Squares",
  "ConsistencyInfo": "N4_VE11C_LATEST_20160120",
  "ConversionSoftware": "dcm2niix",
  "ConversionSoftwareVersion": "v1.0.20211006",
  "DerivedVendorReportedEchoSpacing": 0.000539986,
  "DeviceSerialNumber": "166078",
  "DwellTime": 2.1e-06,
  "EchoTime": 0.034,
  "EchoTrainLength": 100,
  "EffectiveEchoSpacing": 0.000539986,
  "FlipAngle": 90,
  "ImageOrientationPatientDICOM": [0.999507, -0.00523832, -0.0309709, -1.05599e-08, 0.985996, -0.166769],
  "ImageOrientationText": "Tra>Cor(-9.6)>Sag(-1.8)",
  "ImageType": [
    "ORIGINAL",
    "PRIMARY",
    "M",
    "ND",
    "MOSAIC"
],
  "ImagingFrequency": 123.258,
  "InPlanePhaseEncodingDirectionDICOM": "COL",
  "InstitutionAddress": "Street StreetNo,Bei Jing,District,CN,ZIP",
  "InstitutionName": "BeiJing Normal University",
  "InstitutionalDepartmentName": "Department",
  "MRAcquisitionType": "2D",
  "MagneticFieldStrength": 3,
  "Manufacturer": "Siemens",
  "ManufacturersModelName": "Prisma",
  "Modality": "MR",
  "MultibandAccelerationFactor": 3,
  "PartialFourier": 1,
  "PatientPosition": "HFS",
  "PercentPhaseFOV": 100,
  "PercentSampling": 100,
  "PhaseEncodingDirection": "j-",
  "PhaseEncodingSteps": 100,
  "PhaseResolution": 1,
  "PixelBandwidth": 2380,
  "ProcedureStepDescription": "BNU_P2018_64CH^Zhen.ZongLei",
  "ProtocolName": "bold_100x100_s3_2x2x2_static_156",
  "PulseSequenceDetails": "%SiemensSeq%\\ep2d_bold",
  "ReceiveCoilActiveElements": "HC1-7;NC1",
  "ReceiveCoilName": "HeadNeck_64",
  "ReconMatrixPE": 100,
  "RefLinesPE": 32,
  "RepetitionTime": 2,
  "SAR": 0.066257,
  "ScanOptions": "FS",
  "ScanningSequence": "EP",
  "SequenceName": "*epfid2d1_100",
  "SequenceVariant": "SK",
  "SeriesDescription": "bold_100x100_s3_2x2x2_static_156",
  "SeriesNumber": 12,
  "ShimSetting": [-5457, -11489, -1258, 333, -5, -153, -189, 57],
  "SliceThickness": 2,
  "SliceTiming": [1.485, 0, 0.99, 0.0825, 1.0725, 0.165, 1.155, 0.2475, 1.2375, 0.33, 1.32, 0.4125, 1.4025, 0.5775, 1.5675, 0.66, 1.65, 0.7425, 1.7325, 0.825, 1.815, 0.9075, 1.8975, 0.495, 1.485, 0, 0.99, 0.0825, 1.0725, 0.165, 1.155, 0.2475, 1.2375, 0.33, 1.32, 0.4125, 1.4025, 0.5775, 1.5675, 0.66, 1.65, 0.7425, 1.7325, 0.825, 1.815, 0.9075, 1.8975, 0.495, 1.485, 0, 0.99, 0.0825, 1.0725, 0.165, 1.155, 0.2475, 1.2375, 0.33, 1.32, 0.4125, 1.4025, 0.5775, 1.5675, 0.66, 1.65, 0.7425, 1.7325, 0.825, 1.815, 0.9075, 1.8975, 0.495],
  "SoftwareVersions": "syngo MR E11",
  "SpacingBetweenSlices": 2,
  "StationName": "AWP166078",
  "TaskName": "action",
  "TotalReadoutTime": 0.0534586,
  "TxRefAmp": 213.373,
  "dcmmeta_affine": [
    [-1.999013066291809, -2.1119825888149535e-08, -0.06282152980566025, 102.18082427978516],
    [0.01047664787620306, 1.971992015838623, -0.33337292075157166, -83.14752960205078],
    [-0.061941783875226974, 0.3335374891757965, 1.9710190296173096, -78.25739288330078],
    [0.0, 0.0, 0.0, 1.0]
],
  "dcmmeta_reorient_transform": [
    [0.0, -1.0, 0.0, 99.0],
    [1.0, 0.0, 0.0, 0.0],
    [0.0, 0.0, 1.0, 0.0],
    [0.0, 0.0, 0.0, 1.0]
],
  "dcmmeta_shape": [100, 100, 72, 156],
  "dcmmeta_slice_dim": 2,
  "dcmmeta_version": 0.6,
  "global": {
    "const": {
      "AcquisitionMatrix": [100, 0, 0, 100],
      "AngioFlag": "N",
      "BitsAllocated": 16,
      "BitsStored": 12,
      "BodyPartExamined": "BRAIN",
      "Columns": 900,
      "EchoNumbers": 1,
      "EchoTime": 34.0,
      "EchoTrainLength": 100,
      "FlipAngle": 90.0,
      "HighBit": 11,
      "ImageOrientationPatient": [0.9995065601566, -0.0052383237284, -0.0309708922772, -1.0559913e-08, 0.98599603652883, -0.1667687499187],
      "ImagePositionPatient": [-901.78605844966, -896.68585635347, 112.95453143092],
      "ImageType": [
        "ORIGINAL",
        "PRIMARY",
        "M",
        "ND",
        "MOSAIC"
],
      "ImagedNucleus": "1H",
      "ImagingFrequency": 123.25769,
      "InPlanePhaseEncodingDirection": "COL",
      "MRAcquisitionType": "2D",
      "MagneticFieldStrength": 3.0,
      "Manufacturer": "SIEMENS",
      "ManufacturerModelName": "Prisma",
      "Modality": "MR",
      "NumberOfAverages": 1.0,
      "NumberOfPhaseEncodingSteps": 100,
      "PercentPhaseFieldOfView": 100.0,
      "PercentSampling": 100.0,
      "PerformedProcedureStepStartTime": "125015.696000",
      "PhotometricInterpretation": "MONOCHROME2",
      "PixelBandwidth": 2380.0,
      "PixelRepresentation": 0,
      "PixelSpacing": [2.0, 2.0],
      "ProtocolName": "bold_100x100_s3_2x2x2_static_156",
      "RepetitionTime": 2000.0,
      "Rows": 900,
      "SAR": 0.06625700620337,
      "SamplesPerPixel": 1,
      "ScanOptions": "FS",
      "ScanningSequence": "EP",
      "SequenceName": "*epfid2d1_100",
      "SequenceVariant": "SK",
      "SeriesDescription": "bold_100x100_s3_2x2x2_static_156",
      "SeriesNumber": 12,
      "SeriesTime": "135138.693000",
      "SliceLocation": -66.473417106135,
      "SliceThickness": 2.0,
      "SmallestImagePixelValue": 0,
      "SoftwareVersions": "syngo MR E11",
      "SpacingBetweenSlices": 2.0000000300821,
      "SpecificCharacterSet": "ISO_IR 100",
      "StudyID": "1",
      "StudyTime": "125015.602000",
      "TransmitCoilName": "Body",
      "VariableFlipAngleFlag": "N",
      "WindowCenterWidthExplanation": "Algo1",
      "dBdt": 0.0},
    "slices": {}
  },
  "time": {
    "samples": {
      "AcquisitionNumber": [1, 2, 3, 4, 5, 6, 7, 8, 9, 10, 11, 12, 13, 14, 15, 16, 17, 18, 19, 20, 21, 22, 23, 24, 25, 26, 27, 28, 29, 30, 31, 32, 33, 34, 35, 36, 37, 38, 39, 40, 41, 42, 43, 44, 45, 46, 47, 48, 49, 50, 51, 52, 53, 54, 55, 56, 57, 58, 59, 60, 61, 62, 63, 64, 65, 66, 67, 68, 69, 70, 71, 72, 73, 74, 75, 76, 77, 78, 79, 80, 81, 82, 83, 84, 85, 86, 87, 88, 89, 90, 91, 92, 93, 94, 95, 96, 97, 98, 99, 100, 101, 102, 103, 104, 105, 106, 107, 108, 109, 110, 111, 112, 113, 114, 115, 116, 117, 118, 119, 120, 121, 122, 123, 124, 125, 126, 127, 128, 129, 130, 131, 132, 133, 134, 135, 136, 137, 138, 139, 140, 141, 142, 143, 144, 145, 146, 147, 148, 149, 150, 151, 152, 153, 154, 155, 156],
      "AcquisitionTime": ["135135.785000", "135137.785000", "135139.785000", "135141.785000", "135143.785000", "135145.785000", "135147.785000", "135149.785000", "135151.785000", "135153.785000", "135155.785000", "135157.785000", "135159.785000", "135201.785000", "135203.785000", "135205.785000", "135207.785000", "135209.785000", "135211.785000", "135213.785000", "135215.785000", "135217.785000", "135219.785000", "135221.785000", "135223.785000", "135225.785000", "135227.785000", "135229.785000", "135231.785000", "135233.785000", "135235.785000", "135237.785000", "135239.785000", "135241.785000", "135243.785000", "135245.785000", "135247.785000", "135249.785000", "135251.785000", "135253.785000", "135255.785000", "135257.785000", "135259.785000", "135301.785000", "135303.785000", "135305.785000", "135307.785000", "135309.785000", "135311.785000", "135313.785000", "135315.785000", "135317.785000", "135319.785000", "135321.785000", "135323.785000", "135325.785000", "135327.785000", "135329.785000", "135331.785000", "135333.785000", "135335.785000", "135337.785000", "135339.785000", "135341.785000", "135343.785000", "135345.785000", "135347.785000", "135349.785000", "135351.785000", "135353.785000", "135355.785000", "135357.785000", "135359.785000", "135401.785000", "135403.785000", "135405.785000", "135407.785000", "135409.785000", "135411.785000", "135413.785000", "135415.785000", "135417.785000", "135419.785000", "135421.785000", "135423.785000", "135425.785000", "135427.785000", "135429.785000", "135431.785000", "135433.785000", "135435.785000", "135437.785000", "135439.785000", "135441.785000", "135443.785000", "135445.785000", "135447.785000", "135449.785000", "135451.785000", "135453.785000", "135455.785000", "135457.785000", "135459.785000", "135501.785000", "135503.785000", "135505.785000", "135507.785000", "135509.785000", "135511.785000", "135513.785000", "135515.785000", "135517.785000", "135519.785000", "135521.785000", "135523.785000", "135525.785000", "135527.785000", "135529.785000", "135531.785000", "135533.785000", "135535.785000", "135537.785000", "135539.785000", "135541.785000", "135543.785000", "135545.785000", "135547.785000", "135549.785000", "135551.785000", "135553.785000", "135555.785000", "135557.785000", "135559.785000", "135601.785000", "135603.785000", "135605.785000", "135607.785000", "135609.785000", "135611.785000", "135613.785000", "135615.785000", "135617.785000", "135619.785000", "135621.785000", "135623.785000", "135625.785000", "135627.785000", "135629.785000", "135631.785000", "135633.785000", "135635.785000", "135637.785000", "135639.785000", "135641.785000", "135643.785000", "135645.785000"],
      "ContentTime": ["135138.696000", "135140.191000", "135142.192000", "135144.193000", "135146.193000", "135148.193000", "135150.191000", "135152.191000", "135154.191000", "135156.191000", "135158.192000", "135200.192000", "135202.192000", "135204.192000", "135206.193000", "135208.192000", "135210.191000", "135212.191000", "135214.191000", "135216.192000", "135218.192000", "135220.193000", "135222.193000", "135224.193000", "135226.191000", "135228.191000", "135230.192000", "135232.191000", "135234.193000", "135236.192000", "135238.193000", "135240.193000", "135242.191000", "135244.192000", "135246.192000", "135248.191000", "135250.191000", "135252.193000", "135254.193000", "135256.192000", "135258.193000", "135300.192000", "135302.191000", "135304.191000", "135306.192000", "135308.193000", "135310.192000", "135312.193000", "135314.193000", "135316.193000", "135318.192000", "135320.192000", "135322.191000", "135324.192000", "135326.192000", "135328.193000", "135330.192000", "135332.193000", "135334.193000", "135336.192000", "135338.192000", "135340.192000", "135342.191000", "135344.193000", "135346.193000", "135348.193000", "135350.193000", "135352.192000", "135354.191000", "135356.191000", "135358.192000", "135400.193000", "135402.192000", "135404.192000", "135406.193000", "135408.192000", "135410.191000", "135412.192000", "135414.192000", "135416.191000", "135418.193000", "135420.193000", "135422.192000", "135424.193000", "135426.193000", "135428.191000", "135430.191000", "135432.191000", "135434.191000", "135436.192000", "135438.193000", "135440.192000", "135442.193000", "135444.193000", "135446.192000", "135448.191000", "135450.192000", "135452.192000", "135454.193000", "135456.193000", "135458.192000", "135500.193000", "135502.192000", "135504.191000", "135506.191000", "135508.191000", "135510.192000", "135512.192000", "135514.193000", "135516.192000", "135518.192000", "135520.192000", "135522.192000", "135524.191000", "135526.192000", "135528.193000", "135530.192000", "135532.193000", "135534.192000", "135536.193000", "135538.191000", "135540.192000", "135542.191000", "135544.191000", "135546.193000", "135548.192000", "135550.193000", "135552.192000", "135554.192000", "135556.192000", "135558.192000", "135600.192000", "135602.192000", "135604.192000", "135606.193000", "135608.193000", "135610.193000", "135612.191000", "135614.192000", "135616.191000", "135618.192000", "135620.192000", "135622.192000", "135624.193000", "135626.193000", "135628.192000", "135630.192000", "135632.191000", "135634.192000", "135636.191000", "135638.193000", "135640.192000", "135642.192000", "135644.193000", "135646.193000", "135648.074000"],
      "InstanceCreationTime": ["135138.696000", "135140.191000", "135142.192000", "135144.193000", "135146.193000", "135148.193000", "135150.191000", "135152.191000", "135154.191000", "135156.191000", "135158.192000", "135200.192000", "135202.192000", "135204.192000", "135206.193000", "135208.192000", "135210.191000", "135212.191000", "135214.191000", "135216.192000", "135218.192000", "135220.193000", "135222.193000", "135224.193000", "135226.191000", "135228.191000", "135230.192000", "135232.191000", "135234.193000", "135236.192000", "135238.193000", "135240.193000", "135242.191000", "135244.192000", "135246.192000", "135248.191000", "135250.191000", "135252.193000", "135254.193000", "135256.192000", "135258.193000", "135300.192000", "135302.191000", "135304.191000", "135306.192000", "135308.193000", "135310.192000", "135312.193000", "135314.193000", "135316.193000", "135318.192000", "135320.192000", "135322.191000", "135324.192000", "135326.192000", "135328.193000", "135330.192000", "135332.193000", "135334.193000", "135336.192000", "135338.192000", "135340.192000", "135342.191000", "135344.193000", "135346.193000", "135348.193000", "135350.193000", "135352.192000", "135354.191000", "135356.191000", "135358.192000", "135400.193000", "135402.192000", "135404.192000", "135406.193000", "135408.192000", "135410.191000", "135412.192000", "135414.192000", "135416.191000", "135418.193000", "135420.193000", "135422.192000", "135424.193000", "135426.193000", "135428.191000", "135430.191000", "135432.191000", "135434.191000", "135436.192000", "135438.193000", "135440.192000", "135442.193000", "135444.193000", "135446.192000", "135448.191000", "135450.192000", "135452.192000", "135454.193000", "135456.193000", "135458.192000", "135500.193000", "135502.192000", "135504.191000", "135506.191000", "135508.191000", "135510.192000", "135512.192000", "135514.193000", "135516.192000", "135518.192000", "135520.192000", "135522.192000", "135524.191000", "135526.192000", "135528.193000", "135530.192000", "135532.193000", "135534.192000", "135536.193000", "135538.191000", "135540.192000", "135542.191000", "135544.191000", "135546.193000", "135548.192000", "135550.193000", "135552.192000", "135554.192000", "135556.192000", "135558.192000", "135600.192000", "135602.192000", "135604.192000", "135606.193000", "135608.193000", "135610.193000", "135612.191000", "135614.192000", "135616.191000", "135618.192000", "135620.192000", "135622.192000", "135624.193000", "135626.193000", "135628.192000", "135630.192000", "135632.191000", "135634.192000", "135636.191000", "135638.193000", "135640.192000", "135642.192000", "135644.193000", "135646.193000", "135648.074000"],
      "InstanceNumber": [1, 2, 3, 4, 5, 6, 7, 8, 9, 10, 11, 12, 13, 14, 15, 16, 17, 18, 19, 20, 21, 22, 23, 24, 25, 26, 27, 28, 29, 30, 31, 32, 33, 34, 35, 36, 37, 38, 39, 40, 41, 42, 43, 44, 45, 46, 47, 48, 49, 50, 51, 52, 53, 54, 55, 56, 57, 58, 59, 60, 61, 62, 63, 64, 65, 66, 67, 68, 69, 70, 71, 72, 73, 74, 75, 76, 77, 78, 79, 80, 81, 82, 83, 84, 85, 86, 87, 88, 89, 90, 91, 92, 93, 94, 95, 96, 97, 98, 99, 100, 101, 102, 103, 104, 105, 106, 107, 108, 109, 110, 111, 112, 113, 114, 115, 116, 117, 118, 119, 120, 121, 122, 123, 124, 125, 126, 127, 128, 129, 130, 131, 132, 133, 134, 135, 136, 137, 138, 139, 140, 141, 142, 143, 144, 145, 146, 147, 148, 149, 150, 151, 152, 153, 154, 155, 156],
      "LargestImagePixelValue": [3614, 3561, 3570, 3515, 3537, 3515, 3552, 3531, 3566, 3499, 3556, 3468, 3541, 3500, 3555, 3504, 3492, 3524, 3511, 3485, 3516, 3483, 3491, 3505, 3505, 3479, 3476, 3450, 3484, 3488, 3529, 3469, 3495, 3449, 3515, 3483, 3480, 3450, 3470, 3448, 3470, 3459, 3504, 3487, 3453, 3473, 3480, 3463, 3491, 3483, 3488, 3466, 3448, 3451, 3445, 3476, 3449, 3487, 3454, 3469, 3458, 3463, 3439, 3461, 3491, 3429, 3444, 3470, 3440, 3472, 3459, 3485, 3470, 3449, 3459, 3528, 3422, 3471, 3485, 3504, 3459, 3479, 3466, 3455, 3470, 3468, 3438, 3446, 3431, 3478, 3444, 3438, 3425, 3468, 3456, 3425, 3433, 3452, 3479, 3501, 3438, 3434, 3455, 3535, 3467, 3402, 3418, 3434, 3434, 3466, 3468, 3521, 3481, 3505, 3438, 3493, 3447, 3432, 3486, 3544, 3547, 3520, 3485, 3556, 3526, 3591, 3541, 3567, 3471, 3512, 3513, 3487, 3447, 3556, 3565, 3569, 3455, 3498, 3501, 3564, 3521, 3551, 3535, 3557, 3491, 3517, 3516, 3544, 3457, 3455, 3415, 3506, 3421, 3475, 3424, 3509],
      "WindowCenter": [813.0, 814.0, 815.0, 815.0, 814.0, 813.0, 811.0, 812.0, 813.0, 813.0, 813.0, 814.0, 814.0, 813.0, 813.0, 813.0, 814.0, 813.0, 811.0, 810.0, 810.0, 811.0, 811.0, 812.0, 811.0, 811.0, 812.0, 811.0, 811.0, 809.0, 808.0, 807.0, 810.0, 811.0, 812.0, 811.0, 811.0, 809.0, 809.0, 809.0, 811.0, 810.0, 808.0, 807.0, 808.0, 810.0, 810.0, 810.0, 810.0, 810.0, 811.0, 811.0, 809.0, 810.0, 811.0, 811.0, 809.0, 809.0, 809.0, 810.0, 812.0, 812.0, 811.0, 810.0, 809.0, 810.0, 810.0, 809.0, 808.0, 809.0, 810.0, 812.0, 811.0, 809.0, 808.0, 810.0, 811.0, 812.0, 809.0, 807.0, 808.0, 810.0, 810.0, 810.0, 811.0, 811.0, 810.0, 810.0, 811.0, 812.0, 810.0, 809.0, 809.0, 809.0, 810.0, 810.0, 810.0, 809.0, 810.0, 811.0, 811.0, 810.0, 810.0, 811.0, 810.0, 808.0, 808.0, 808.0, 810.0, 811.0, 812.0, 813.0, 814.0, 814.0, 813.0, 810.0, 809.0, 810.0, 811.0, 812.0, 811.0, 810.0, 810.0, 811.0, 812.0, 812.0, 810.0, 810.0, 811.0, 812.0, 812.0, 811.0, 809.0, 809.0, 809.0, 811.0, 810.0, 810.0, 809.0, 810.0, 809.0, 810.0, 809.0, 810.0, 810.0, 811.0, 810.0, 810.0, 810.0, 810.0, 809.0, 808.0, 807.0, 808.0, 809.0, 810.0],
      "WindowWidth": [1769.0, 1769.0, 1773.0, 1773.0, 1771.0, 1765.0, 1761.0, 1763.0, 1766.0, 1767.0, 1768.0, 1769.0, 1771.0, 1768.0, 1766.0, 1767.0, 1770.0, 1768.0, 1762.0, 1758.0, 1759.0, 1761.0, 1762.0, 1763.0, 1763.0, 1762.0, 1764.0, 1761.0, 1761.0, 1757.0, 1753.0, 1751.0, 1759.0, 1761.0, 1764.0, 1761.0, 1762.0, 1756.0, 1756.0, 1756.0, 1763.0, 1760.0, 1753.0, 1752.0, 1755.0, 1759.0, 1758.0, 1758.0, 1759.0, 1760.0, 1762.0, 1761.0, 1755.0, 1758.0, 1762.0, 1762.0, 1757.0, 1757.0, 1757.0, 1760.0, 1764.0, 1765.0, 1762.0, 1758.0, 1757.0, 1758.0, 1760.0, 1756.0, 1754.0, 1756.0, 1760.0, 1764.0, 1761.0, 1756.0, 1754.0, 1759.0, 1761.0, 1763.0, 1757.0, 1751.0, 1752.0, 1759.0, 1760.0, 1760.0, 1762.0, 1760.0, 1758.0, 1759.0, 1762.0, 1763.0, 1758.0, 1754.0, 1755.0, 1757.0, 1760.0, 1759.0, 1758.0, 1756.0, 1758.0, 1761.0, 1762.0, 1760.0, 1758.0, 1761.0, 1758.0, 1754.0, 1752.0, 1754.0, 1758.0, 1762.0, 1764.0, 1767.0, 1769.0, 1770.0, 1766.0, 1760.0, 1756.0, 1759.0, 1763.0, 1763.0, 1760.0, 1758.0, 1758.0, 1763.0, 1765.0, 1766.0, 1760.0, 1759.0, 1762.0, 1764.0, 1764.0, 1761.0, 1757.0, 1757.0, 1756.0, 1761.0, 1759.0, 1758.0, 1757.0, 1758.0, 1757.0, 1759.0, 1758.0, 1759.0, 1760.0, 1761.0, 1759.0, 1760.0, 1760.0, 1759.0, 1755.0, 1753.0, 1751.0, 1754.0, 1755.0, 1758.0]
    },
    "slices": {}
  }
}