{
  "AcquisitionMatrixPE": 100,
  "AcquisitionNumber": 1,
  "AcquisitionTime": "11:31:17.527500",
  "BandwidthPerPixelPhaseEncode": 18.519,
  "BaseResolution": 100,
  "BodyPartExamined": "BRAIN",
  "CoilCombinationMethod": "Sum of Squares",
  "ConsistencyInfo": "N4_VE11C_LATEST_20160120",
  "ConversionSoftware": "dcm2niix",
  "ConversionSoftwareVersion": "v1.0.20211006",
  "DerivedVendorReportedEchoSpacing": 0.000539986,
  "DeviceSerialNumber": "166078",
  "DwellTime": 2.1e-06,
  "EchoTime": 0.034,
  "EchoTrainLength": 100,
  "EffectiveEchoSpacing": 0.000539986,
  "FlipAngle": 90,
  "ImageOrientationPatientDICOM": [0.997636, 0.0245746, 0.064172, -1.5999e-08, 0.933866, -0.357623],
  "ImageOrientationText": "Tra>Cor(-21.0)>Sag(3.9)",
  "ImageType": [
    "ORIGINAL",
    "PRIMARY",
    "M",
    "ND",
    "MOSAIC"
],
  "ImagingFrequency": 123.258,
  "InPlanePhaseEncodingDirectionDICOM": "COL",
  "InstitutionAddress": "Street StreetNo,Bei Jing,District,CN,ZIP",
  "InstitutionName": "BeiJing Normal University",
  "InstitutionalDepartmentName": "Department",
  "MRAcquisitionType": "2D",
  "MagneticFieldStrength": 3,
  "Manufacturer": "Siemens",
  "ManufacturersModelName": "Prisma",
  "Modality": "MR",
  "MultibandAccelerationFactor": 3,
  "PartialFourier": 1,
  "PatientPosition": "HFS",
  "PercentPhaseFOV": 100,
  "PercentSampling": 100,
  "PhaseEncodingDirection": "j-",
  "PhaseEncodingSteps": 100,
  "PhaseResolution": 1,
  "PixelBandwidth": 2380,
  "ProcedureStepDescription": "BNU_P2018_64CH^Zhen.ZongLei",
  "ProtocolName": "bold_100x100_s3_2x2x2_static_156",
  "PulseSequenceDetails": "%SiemensSeq%\\ep2d_bold",
  "ReceiveCoilActiveElements": "HC1-7;NC1",
  "ReceiveCoilName": "HeadNeck_64",
  "ReconMatrixPE": 100,
  "RefLinesPE": 32,
  "RepetitionTime": 2,
  "SAR": 0.0728448,
  "ScanOptions": "FS",
  "ScanningSequence": "EP",
  "SequenceName": "*epfid2d1_100",
  "SequenceVariant": "SK",
  "SeriesDescription": "bold_100x100_s3_2x2x2_static_156",
  "SeriesNumber": 13,
  "ShimSetting": [-5435, -11462, -1292, 386, 65, -276, -163, -7],
  "SliceThickness": 2,
  "SliceTiming": [1.485, 0, 0.99, 0.0825, 1.0725, 0.165, 1.155, 0.2475, 1.2375, 0.33, 1.32, 0.4125, 1.4025, 0.5775, 1.5675, 0.66, 1.65, 0.7425, 1.7325, 0.825, 1.815, 0.9075, 1.8975, 0.495, 1.485, 0, 0.99, 0.0825, 1.0725, 0.165, 1.155, 0.2475, 1.2375, 0.33, 1.32, 0.4125, 1.4025, 0.5775, 1.5675, 0.66, 1.65, 0.7425, 1.7325, 0.825, 1.815, 0.9075, 1.8975, 0.495, 1.485, 0, 0.99, 0.0825, 1.0725, 0.165, 1.155, 0.2475, 1.2375, 0.33, 1.32, 0.4125, 1.4025, 0.5775, 1.5675, 0.66, 1.65, 0.7425, 1.7325, 0.825, 1.815, 0.9075, 1.8975, 0.495],
  "SoftwareVersions": "syngo MR E11",
  "SpacingBetweenSlices": 2,
  "StationName": "AWP166078",
  "TaskName": "action",
  "TotalReadoutTime": 0.0534586,
  "TxRefAmp": 228.085,
  "dcmmeta_affine": [
    [-1.9952725172042847, -3.1998087735019e-08, 0.13743296265602112, 97.22671508789062],
    [-0.04914919659495354, 1.8677321672439575, -0.7135549783706665, -63.71316146850586],
    [0.12834396958351135, 0.7152456641197205, 1.8633172512054443, -124.4546890258789],
    [0.0, 0.0, 0.0, 1.0]
],
  "dcmmeta_reorient_transform": [
    [0.0, -1.0, 0.0, 99.0],
    [1.0, 0.0, 0.0, 0.0],
    [0.0, 0.0, 1.0, 0.0],
    [0.0, 0.0, 0.0, 1.0]
],
  "dcmmeta_shape": [100, 100, 72, 156],
  "dcmmeta_slice_dim": 2,
  "dcmmeta_version": 0.6,
  "global": {
    "const": {
      "AcquisitionMatrix": [100, 0, 0, 100],
      "AngioFlag": "N",
      "BitsAllocated": 16,
      "BitsStored": 12,
      "BodyPartExamined": "BRAIN",
      "Columns": 900,
      "EchoNumbers": 1,
      "EchoTime": 34.0,
      "EchoTrainLength": 100,
      "FlipAngle": 90.0,
      "HighBit": 11,
      "ImageOrientationPatient": [0.99763622881038, 0.02457459860994, 0.06417198818933, -1.5999044e-08, 0.93386610573557, -0.3576228412144],
      "ImagePositionPatient": [-895.33568409574, -887.94489097577, 181.11531972455],
      "ImageType": [
        "ORIGINAL",
        "PRIMARY",
        "M",
        "ND",
        "MOSAIC"
],
      "ImagedNucleus": "1H",
      "ImagingFrequency": 123.257759,
      "InPlanePhaseEncodingDirection": "COL",
      "LargestImagePixelValue": 4095,
      "MRAcquisitionType": "2D",
      "MagneticFieldStrength": 3.0,
      "Manufacturer": "SIEMENS",
      "ManufacturerModelName": "Prisma",
      "Modality": "MR",
      "NumberOfAverages": 1.0,
      "NumberOfPhaseEncodingSteps": 100,
      "PercentPhaseFieldOfView": 100.0,
      "PercentSampling": 100.0,
      "PerformedProcedureStepStartTime": "103805.151000",
      "PhotometricInterpretation": "MONOCHROME2",
      "PixelBandwidth": 2380.0,
      "PixelRepresentation": 0,
      "PixelSpacing": [2.0, 2.0],
      "ProtocolName": "bold_100x100_s3_2x2x2_static_156",
      "RepetitionTime": 2000.0,
      "Rows": 900,
      "SAR": 0.0728448056064,
      "SamplesPerPixel": 1,
      "ScanOptions": "FS",
      "ScanningSequence": "EP",
      "SequenceName": "*epfid2d1_100",
      "SequenceVariant": "SK",
      "SeriesDescription": "bold_100x100_s3_2x2x2_static_156",
      "SeriesNumber": 13,
      "SeriesTime": "113120.705000",
      "SliceLocation": -86.536784783564,
      "SliceThickness": 2.0,
      "SmallestImagePixelValue": 0,
      "SoftwareVersions": "syngo MR E11",
      "SpacingBetweenSlices": 1.9999999799611,
      "SpecificCharacterSet": "ISO_IR 100",
      "StudyID": "1",
      "StudyTime": "103805.058000",
      "TransmitCoilName": "Body",
      "VariableFlipAngleFlag": "N",
      "WindowCenterWidthExplanation": "Algo1",
      "dBdt": 0.0},
    "slices": {}
  },
  "time": {
    "samples": {
      "AcquisitionNumber": [1, 2, 3, 4, 5, 6, 7, 8, 9, 10, 11, 12, 13, 14, 15, 16, 17, 18, 19, 20, 21, 22, 23, 24, 25, 26, 27, 28, 29, 30, 31, 32, 33, 34, 35, 36, 37, 38, 39, 40, 41, 42, 43, 44, 45, 46, 47, 48, 49, 50, 51, 52, 53, 54, 55, 56, 57, 58, 59, 60, 61, 62, 63, 64, 65, 66, 67, 68, 69, 70, 71, 72, 73, 74, 75, 76, 77, 78, 79, 80, 81, 82, 83, 84, 85, 86, 87, 88, 89, 90, 91, 92, 93, 94, 95, 96, 97, 98, 99, 100, 101, 102, 103, 104, 105, 106, 107, 108, 109, 110, 111, 112, 113, 114, 115, 116, 117, 118, 119, 120, 121, 122, 123, 124, 125, 126, 127, 128, 129, 130, 131, 132, 133, 134, 135, 136, 137, 138, 139, 140, 141, 142, 143, 144, 145, 146, 147, 148, 149, 150, 151, 152, 153, 154, 155, 156],
      "AcquisitionTime": ["113117.527500", "113119.527500", "113121.527500", "113123.527500", "113125.527500", "113127.527500", "113129.527500", "113131.527500", "113133.527500", "113135.527500", "113137.527500", "113139.527500", "113141.527500", "113143.527500", "113145.527500", "113147.527500", "113149.527500", "113151.527500", "113153.527500", "113155.527500", "113157.527500", "113159.527500", "113201.527500", "113203.527500", "113205.527500", "113207.527500", "113209.527500", "113211.527500", "113213.527500", "113215.527500", "113217.527500", "113219.527500", "113221.527500", "113223.527500", "113225.527500", "113227.527500", "113229.527500", "113231.527500", "113233.527500", "113235.527500", "113237.527500", "113239.527500", "113241.527500", "113243.527500", "113245.527500", "113247.527500", "113249.527500", "113251.527500", "113253.527500", "113255.527500", "113257.527500", "113259.527500", "113301.527500", "113303.527500", "113305.527500", "113307.527500", "113309.527500", "113311.527500", "113313.527500", "113315.527500", "113317.527500", "113319.527500", "113321.527500", "113323.527500", "113325.527500", "113327.527500", "113329.527500", "113331.527500", "113333.527500", "113335.527500", "113337.527500", "113339.527500", "113341.527500", "113343.527500", "113345.527500", "113347.527500", "113349.527500", "113351.527500", "113353.527500", "113355.527500", "113357.527500", "113359.527500", "113401.527500", "113403.527500", "113405.527500", "113407.527500", "113409.527500", "113411.527500", "113413.527500", "113415.527500", "113417.527500", "113419.527500", "113421.527500", "113423.527500", "113425.527500", "113427.527500", "113429.527500", "113431.527500", "113433.527500", "113435.527500", "113437.527500", "113439.527500", "113441.527500", "113443.527500", "113445.527500", "113447.527500", "113449.527500", "113451.527500", "113453.527500", "113455.527500", "113457.527500", "113459.527500", "113501.527500", "113503.527500", "113505.527500", "113507.527500", "113509.527500", "113511.527500", "113513.527500", "113515.527500", "113517.527500", "113519.527500", "113521.527500", "113523.527500", "113525.527500", "113527.527500", "113529.527500", "113531.527500", "113533.527500", "113535.527500", "113537.527500", "113539.527500", "113541.527500", "113543.527500", "113545.527500", "113547.527500", "113549.527500", "113551.527500", "113553.527500", "113555.527500", "113557.527500", "113559.527500", "113601.527500", "113603.527500", "113605.527500", "113607.527500", "113609.527500", "113611.527500", "113613.527500", "113615.527500", "113617.527500", "113619.527500", "113621.527500", "113623.527500", "113625.527500", "113627.527500"],
      "ContentTime": ["113120.709000", "113122.204000", "113124.204000", "113126.204000", "113128.204000", "113130.204000", "113132.204000", "113134.204000", "113136.205000", "113138.205000", "113140.204000", "113142.205000", "113144.204000", "113146.204000", "113148.204000", "113150.204000", "113152.204000", "113154.205000", "113156.205000", "113158.225000", "113200.204000", "113202.204000", "113204.205000", "113206.205000", "113208.204000", "113210.204000", "113212.204000", "113214.204000", "113216.204000", "113218.205000", "113220.204000", "113222.205000", "113224.204000", "113226.206000", "113228.205000", "113230.205000", "113232.205000", "113234.205000", "113236.205000", "113238.205000", "113240.205000", "113242.204000", "113244.205000", "113246.205000", "113248.205000", "113250.205000", "113252.205000", "113254.205000", "113256.205000", "113258.204000", "113300.205000", "113302.205000", "113304.204000", "113306.204000", "113308.205000", "113310.205000", "113312.205000", "113314.205000", "113316.205000", "113318.205000", "113320.205000", "113322.205000", "113324.205000", "113326.205000", "113328.204000", "113330.204000", "113332.205000", "113334.205000", "113336.206000", "113338.205000", "113340.205000", "113342.205000", "113344.205000", "113346.205000", "113348.205000", "113350.205000", "113352.205000", "113354.205000", "113356.205000", "113358.205000", "113400.205000", "113402.204000", "113404.205000", "113406.205000", "113408.205000", "113410.205000", "113412.205000", "113414.204000", "113416.205000", "113418.204000", "113420.204000", "113422.204000", "113424.205000", "113426.205000", "113428.206000", "113430.205000", "113432.205000", "113434.205000", "113436.204000", "113438.205000", "113440.204000", "113442.204000", "113444.205000", "113446.206000", "113448.205000", "113450.205000", "113452.205000", "113454.205000", "113456.205000", "113458.205000", "113500.205000", "113502.205000", "113504.205000", "113506.205000", "113508.204000", "113510.204000", "113512.205000", "113514.205000", "113516.205000", "113518.204000", "113520.205000", "113522.205000", "113524.204000", "113526.205000", "113528.205000", "113530.205000", "113532.205000", "113534.204000", "113536.204000", "113538.206000", "113540.205000", "113542.205000", "113544.205000", "113546.205000", "113548.205000", "113550.205000", "113552.204000", "113554.205000", "113556.206000", "113558.204000", "113600.205000", "113602.205000", "113604.205000", "113606.205000", "113608.204000", "113610.205000", "113612.205000", "113614.205000", "113616.204000", "113618.204000", "113620.204000", "113622.204000", "113624.204000", "113626.205000", "113628.205000", "113629.840000"],
      "InstanceCreationTime": ["113120.709000", "113122.204000", "113124.204000", "113126.204000", "113128.204000", "113130.204000", "113132.204000", "113134.204000", "113136.205000", "113138.205000", "113140.204000", "113142.205000", "113144.204000", "113146.204000", "113148.204000", "113150.204000", "113152.204000", "113154.205000", "113156.205000", "113158.225000", "113200.204000", "113202.204000", "113204.205000", "113206.205000", "113208.204000", "113210.204000", "113212.204000", "113214.204000", "113216.204000", "113218.205000", "113220.204000", "113222.205000", "113224.204000", "113226.206000", "113228.205000", "113230.205000", "113232.205000", "113234.205000", "113236.205000", "113238.205000", "113240.205000", "113242.204000", "113244.205000", "113246.205000", "113248.205000", "113250.205000", "113252.205000", "113254.205000", "113256.205000", "113258.204000", "113300.205000", "113302.205000", "113304.204000", "113306.204000", "113308.205000", "113310.205000", "113312.205000", "113314.205000", "113316.205000", "113318.205000", "113320.205000", "113322.205000", "113324.205000", "113326.205000", "113328.204000", "113330.204000", "113332.205000", "113334.205000", "113336.206000", "113338.205000", "113340.205000", "113342.205000", "113344.205000", "113346.205000", "113348.205000", "113350.205000", "113352.205000", "113354.205000", "113356.205000", "113358.205000", "113400.205000", "113402.204000", "113404.205000", "113406.205000", "113408.205000", "113410.205000", "113412.205000", "113414.204000", "113416.205000", "113418.204000", "113420.204000", "113422.204000", "113424.205000", "113426.205000", "113428.206000", "113430.205000", "113432.205000", "113434.205000", "113436.204000", "113438.205000", "113440.204000", "113442.204000", "113444.205000", "113446.206000", "113448.205000", "113450.205000", "113452.205000", "113454.205000", "113456.205000", "113458.205000", "113500.205000", "113502.205000", "113504.205000", "113506.205000", "113508.204000", "113510.204000", "113512.205000", "113514.205000", "113516.205000", "113518.204000", "113520.205000", "113522.205000", "113524.204000", "113526.205000", "113528.205000", "113530.205000", "113532.205000", "113534.204000", "113536.204000", "113538.206000", "113540.205000", "113542.205000", "113544.205000", "113546.205000", "113548.205000", "113550.205000", "113552.204000", "113554.205000", "113556.206000", "113558.204000", "113600.205000", "113602.205000", "113604.205000", "113606.205000", "113608.204000", "113610.205000", "113612.205000", "113614.205000", "113616.204000", "113618.204000", "113620.204000", "113622.204000", "113624.204000", "113626.205000", "113628.205000", "113629.840000"],
      "InstanceNumber": [1, 2, 3, 4, 5, 6, 7, 8, 9, 10, 11, 12, 13, 14, 15, 16, 17, 18, 19, 20, 21, 22, 23, 24, 25, 26, 27, 28, 29, 30, 31, 32, 33, 34, 35, 36, 37, 38, 39, 40, 41, 42, 43, 44, 45, 46, 47, 48, 49, 50, 51, 52, 53, 54, 55, 56, 57, 58, 59, 60, 61, 62, 63, 64, 65, 66, 67, 68, 69, 70, 71, 72, 73, 74, 75, 76, 77, 78, 79, 80, 81, 82, 83, 84, 85, 86, 87, 88, 89, 90, 91, 92, 93, 94, 95, 96, 97, 98, 99, 100, 101, 102, 103, 104, 105, 106, 107, 108, 109, 110, 111, 112, 113, 114, 115, 116, 117, 118, 119, 120, 121, 122, 123, 124, 125, 126, 127, 128, 129, 130, 131, 132, 133, 134, 135, 136, 137, 138, 139, 140, 141, 142, 143, 144, 145, 146, 147, 148, 149, 150, 151, 152, 153, 154, 155, 156],
      "WindowCenter": [878.0, 875.0, 874.0, 874.0, 875.0, 875.0, 875.0, 874.0, 875.0, 877.0, 877.0, 876.0, 876.0, 877.0, 876.0, 876.0, 876.0, 875.0, 874.0, 874.0, 875.0, 876.0, 876.0, 875.0, 875.0, 875.0, 875.0, 875.0, 876.0, 876.0, 876.0, 875.0, 876.0, 877.0, 877.0, 876.0, 875.0, 875.0, 876.0, 877.0, 876.0, 876.0, 875.0, 875.0, 876.0, 877.0, 876.0, 875.0, 874.0, 874.0, 875.0, 876.0, 877.0, 876.0, 875.0, 875.0, 875.0, 876.0, 877.0, 878.0, 878.0, 877.0, 875.0, 875.0, 873.0, 872.0, 871.0, 870.0, 870.0, 871.0, 872.0, 873.0, 874.0, 874.0, 875.0, 875.0, 876.0, 877.0, 877.0, 877.0, 877.0, 877.0, 878.0, 878.0, 878.0, 877.0, 877.0, 877.0, 877.0, 876.0, 876.0, 875.0, 876.0, 877.0, 877.0, 877.0, 876.0, 876.0, 877.0, 877.0, 877.0, 876.0, 875.0, 874.0, 875.0, 875.0, 875.0, 875.0, 875.0, 876.0, 874.0, 872.0, 871.0, 872.0, 872.0, 872.0, 872.0, 872.0, 873.0, 875.0, 876.0, 876.0, 876.0, 875.0, 875.0, 875.0, 875.0, 874.0, 875.0, 877.0, 876.0, 876.0, 874.0, 872.0, 873.0, 873.0, 873.0, 873.0, 872.0, 873.0, 875.0, 876.0, 876.0, 877.0, 876.0, 876.0, 876.0, 875.0, 874.0, 873.0, 873.0, 874.0, 874.0, 873.0, 875.0, 876.0],
      "WindowWidth": [1937.0, 1929.0, 1925.0, 1926.0, 1926.0, 1927.0, 1926.0, 1926.0, 1928.0, 1932.0, 1932.0, 1931.0, 1931.0, 1932.0, 1932.0, 1931.0, 1931.0, 1928.0, 1924.0, 1924.0, 1927.0, 1930.0, 1930.0, 1928.0, 1926.0, 1926.0, 1927.0, 1928.0, 1931.0, 1931.0, 1930.0, 1927.0, 1931.0, 1932.0, 1933.0, 1930.0, 1926.0, 1927.0, 1930.0, 1932.0, 1930.0, 1929.0, 1927.0, 1928.0, 1931.0, 1932.0, 1928.0, 1925.0, 1924.0, 1924.0, 1927.0, 1930.0, 1932.0, 1930.0, 1926.0, 1925.0, 1926.0, 1929.0, 1933.0, 1935.0, 1933.0, 1931.0, 1927.0, 1926.0, 1922.0, 1919.0, 1915.0, 1914.0, 1913.0, 1915.0, 1918.0, 1921.0, 1923.0, 1924.0, 1925.0, 1926.0, 1929.0, 1931.0, 1931.0, 1931.0, 1932.0, 1932.0, 1935.0, 1935.0, 1935.0, 1932.0, 1932.0, 1932.0, 1931.0, 1929.0, 1927.0, 1926.0, 1928.0, 1932.0, 1931.0, 1930.0, 1929.0, 1930.0, 1931.0, 1932.0, 1931.0, 1928.0, 1925.0, 1922.0, 1925.0, 1925.0, 1924.0, 1924.0, 1926.0, 1928.0, 1922.0, 1918.0, 1915.0, 1917.0, 1918.0, 1917.0, 1917.0, 1918.0, 1918.0, 1925.0, 1928.0, 1928.0, 1928.0, 1925.0, 1925.0, 1925.0, 1924.0, 1921.0, 1926.0, 1930.0, 1928.0, 1928.0, 1922.0, 1916.0, 1918.0, 1920.0, 1920.0, 1919.0, 1917.0, 1919.0, 1925.0, 1927.0, 1927.0, 1929.0, 1928.0, 1927.0, 1927.0, 1924.0, 1920.0, 1918.0, 1919.0, 1921.0, 1921.0, 1919.0, 1924.0, 1927.0]
    },
    "slices": {}
  }
}