{
  "AcquisitionMatrixPE": 100,
  "AcquisitionNumber": 1,
  "AcquisitionTime": "11:14:53.955000",
  "BandwidthPerPixelPhaseEncode": 18.519,
  "BaseResolution": 100,
  "BodyPartExamined": "BRAIN",
  "CoilCombinationMethod": "Sum of Squares",
  "ConsistencyInfo": "N4_VE11C_LATEST_20160120",
  "ConversionSoftware": "dcm2niix",
  "ConversionSoftwareVersion": "v1.0.20211006",
  "DerivedVendorReportedEchoSpacing": 0.000539986,
  "DeviceSerialNumber": "166078",
  "DwellTime": 2.1e-06,
  "EchoTime": 0.034,
  "EchoTrainLength": 100,
  "EffectiveEchoSpacing": 0.000539986,
  "FlipAngle": 90,
  "ImageOrientationPatientDICOM": [0.997108, 0.0277803, 0.0707351, -2.83264e-08, 0.930789, -0.365556],
  "ImageOrientationText": "Tra>Cor(-21.4)>Sag(4.4)",
  "ImageType": [
    "ORIGINAL",
    "PRIMARY",
    "M",
    "ND",
    "MOSAIC"
],
  "ImagingFrequency": 123.258,
  "InPlanePhaseEncodingDirectionDICOM": "COL",
  "InstitutionAddress": "Street StreetNo,Bei Jing,District,CN,ZIP",
  "InstitutionName": "BeiJing Normal University",
  "InstitutionalDepartmentName": "Department",
  "MRAcquisitionType": "2D",
  "MagneticFieldStrength": 3,
  "Manufacturer": "Siemens",
  "ManufacturersModelName": "Prisma",
  "Modality": "MR",
  "MultibandAccelerationFactor": 3,
  "PartialFourier": 1,
  "PatientPosition": "HFS",
  "PercentPhaseFOV": 100,
  "PercentSampling": 100,
  "PhaseEncodingDirection": "j-",
  "PhaseEncodingSteps": 100,
  "PhaseResolution": 1,
  "PixelBandwidth": 2380,
  "ProcedureStepDescription": "BNU_P2018_64CH^Zhen.ZongLei",
  "ProtocolName": "bold_100x100_s3_2x2x2_static_156",
  "PulseSequenceDetails": "%SiemensSeq%\\ep2d_bold",
  "ReceiveCoilActiveElements": "HC1-7;NC1",
  "ReceiveCoilName": "HeadNeck_64",
  "ReconMatrixPE": 100,
  "RefLinesPE": 32,
  "RepetitionTime": 2,
  "SAR": 0.0684489,
  "ScanOptions": "FS",
  "ScanningSequence": "EP",
  "SequenceName": "*epfid2d1_100",
  "SequenceVariant": "SK",
  "SeriesDescription": "bold_100x100_s3_2x2x2_static_156",
  "SeriesNumber": 8,
  "ShimSetting": [-5432, -11478, -1241, 399, 62, -286, -155, 23],
  "SliceThickness": 2,
  "SliceTiming": [1.485, 0, 0.99, 0.0825, 1.0725, 0.165, 1.155, 0.2475, 1.2375, 0.33, 1.32, 0.4125, 1.4025, 0.5775, 1.5675, 0.66, 1.65, 0.7425, 1.7325, 0.825, 1.815, 0.9075, 1.8975, 0.495, 1.485, 0, 0.99, 0.0825, 1.0725, 0.165, 1.155, 0.2475, 1.2375, 0.33, 1.32, 0.4125, 1.4025, 0.5775, 1.5675, 0.66, 1.65, 0.7425, 1.7325, 0.825, 1.815, 0.9075, 1.8975, 0.495, 1.485, 0, 0.99, 0.0825, 1.0725, 0.165, 1.155, 0.2475, 1.2375, 0.33, 1.32, 0.4125, 1.4025, 0.5775, 1.5675, 0.66, 1.65, 0.7425, 1.7325, 0.825, 1.815, 0.9075, 1.8975, 0.495],
  "SoftwareVersions": "syngo MR E11",
  "SpacingBetweenSlices": 2,
  "StationName": "AWP166078",
  "TaskName": "action",
  "TotalReadoutTime": 0.0534586,
  "TxRefAmp": 218.231,
  "dcmmeta_affine": [
    [-1.9942164421081543, -5.6652883273500265e-08, 0.15198948979377747, 94.4410171508789],
    [-0.05556069687008858, 1.8615788221359253, -0.7289974093437195, -61.86661911010742],
    [0.14147019386291504, 0.7311116456985474, 1.8561955690383911, -106.9473648071289],
    [0.0, 0.0, 0.0, 1.0]
],
  "dcmmeta_reorient_transform": [
    [0.0, -1.0, 0.0, 99.0],
    [1.0, 0.0, 0.0, 0.0],
    [0.0, 0.0, 1.0, 0.0],
    [0.0, 0.0, 0.0, 1.0]
],
  "dcmmeta_shape": [100, 100, 72, 156],
  "dcmmeta_slice_dim": 2,
  "dcmmeta_version": 0.6,
  "global": {
    "const": {
      "AcquisitionMatrix": [100, 0, 0, 100],
      "AngioFlag": "N",
      "BitsAllocated": 16,
      "BitsStored": 12,
      "BodyPartExamined": "BRAIN",
      "Columns": 900,
      "EchoNumbers": 1,
      "EchoTime": 34.0,
      "EchoTrainLength": 100,
      "FlipAngle": 90.0,
      "HighBit": 11,
      "ImageOrientationPatient": [0.99710821797578, 0.02778034800504, 0.07073509673338, -2.8326441e-08, 0.93078942163997, -0.3655558131984],
      "ImagePositionPatient": [-892.12756191518, -889.28550081039, 201.28925974769],
      "ImageType": [
        "ORIGINAL",
        "PRIMARY",
        "M",
        "ND",
        "MOSAIC"
],
      "ImagedNucleus": "1H",
      "ImagingFrequency": 123.257747,
      "InPlanePhaseEncodingDirection": "COL",
      "LargestImagePixelValue": 4095,
      "MRAcquisitionType": "2D",
      "MagneticFieldStrength": 3.0,
      "Manufacturer": "SIEMENS",
      "ManufacturerModelName": "Prisma",
      "Modality": "MR",
      "NumberOfAverages": 1.0,
      "NumberOfPhaseEncodingSteps": 100,
      "PercentPhaseFieldOfView": 100.0,
      "PercentSampling": 100.0,
      "PerformedProcedureStepStartTime": "103805.151000",
      "PhotometricInterpretation": "MONOCHROME2",
      "PixelBandwidth": 2380.0,
      "PixelRepresentation": 0,
      "PixelSpacing": [2.0, 2.0],
      "ProtocolName": "bold_100x100_s3_2x2x2_static_156",
      "RepetitionTime": 2000.0,
      "Rows": 900,
      "SAR": 0.06844891816865,
      "SamplesPerPixel": 1,
      "ScanOptions": "FS",
      "ScanningSequence": "EP",
      "SequenceName": "*epfid2d1_100",
      "SequenceVariant": "SK",
      "SeriesDescription": "bold_100x100_s3_2x2x2_static_156",
      "SeriesNumber": 8,
      "SeriesTime": "111456.420000",
      "SliceLocation": -69.530287690078,
      "SliceThickness": 2.0,
      "SmallestImagePixelValue": 0,
      "SoftwareVersions": "syngo MR E11",
      "SpacingBetweenSlices": 2.0000000158393,
      "SpecificCharacterSet": "ISO_IR 100",
      "StudyID": "1",
      "StudyTime": "103805.058000",
      "TransmitCoilName": "Body",
      "VariableFlipAngleFlag": "N",
      "WindowCenterWidthExplanation": "Algo1",
      "dBdt": 0.0},
    "slices": {}
  },
  "time": {
    "samples": {
      "AcquisitionNumber": [1, 2, 3, 4, 5, 6, 7, 8, 9, 10, 11, 12, 13, 14, 15, 16, 17, 18, 19, 20, 21, 22, 23, 24, 25, 26, 27, 28, 29, 30, 31, 32, 33, 34, 35, 36, 37, 38, 39, 40, 41, 42, 43, 44, 45, 46, 47, 48, 49, 50, 51, 52, 53, 54, 55, 56, 57, 58, 59, 60, 61, 62, 63, 64, 65, 66, 67, 68, 69, 70, 71, 72, 73, 74, 75, 76, 77, 78, 79, 80, 81, 82, 83, 84, 85, 86, 87, 88, 89, 90, 91, 92, 93, 94, 95, 96, 97, 98, 99, 100, 101, 102, 103, 104, 105, 106, 107, 108, 109, 110, 111, 112, 113, 114, 115, 116, 117, 118, 119, 120, 121, 122, 123, 124, 125, 126, 127, 128, 129, 130, 131, 132, 133, 134, 135, 136, 137, 138, 139, 140, 141, 142, 143, 144, 145, 146, 147, 148, 149, 150, 151, 152, 153, 154, 155, 156],
      "AcquisitionTime": ["111453.955000", "111455.955000", "111457.955000", "111459.955000", "111501.955000", "111503.955000", "111505.955000", "111507.955000", "111509.955000", "111511.955000", "111513.955000", "111515.955000", "111517.955000", "111519.955000", "111521.955000", "111523.955000", "111525.955000", "111527.955000", "111529.955000", "111531.955000", "111533.955000", "111535.955000", "111537.955000", "111539.955000", "111541.955000", "111543.955000", "111545.955000", "111547.955000", "111549.955000", "111551.955000", "111553.955000", "111555.955000", "111557.955000", "111559.955000", "111601.955000", "111603.955000", "111605.955000", "111607.955000", "111609.955000", "111611.955000", "111613.955000", "111615.955000", "111617.955000", "111619.955000", "111621.955000", "111623.955000", "111625.955000", "111627.955000", "111629.955000", "111631.955000", "111633.955000", "111635.955000", "111637.955000", "111639.955000", "111641.955000", "111643.955000", "111645.955000", "111647.955000", "111649.955000", "111651.955000", "111653.955000", "111655.955000", "111657.955000", "111659.955000", "111701.955000", "111703.955000", "111705.955000", "111707.955000", "111709.955000", "111711.955000", "111713.955000", "111715.955000", "111717.955000", "111719.955000", "111721.955000", "111723.955000", "111725.955000", "111727.955000", "111729.955000", "111731.955000", "111733.955000", "111735.955000", "111737.955000", "111739.955000", "111741.955000", "111743.955000", "111745.955000", "111747.955000", "111749.955000", "111751.955000", "111753.955000", "111755.955000", "111757.955000", "111759.955000", "111801.955000", "111803.955000", "111805.955000", "111807.955000", "111809.955000", "111811.955000", "111813.955000", "111815.955000", "111817.955000", "111819.955000", "111821.955000", "111823.955000", "111825.955000", "111827.955000", "111829.955000", "111831.955000", "111833.955000", "111835.955000", "111837.955000", "111839.955000", "111841.955000", "111843.955000", "111845.955000", "111847.955000", "111849.955000", "111851.955000", "111853.955000", "111855.955000", "111857.955000", "111859.955000", "111901.955000", "111903.955000", "111905.955000", "111907.955000", "111909.955000", "111911.955000", "111913.955000", "111915.955000", "111917.955000", "111919.955000", "111921.955000", "111923.955000", "111925.955000", "111927.955000", "111929.955000", "111931.955000", "111933.955000", "111935.955000", "111937.955000", "111939.955000", "111941.955000", "111943.955000", "111945.955000", "111947.955000", "111949.955000", "111951.955000", "111953.955000", "111955.955000", "111957.955000", "111959.955000", "112001.955000", "112003.955000"],
      "ContentTime": ["111456.423000", "111457.919000", "111459.920000", "111501.920000", "111503.919000", "111505.920000", "111507.920000", "111509.919000", "111511.918000", "111513.918000", "111515.920000", "111517.919000", "111519.919000", "111521.920000", "111523.919000", "111525.920000", "111527.918000", "111529.918000", "111531.920000", "111534.420000", "111536.420000", "111537.919000", "111539.919000", "111541.920000", "111543.920000", "111545.918000", "111547.918000", "111549.920000", "111551.919000", "111553.920000", "111555.919000", "111557.920000", "111559.920000", "111601.919000", "111603.918000", "111605.918000", "111607.920000", "111609.919000", "111611.919000", "111613.920000", "111615.919000", "111617.919000", "111619.918000", "111621.919000", "111623.918000", "111625.920000", "111627.919000", "111629.919000", "111631.919000", "111634.420000", "111635.919000", "111637.918000", "111639.918000", "111641.920000", "111643.919000", "111645.919000", "111647.920000", "111649.920000", "111651.920000", "111653.919000", "111655.919000", "111657.918000", "111659.920000", "111701.920000", "111703.919000", "111705.919000", "111707.919000", "111709.919000", "111711.919000", "111713.919000", "111715.919000", "111717.920000", "111719.919000", "111721.919000", "111723.919000", "111725.919000", "111727.920000", "111729.919000", "111731.919000", "111733.918000", "111735.919000", "111737.919000", "111739.920000", "111741.919000", "111743.919000", "111745.919000", "111747.919000", "111749.918000", "111751.919000", "111753.919000", "111755.920000", "111757.920000", "111759.919000", "111801.919000", "111803.919000", "111805.919000", "111807.918000", "111809.920000", "111811.919000", "111813.919000", "111815.919000", "111817.920000", "111819.919000", "111821.920000", "111823.918000", "111825.919000", "111827.919000", "111829.919000", "111831.919000", "111833.920000", "111835.920000", "111837.920000", "111839.919000", "111841.919000", "111843.918000", "111845.920000", "111847.919000", "111849.919000", "111851.920000", "111853.919000", "111855.919000", "111857.918000", "111859.918000", "111901.919000", "111903.920000", "111905.919000", "111907.919000", "111909.920000", "111911.920000", "111913.919000", "111915.919000", "111917.918000", "111919.919000", "111921.919000", "111923.919000", "111925.920000", "111927.920000", "111929.920000", "111931.920000", "111933.918000", "111935.918000", "111937.919000", "111939.919000", "111941.920000", "111943.920000", "111945.920000", "111947.919000", "111949.919000", "111951.918000", "111953.919000", "111955.920000", "111957.920000", "111959.919000", "112001.920000", "112003.920000", "112005.766000"],
      "InstanceCreationTime": ["111456.423000", "111457.919000", "111459.920000", "111501.920000", "111503.919000", "111505.920000", "111507.920000", "111509.919000", "111511.918000", "111513.918000", "111515.920000", "111517.919000", "111519.919000", "111521.920000", "111523.919000", "111525.920000", "111527.918000", "111529.918000", "111531.920000", "111534.420000", "111536.420000", "111537.919000", "111539.919000", "111541.920000", "111543.920000", "111545.918000", "111547.918000", "111549.920000", "111551.919000", "111553.920000", "111555.919000", "111557.920000", "111559.920000", "111601.919000", "111603.918000", "111605.918000", "111607.920000", "111609.919000", "111611.919000", "111613.920000", "111615.919000", "111617.919000", "111619.918000", "111621.919000", "111623.918000", "111625.920000", "111627.919000", "111629.919000", "111631.919000", "111634.420000", "111635.919000", "111637.918000", "111639.918000", "111641.920000", "111643.919000", "111645.919000", "111647.920000", "111649.920000", "111651.920000", "111653.919000", "111655.919000", "111657.918000", "111659.920000", "111701.920000", "111703.919000", "111705.919000", "111707.919000", "111709.919000", "111711.919000", "111713.919000", "111715.919000", "111717.920000", "111719.919000", "111721.919000", "111723.919000", "111725.919000", "111727.920000", "111729.919000", "111731.919000", "111733.918000", "111735.919000", "111737.919000", "111739.920000", "111741.919000", "111743.919000", "111745.919000", "111747.919000", "111749.918000", "111751.919000", "111753.919000", "111755.920000", "111757.920000", "111759.919000", "111801.919000", "111803.919000", "111805.919000", "111807.918000", "111809.920000", "111811.919000", "111813.919000", "111815.919000", "111817.920000", "111819.919000", "111821.920000", "111823.918000", "111825.919000", "111827.919000", "111829.919000", "111831.919000", "111833.920000", "111835.920000", "111837.920000", "111839.919000", "111841.919000", "111843.918000", "111845.920000", "111847.919000", "111849.919000", "111851.920000", "111853.919000", "111855.919000", "111857.918000", "111859.918000", "111901.919000", "111903.920000", "111905.919000", "111907.919000", "111909.920000", "111911.920000", "111913.919000", "111915.919000", "111917.918000", "111919.919000", "111921.919000", "111923.919000", "111925.920000", "111927.920000", "111929.920000", "111931.920000", "111933.918000", "111935.918000", "111937.919000", "111939.919000", "111941.920000", "111943.920000", "111945.920000", "111947.919000", "111949.919000", "111951.918000", "111953.919000", "111955.920000", "111957.920000", "111959.919000", "112001.920000", "112003.920000", "112005.766000"],
      "InstanceNumber": [1, 2, 3, 4, 5, 6, 7, 8, 9, 10, 11, 12, 13, 14, 15, 16, 17, 18, 19, 20, 21, 22, 23, 24, 25, 26, 27, 28, 29, 30, 31, 32, 33, 34, 35, 36, 37, 38, 39, 40, 41, 42, 43, 44, 45, 46, 47, 48, 49, 50, 51, 52, 53, 54, 55, 56, 57, 58, 59, 60, 61, 62, 63, 64, 65, 66, 67, 68, 69, 70, 71, 72, 73, 74, 75, 76, 77, 78, 79, 80, 81, 82, 83, 84, 85, 86, 87, 88, 89, 90, 91, 92, 93, 94, 95, 96, 97, 98, 99, 100, 101, 102, 103, 104, 105, 106, 107, 108, 109, 110, 111, 112, 113, 114, 115, 116, 117, 118, 119, 120, 121, 122, 123, 124, 125, 126, 127, 128, 129, 130, 131, 132, 133, 134, 135, 136, 137, 138, 139, 140, 141, 142, 143, 144, 145, 146, 147, 148, 149, 150, 151, 152, 153, 154, 155, 156],
      "WindowCenter": [866.0, 864.0, 865.0, 865.0, 866.0, 867.0, 868.0, 869.0, 869.0, 870.0, 868.0, 867.0, 867.0, 866.0, 866.0, 866.0, 866.0, 866.0, 866.0, 866.0, 865.0, 864.0, 864.0, 867.0, 866.0, 865.0, 863.0, 863.0, 864.0, 865.0, 865.0, 863.0, 863.0, 863.0, 863.0, 864.0, 864.0, 863.0, 863.0, 864.0, 865.0, 865.0, 864.0, 863.0, 863.0, 863.0, 864.0, 864.0, 865.0, 865.0, 866.0, 866.0, 866.0, 866.0, 866.0, 865.0, 865.0, 866.0, 866.0, 866.0, 866.0, 866.0, 865.0, 865.0, 865.0, 865.0, 865.0, 866.0, 866.0, 865.0, 864.0, 865.0, 866.0, 865.0, 864.0, 864.0, 864.0, 866.0, 866.0, 865.0, 865.0, 865.0, 865.0, 865.0, 865.0, 865.0, 866.0, 866.0, 866.0, 865.0, 865.0, 865.0, 865.0, 864.0, 865.0, 866.0, 867.0, 867.0, 866.0, 866.0, 865.0, 864.0, 863.0, 863.0, 865.0, 866.0, 866.0, 865.0, 865.0, 864.0, 864.0, 866.0, 866.0, 865.0, 865.0, 866.0, 866.0, 866.0, 864.0, 863.0, 862.0, 862.0, 863.0, 864.0, 863.0, 863.0, 862.0, 862.0, 862.0, 863.0, 864.0, 864.0, 864.0, 865.0, 864.0, 864.0, 864.0, 866.0, 867.0, 865.0, 864.0, 865.0, 867.0, 868.0, 867.0, 867.0, 867.0, 867.0, 867.0, 866.0, 866.0, 865.0, 865.0, 864.0, 864.0, 864.0],
      "WindowWidth": [1901.0, 1896.0, 1897.0, 1899.0, 1901.0, 1904.0, 1906.0, 1910.0, 1910.0, 1911.0, 1907.0, 1905.0, 1903.0, 1901.0, 1900.0, 1899.0, 1900.0, 1901.0, 1900.0, 1900.0, 1898.0, 1896.0, 1896.0, 1902.0, 1900.0, 1897.0, 1892.0, 1893.0, 1896.0, 1899.0, 1896.0, 1891.0, 1891.0, 1891.0, 1893.0, 1895.0, 1894.0, 1892.0, 1892.0, 1894.0, 1897.0, 1898.0, 1895.0, 1892.0, 1891.0, 1892.0, 1894.0, 1894.0, 1896.0, 1897.0, 1900.0, 1901.0, 1901.0, 1900.0, 1899.0, 1896.0, 1898.0, 1899.0, 1899.0, 1901.0, 1900.0, 1899.0, 1899.0, 1897.0, 1896.0, 1897.0, 1897.0, 1899.0, 1899.0, 1898.0, 1896.0, 1897.0, 1899.0, 1897.0, 1895.0, 1894.0, 1895.0, 1899.0, 1901.0, 1898.0, 1896.0, 1897.0, 1897.0, 1896.0, 1896.0, 1896.0, 1899.0, 1900.0, 1899.0, 1897.0, 1896.0, 1896.0, 1896.0, 1895.0, 1897.0, 1899.0, 1901.0, 1901.0, 1901.0, 1900.0, 1895.0, 1893.0, 1891.0, 1892.0, 1897.0, 1899.0, 1899.0, 1898.0, 1896.0, 1895.0, 1896.0, 1899.0, 1900.0, 1898.0, 1897.0, 1901.0, 1901.0, 1900.0, 1895.0, 1891.0, 1888.0, 1889.0, 1891.0, 1893.0, 1892.0, 1893.0, 1890.0, 1888.0, 1889.0, 1893.0, 1894.0, 1895.0, 1896.0, 1897.0, 1895.0, 1893.0, 1896.0, 1900.0, 1902.0, 1898.0, 1895.0, 1896.0, 1902.0, 1905.0, 1904.0, 1902.0, 1903.0, 1902.0, 1902.0, 1900.0, 1899.0, 1898.0, 1896.0, 1894.0, 1895.0, 1895.0]
    },
    "slices": {}
  }
}