{
  "AcquisitionMatrixPE": 100,
  "AcquisitionNumber": 1,
  "AcquisitionTime": "11:49:14.702500",
  "BandwidthPerPixelPhaseEncode": 18.519,
  "BaseResolution": 100,
  "BodyPartExamined": "BRAIN",
  "CoilCombinationMethod": "Sum of Squares",
  "ConsistencyInfo": "N4_VE11C_LATEST_20160120",
  "ConversionSoftware": "dcm2niix",
  "ConversionSoftwareVersion": "v1.0.20211006",
  "DerivedVendorReportedEchoSpacing": 0.000539986,
  "DeviceSerialNumber": "166078",
  "DwellTime": 2.1e-06,
  "EchoTime": 0.034,
  "EchoTrainLength": 100,
  "EffectiveEchoSpacing": 0.000539986,
  "FlipAngle": 90,
  "ImageOrientationPatientDICOM": [0.997636, 0.0245746, 0.064172, -1.5999e-08, 0.933866, -0.357623],
  "ImageOrientationText": "Tra>Cor(-21.0)>Sag(3.9)",
  "ImageType": [
    "ORIGINAL",
    "PRIMARY",
    "M",
    "ND",
    "MOSAIC"
],
  "ImagingFrequency": 123.258,
  "InPlanePhaseEncodingDirectionDICOM": "COL",
  "InstitutionAddress": "Street StreetNo,Bei Jing,District,CN,ZIP",
  "InstitutionName": "BeiJing Normal University",
  "InstitutionalDepartmentName": "Department",
  "MRAcquisitionType": "2D",
  "MagneticFieldStrength": 3,
  "Manufacturer": "Siemens",
  "ManufacturersModelName": "Prisma",
  "Modality": "MR",
  "MultibandAccelerationFactor": 3,
  "PartialFourier": 1,
  "PatientPosition": "HFS",
  "PercentPhaseFOV": 100,
  "PercentSampling": 100,
  "PhaseEncodingDirection": "j-",
  "PhaseEncodingSteps": 100,
  "PhaseResolution": 1,
  "PixelBandwidth": 2380,
  "ProcedureStepDescription": "BNU_P2018_64CH^Zhen.ZongLei",
  "ProtocolName": "bold_100x100_s3_2x2x2_static_156",
  "PulseSequenceDetails": "%SiemensSeq%\\ep2d_bold",
  "ReceiveCoilActiveElements": "HC1-7;NC1",
  "ReceiveCoilName": "HeadNeck_64",
  "ReconMatrixPE": 100,
  "RefLinesPE": 32,
  "RepetitionTime": 2,
  "SAR": 0.0728448,
  "ScanOptions": "FS",
  "ScanningSequence": "EP",
  "SequenceName": "*epfid2d1_100",
  "SequenceVariant": "SK",
  "SeriesDescription": "bold_100x100_s3_2x2x2_static_156",
  "SeriesNumber": 16,
  "ShimSetting": [-5435, -11462, -1292, 386, 65, -276, -163, -7],
  "SliceThickness": 2,
  "SliceTiming": [1.485, 0, 0.99, 0.0825, 1.0725, 0.165, 1.155, 0.2475, 1.2375, 0.33, 1.32, 0.4125, 1.4025, 0.5775, 1.5675, 0.66, 1.65, 0.7425, 1.7325, 0.825, 1.815, 0.9075, 1.8975, 0.495, 1.485, 0, 0.99, 0.0825, 1.0725, 0.165, 1.155, 0.2475, 1.2375, 0.33, 1.32, 0.4125, 1.4025, 0.5775, 1.5675, 0.66, 1.65, 0.7425, 1.7325, 0.825, 1.815, 0.9075, 1.8975, 0.495, 1.485, 0, 0.99, 0.0825, 1.0725, 0.165, 1.155, 0.2475, 1.2375, 0.33, 1.32, 0.4125, 1.4025, 0.5775, 1.5675, 0.66, 1.65, 0.7425, 1.7325, 0.825, 1.815, 0.9075, 1.8975, 0.495],
  "SoftwareVersions": "syngo MR E11",
  "SpacingBetweenSlices": 2,
  "StationName": "AWP166078",
  "TaskName": "action",
  "TotalReadoutTime": 0.0534586,
  "TxRefAmp": 228.085,
  "dcmmeta_affine": [
    [-1.9952725172042847, -3.1998087735019e-08, 0.13743296265602112, 97.22671508789062],
    [-0.04914919659495354, 1.8677321672439575, -0.7135549783706665, -63.71316146850586],
    [0.12834396958351135, 0.7152456641197205, 1.8633172512054443, -124.4546890258789],
    [0.0, 0.0, 0.0, 1.0]
],
  "dcmmeta_reorient_transform": [
    [0.0, -1.0, 0.0, 99.0],
    [1.0, 0.0, 0.0, 0.0],
    [0.0, 0.0, 1.0, 0.0],
    [0.0, 0.0, 0.0, 1.0]
],
  "dcmmeta_shape": [100, 100, 72, 156],
  "dcmmeta_slice_dim": 2,
  "dcmmeta_version": 0.6,
  "global": {
    "const": {
      "AcquisitionMatrix": [100, 0, 0, 100],
      "AngioFlag": "N",
      "BitsAllocated": 16,
      "BitsStored": 12,
      "BodyPartExamined": "BRAIN",
      "Columns": 900,
      "EchoNumbers": 1,
      "EchoTime": 34.0,
      "EchoTrainLength": 100,
      "FlipAngle": 90.0,
      "HighBit": 11,
      "ImageOrientationPatient": [0.99763622881038, 0.02457459860994, 0.06417198818933, -1.5999044e-08, 0.93386610573557, -0.3576228412144],
      "ImagePositionPatient": [-895.33568409574, -887.94489097577, 181.11531972455],
      "ImageType": [
        "ORIGINAL",
        "PRIMARY",
        "M",
        "ND",
        "MOSAIC"
],
      "ImagedNucleus": "1H",
      "ImagingFrequency": 123.257771,
      "InPlanePhaseEncodingDirection": "COL",
      "LargestImagePixelValue": 4095,
      "MRAcquisitionType": "2D",
      "MagneticFieldStrength": 3.0,
      "Manufacturer": "SIEMENS",
      "ManufacturerModelName": "Prisma",
      "Modality": "MR",
      "NumberOfAverages": 1.0,
      "NumberOfPhaseEncodingSteps": 100,
      "PercentPhaseFieldOfView": 100.0,
      "PercentSampling": 100.0,
      "PerformedProcedureStepStartTime": "103805.151000",
      "PhotometricInterpretation": "MONOCHROME2",
      "PixelBandwidth": 2380.0,
      "PixelRepresentation": 0,
      "PixelSpacing": [2.0, 2.0],
      "ProtocolName": "bold_100x100_s3_2x2x2_static_156",
      "RepetitionTime": 2000.0,
      "Rows": 900,
      "SAR": 0.0728448056064,
      "SamplesPerPixel": 1,
      "ScanOptions": "FS",
      "ScanningSequence": "EP",
      "SequenceName": "*epfid2d1_100",
      "SequenceVariant": "SK",
      "SeriesDescription": "bold_100x100_s3_2x2x2_static_156",
      "SeriesNumber": 16,
      "SeriesTime": "114917.647000",
      "SliceLocation": -86.536784783564,
      "SliceThickness": 2.0,
      "SmallestImagePixelValue": 0,
      "SoftwareVersions": "syngo MR E11",
      "SpacingBetweenSlices": 1.9999999799611,
      "SpecificCharacterSet": "ISO_IR 100",
      "StudyID": "1",
      "StudyTime": "103805.058000",
      "TransmitCoilName": "Body",
      "VariableFlipAngleFlag": "N",
      "WindowCenterWidthExplanation": "Algo1",
      "dBdt": 0.0},
    "slices": {}
  },
  "time": {
    "samples": {
      "AcquisitionNumber": [1, 2, 3, 4, 5, 6, 7, 8, 9, 10, 11, 12, 13, 14, 15, 16, 17, 18, 19, 20, 21, 22, 23, 24, 25, 26, 27, 28, 29, 30, 31, 32, 33, 34, 35, 36, 37, 38, 39, 40, 41, 42, 43, 44, 45, 46, 47, 48, 49, 50, 51, 52, 53, 54, 55, 56, 57, 58, 59, 60, 61, 62, 63, 64, 65, 66, 67, 68, 69, 70, 71, 72, 73, 74, 75, 76, 77, 78, 79, 80, 81, 82, 83, 84, 85, 86, 87, 88, 89, 90, 91, 92, 93, 94, 95, 96, 97, 98, 99, 100, 101, 102, 103, 104, 105, 106, 107, 108, 109, 110, 111, 112, 113, 114, 115, 116, 117, 118, 119, 120, 121, 122, 123, 124, 125, 126, 127, 128, 129, 130, 131, 132, 133, 134, 135, 136, 137, 138, 139, 140, 141, 142, 143, 144, 145, 146, 147, 148, 149, 150, 151, 152, 153, 154, 155, 156],
      "AcquisitionTime": ["114914.702500", "114916.702500", "114918.702500", "114920.702500", "114922.702500", "114924.702500", "114926.702500", "114928.702500", "114930.702500", "114932.702500", "114934.702500", "114936.702500", "114938.702500", "114940.702500", "114942.702500", "114944.702500", "114946.702500", "114948.702500", "114950.702500", "114952.702500", "114954.702500", "114956.702500", "114958.702500", "115000.702500", "115002.702500", "115004.702500", "115006.702500", "115008.702500", "115010.702500", "115012.702500", "115014.702500", "115016.702500", "115018.702500", "115020.702500", "115022.702500", "115024.702500", "115026.702500", "115028.702500", "115030.702500", "115032.702500", "115034.702500", "115036.702500", "115038.702500", "115040.702500", "115042.702500", "115044.702500", "115046.702500", "115048.702500", "115050.702500", "115052.702500", "115054.702500", "115056.702500", "115058.702500", "115100.702500", "115102.702500", "115104.702500", "115106.702500", "115108.702500", "115110.702500", "115112.702500", "115114.702500", "115116.702500", "115118.702500", "115120.702500", "115122.702500", "115124.702500", "115126.702500", "115128.702500", "115130.702500", "115132.702500", "115134.702500", "115136.702500", "115138.702500", "115140.702500", "115142.702500", "115144.702500", "115146.702500", "115148.702500", "115150.702500", "115152.702500", "115154.702500", "115156.702500", "115158.702500", "115200.702500", "115202.702500", "115204.702500", "115206.702500", "115208.702500", "115210.702500", "115212.702500", "115214.702500", "115216.702500", "115218.702500", "115220.702500", "115222.702500", "115224.702500", "115226.702500", "115228.702500", "115230.702500", "115232.702500", "115234.702500", "115236.702500", "115238.702500", "115240.702500", "115242.702500", "115244.702500", "115246.702500", "115248.702500", "115250.702500", "115252.702500", "115254.702500", "115256.702500", "115258.702500", "115300.702500", "115302.702500", "115304.702500", "115306.702500", "115308.702500", "115310.702500", "115312.702500", "115314.702500", "115316.702500", "115318.702500", "115320.702500", "115322.702500", "115324.702500", "115326.702500", "115328.702500", "115330.702500", "115332.702500", "115334.702500", "115336.702500", "115338.702500", "115340.702500", "115342.702500", "115344.702500", "115346.702500", "115348.702500", "115350.702500", "115352.702500", "115354.702500", "115356.702500", "115358.702500", "115400.702500", "115402.702500", "115404.702500", "115406.702500", "115408.702500", "115410.702500", "115412.702500", "115414.702500", "115416.702500", "115418.702500", "115420.702500", "115422.702500", "115424.702500"],
      "ContentTime": ["114917.651000", "114919.146000", "114921.147000", "114923.147000", "114925.146000", "114927.147000", "114929.147000", "114931.146000", "114933.146000", "114935.147000", "114937.145000", "114939.146000", "114941.146000", "114943.146000", "114945.146000", "114947.146000", "114949.146000", "114951.147000", "114953.146000", "114955.146000", "114957.146000", "114959.146000", "115001.146000", "115003.146000", "115005.146000", "115007.146000", "115009.146000", "115011.146000", "115013.146000", "115015.146000", "115017.146000", "115019.146000", "115021.146000", "115023.146000", "115025.147000", "115027.146000", "115029.145000", "115031.147000", "115033.147000", "115035.146000", "115037.147000", "115039.147000", "115041.146000", "115043.147000", "115045.147000", "115047.145000", "115049.146000", "115051.147000", "115053.147000", "115055.146000", "115057.146000", "115059.147000", "115101.146000", "115103.147000", "115105.147000", "115107.147000", "115109.147000", "115111.146000", "115113.146000", "115115.146000", "115117.146000", "115119.146000", "115121.146000", "115123.146000", "115125.147000", "115127.147000", "115129.146000", "115131.147000", "115133.147000", "115135.147000", "115137.147000", "115139.146000", "115141.147000", "115143.146000", "115145.147000", "115147.146000", "115149.146000", "115151.147000", "115153.147000", "115155.147000", "115157.146000", "115159.146000", "115201.146000", "115203.147000", "115205.147000", "115207.146000", "115209.147000", "115211.146000", "115213.146000", "115215.146000", "115217.146000", "115219.147000", "115221.147000", "115223.146000", "115225.147000", "115227.147000", "115229.146000", "115231.146000", "115233.146000", "115235.147000", "115237.147000", "115239.147000", "115241.147000", "115243.146000", "115245.146000", "115247.147000", "115249.146000", "115251.147000", "115253.147000", "115255.146000", "115257.146000", "115259.146000", "115301.147000", "115303.147000", "115305.146000", "115307.147000", "115309.147000", "115311.147000", "115313.146000", "115315.146000", "115317.146000", "115319.147000", "115321.147000", "115323.146000", "115325.147000", "115327.147000", "115329.147000", "115331.147000", "115333.147000", "115335.147000", "115337.146000", "115339.146000", "115341.146000", "115343.147000", "115345.147000", "115347.147000", "115349.146000", "115351.146000", "115353.147000", "115355.146000", "115357.147000", "115359.146000", "115401.147000", "115403.147000", "115405.147000", "115407.147000", "115409.147000", "115411.147000", "115413.146000", "115415.146000", "115417.146000", "115419.147000", "115421.147000", "115423.147000", "115425.147000", "115426.863000"],
      "InstanceCreationTime": ["114917.651000", "114919.146000", "114921.147000", "114923.147000", "114925.146000", "114927.147000", "114929.147000", "114931.146000", "114933.146000", "114935.147000", "114937.145000", "114939.146000", "114941.146000", "114943.146000", "114945.146000", "114947.146000", "114949.146000", "114951.147000", "114953.146000", "114955.146000", "114957.146000", "114959.146000", "115001.146000", "115003.146000", "115005.146000", "115007.146000", "115009.146000", "115011.146000", "115013.146000", "115015.146000", "115017.146000", "115019.146000", "115021.146000", "115023.146000", "115025.147000", "115027.146000", "115029.145000", "115031.147000", "115033.147000", "115035.146000", "115037.147000", "115039.147000", "115041.146000", "115043.147000", "115045.147000", "115047.145000", "115049.146000", "115051.147000", "115053.147000", "115055.146000", "115057.146000", "115059.147000", "115101.146000", "115103.147000", "115105.147000", "115107.147000", "115109.147000", "115111.146000", "115113.146000", "115115.146000", "115117.146000", "115119.146000", "115121.146000", "115123.146000", "115125.147000", "115127.147000", "115129.146000", "115131.147000", "115133.147000", "115135.147000", "115137.147000", "115139.146000", "115141.147000", "115143.146000", "115145.147000", "115147.146000", "115149.146000", "115151.147000", "115153.147000", "115155.147000", "115157.146000", "115159.146000", "115201.146000", "115203.147000", "115205.147000", "115207.146000", "115209.147000", "115211.146000", "115213.146000", "115215.146000", "115217.146000", "115219.147000", "115221.147000", "115223.146000", "115225.147000", "115227.147000", "115229.146000", "115231.146000", "115233.146000", "115235.147000", "115237.147000", "115239.147000", "115241.147000", "115243.146000", "115245.146000", "115247.147000", "115249.146000", "115251.147000", "115253.147000", "115255.146000", "115257.146000", "115259.146000", "115301.147000", "115303.147000", "115305.146000", "115307.147000", "115309.147000", "115311.147000", "115313.146000", "115315.146000", "115317.146000", "115319.147000", "115321.147000", "115323.146000", "115325.147000", "115327.147000", "115329.147000", "115331.147000", "115333.147000", "115335.147000", "115337.146000", "115339.146000", "115341.146000", "115343.147000", "115345.147000", "115347.147000", "115349.146000", "115351.146000", "115353.147000", "115355.146000", "115357.147000", "115359.146000", "115401.147000", "115403.147000", "115405.147000", "115407.147000", "115409.147000", "115411.147000", "115413.146000", "115415.146000", "115417.146000", "115419.147000", "115421.147000", "115423.147000", "115425.147000", "115426.863000"],
      "InstanceNumber": [1, 2, 3, 4, 5, 6, 7, 8, 9, 10, 11, 12, 13, 14, 15, 16, 17, 18, 19, 20, 21, 22, 23, 24, 25, 26, 27, 28, 29, 30, 31, 32, 33, 34, 35, 36, 37, 38, 39, 40, 41, 42, 43, 44, 45, 46, 47, 48, 49, 50, 51, 52, 53, 54, 55, 56, 57, 58, 59, 60, 61, 62, 63, 64, 65, 66, 67, 68, 69, 70, 71, 72, 73, 74, 75, 76, 77, 78, 79, 80, 81, 82, 83, 84, 85, 86, 87, 88, 89, 90, 91, 92, 93, 94, 95, 96, 97, 98, 99, 100, 101, 102, 103, 104, 105, 106, 107, 108, 109, 110, 111, 112, 113, 114, 115, 116, 117, 118, 119, 120, 121, 122, 123, 124, 125, 126, 127, 128, 129, 130, 131, 132, 133, 134, 135, 136, 137, 138, 139, 140, 141, 142, 143, 144, 145, 146, 147, 148, 149, 150, 151, 152, 153, 154, 155, 156],
      "WindowCenter": [878.0, 875.0, 875.0, 875.0, 874.0, 875.0, 875.0, 876.0, 876.0, 876.0, 876.0, 875.0, 875.0, 876.0, 877.0, 877.0, 876.0, 874.0, 874.0, 875.0, 876.0, 876.0, 876.0, 875.0, 875.0, 874.0, 875.0, 876.0, 876.0, 875.0, 874.0, 873.0, 874.0, 875.0, 876.0, 875.0, 875.0, 875.0, 875.0, 876.0, 876.0, 876.0, 876.0, 875.0, 874.0, 874.0, 873.0, 874.0, 875.0, 875.0, 875.0, 875.0, 876.0, 876.0, 875.0, 876.0, 876.0, 875.0, 873.0, 873.0, 874.0, 874.0, 874.0, 874.0, 875.0, 876.0, 875.0, 875.0, 875.0, 875.0, 875.0, 875.0, 876.0, 876.0, 876.0, 875.0, 874.0, 874.0, 875.0, 875.0, 876.0, 876.0, 876.0, 876.0, 876.0, 875.0, 876.0, 877.0, 877.0, 875.0, 873.0, 871.0, 871.0, 870.0, 870.0, 871.0, 873.0, 873.0, 874.0, 874.0, 875.0, 875.0, 876.0, 875.0, 874.0, 874.0, 875.0, 875.0, 875.0, 874.0, 874.0, 874.0, 874.0, 874.0, 874.0, 875.0, 876.0, 875.0, 875.0, 876.0, 877.0, 877.0, 877.0, 877.0, 877.0, 876.0, 876.0, 876.0, 876.0, 876.0, 875.0, 872.0, 872.0, 872.0, 872.0, 873.0, 873.0, 873.0, 873.0, 873.0, 874.0, 874.0, 874.0, 875.0, 876.0, 876.0, 876.0, 874.0, 873.0, 875.0, 875.0, 874.0, 872.0, 873.0, 875.0, 876.0],
      "WindowWidth": [1934.0, 1927.0, 1926.0, 1925.0, 1925.0, 1926.0, 1927.0, 1928.0, 1929.0, 1930.0, 1929.0, 1926.0, 1926.0, 1929.0, 1932.0, 1931.0, 1928.0, 1924.0, 1925.0, 1925.0, 1928.0, 1929.0, 1929.0, 1927.0, 1925.0, 1924.0, 1926.0, 1929.0, 1929.0, 1926.0, 1922.0, 1921.0, 1924.0, 1927.0, 1928.0, 1927.0, 1927.0, 1927.0, 1928.0, 1929.0, 1929.0, 1930.0, 1930.0, 1927.0, 1925.0, 1923.0, 1922.0, 1923.0, 1926.0, 1926.0, 1926.0, 1926.0, 1930.0, 1930.0, 1928.0, 1928.0, 1929.0, 1925.0, 1921.0, 1921.0, 1923.0, 1924.0, 1925.0, 1924.0, 1927.0, 1928.0, 1927.0, 1927.0, 1927.0, 1927.0, 1926.0, 1927.0, 1929.0, 1928.0, 1928.0, 1927.0, 1925.0, 1925.0, 1926.0, 1927.0, 1928.0, 1930.0, 1931.0, 1929.0, 1929.0, 1928.0, 1930.0, 1931.0, 1931.0, 1927.0, 1921.0, 1917.0, 1915.0, 1913.0, 1913.0, 1916.0, 1920.0, 1922.0, 1923.0, 1924.0, 1927.0, 1928.0, 1928.0, 1928.0, 1925.0, 1925.0, 1925.0, 1926.0, 1926.0, 1925.0, 1925.0, 1924.0, 1925.0, 1924.0, 1925.0, 1926.0, 1928.0, 1927.0, 1927.0, 1929.0, 1931.0, 1932.0, 1932.0, 1931.0, 1931.0, 1930.0, 1929.0, 1930.0, 1930.0, 1930.0, 1926.0, 1919.0, 1918.0, 1919.0, 1920.0, 1921.0, 1922.0, 1922.0, 1920.0, 1921.0, 1924.0, 1924.0, 1924.0, 1928.0, 1931.0, 1930.0, 1929.0, 1923.0, 1923.0, 1926.0, 1925.0, 1922.0, 1920.0, 1922.0, 1929.0, 1929.0]
    },
    "slices": {}
  }
}