{
  "AcquisitionMatrixPE": 100,
  "AcquisitionNumber": 1,
  "AcquisitionTime": "11:02:30.487500",
  "BandwidthPerPixelPhaseEncode": 18.519,
  "BaseResolution": 100,
  "BodyPartExamined": "BRAIN",
  "CoilCombinationMethod": "Sum of Squares",
  "ConsistencyInfo": "N4_VE11C_LATEST_20160120",
  "ConversionSoftware": "dcm2niix",
  "ConversionSoftwareVersion": "v1.0.20211006",
  "DerivedVendorReportedEchoSpacing": 0.000539986,
  "DeviceSerialNumber": "166078",
  "DwellTime": 2.1e-06,
  "EchoTime": 0.034,
  "EchoTrainLength": 100,
  "EffectiveEchoSpacing": 0.000539986,
  "FlipAngle": 90,
  "ImageOrientationPatientDICOM": [0.997108, 0.0277803, 0.0707351, -2.83264e-08, 0.930789, -0.365556],
  "ImageOrientationText": "Tra>Cor(-21.4)>Sag(4.4)",
  "ImageType": [
    "ORIGINAL",
    "PRIMARY",
    "M",
    "ND",
    "MOSAIC"
],
  "ImagingFrequency": 123.258,
  "InPlanePhaseEncodingDirectionDICOM": "COL",
  "InstitutionAddress": "Street StreetNo,Bei Jing,District,CN,ZIP",
  "InstitutionName": "BeiJing Normal University",
  "InstitutionalDepartmentName": "Department",
  "MRAcquisitionType": "2D",
  "MagneticFieldStrength": 3,
  "Manufacturer": "Siemens",
  "ManufacturersModelName": "Prisma",
  "Modality": "MR",
  "MultibandAccelerationFactor": 3,
  "PartialFourier": 1,
  "PatientPosition": "HFS",
  "PercentPhaseFOV": 100,
  "PercentSampling": 100,
  "PhaseEncodingDirection": "j-",
  "PhaseEncodingSteps": 100,
  "PhaseResolution": 1,
  "PixelBandwidth": 2380,
  "ProcedureStepDescription": "BNU_P2018_64CH^Zhen.ZongLei",
  "ProtocolName": "bold_100x100_s3_2x2x2_static_156",
  "PulseSequenceDetails": "%SiemensSeq%\\ep2d_bold",
  "ReceiveCoilActiveElements": "HC1-7;NC1",
  "ReceiveCoilName": "HeadNeck_64",
  "ReconMatrixPE": 100,
  "RefLinesPE": 32,
  "RepetitionTime": 2,
  "SAR": 0.0684489,
  "ScanOptions": "FS",
  "ScanningSequence": "EP",
  "SequenceName": "*epfid2d1_100",
  "SequenceVariant": "SK",
  "SeriesDescription": "bold_100x100_s3_2x2x2_static_156",
  "SeriesNumber": 6,
  "ShimSetting": [-5432, -11478, -1241, 399, 62, -286, -155, 23],
  "SliceThickness": 2,
  "SliceTiming": [1.485, 0, 0.99, 0.0825, 1.0725, 0.165, 1.155, 0.2475, 1.2375, 0.33, 1.32, 0.4125, 1.4025, 0.5775, 1.5675, 0.66, 1.65, 0.7425, 1.7325, 0.825, 1.815, 0.9075, 1.8975, 0.495, 1.485, 0, 0.99, 0.0825, 1.0725, 0.165, 1.155, 0.2475, 1.2375, 0.33, 1.32, 0.4125, 1.4025, 0.5775, 1.5675, 0.66, 1.65, 0.7425, 1.7325, 0.825, 1.815, 0.9075, 1.8975, 0.495, 1.485, 0, 0.99, 0.0825, 1.0725, 0.165, 1.155, 0.2475, 1.2375, 0.33, 1.32, 0.4125, 1.4025, 0.5775, 1.5675, 0.66, 1.65, 0.7425, 1.7325, 0.825, 1.815, 0.9075, 1.8975, 0.495],
  "SoftwareVersions": "syngo MR E11",
  "SpacingBetweenSlices": 2,
  "StationName": "AWP166078",
  "TaskName": "action",
  "TotalReadoutTime": 0.0534586,
  "TxRefAmp": 218.231,
  "dcmmeta_affine": [
    [-1.9942164421081543, -5.6652883273500265e-08, 0.15198948979377747, 94.4410171508789],
    [-0.05556069687008858, 1.8615788221359253, -0.7289974093437195, -61.86661911010742],
    [0.14147019386291504, 0.7311116456985474, 1.8561955690383911, -106.9473648071289],
    [0.0, 0.0, 0.0, 1.0]
],
  "dcmmeta_reorient_transform": [
    [0.0, -1.0, 0.0, 99.0],
    [1.0, 0.0, 0.0, 0.0],
    [0.0, 0.0, 1.0, 0.0],
    [0.0, 0.0, 0.0, 1.0]
],
  "dcmmeta_shape": [100, 100, 72, 156],
  "dcmmeta_slice_dim": 2,
  "dcmmeta_version": 0.6,
  "global": {
    "const": {
      "AcquisitionMatrix": [100, 0, 0, 100],
      "AngioFlag": "N",
      "BitsAllocated": 16,
      "BitsStored": 12,
      "BodyPartExamined": "BRAIN",
      "Columns": 900,
      "EchoNumbers": 1,
      "EchoTime": 34.0,
      "EchoTrainLength": 100,
      "FlipAngle": 90.0,
      "HighBit": 11,
      "ImageOrientationPatient": [0.99710821797578, 0.02778034800504, 0.07073509673338, -2.8326441e-08, 0.93078942163997, -0.3655558131984],
      "ImagePositionPatient": [-892.12756191518, -889.28550081039, 201.28925974769],
      "ImageType": [
        "ORIGINAL",
        "PRIMARY",
        "M",
        "ND",
        "MOSAIC"
],
      "ImagedNucleus": "1H",
      "ImagingFrequency": 123.257745,
      "InPlanePhaseEncodingDirection": "COL",
      "MRAcquisitionType": "2D",
      "MagneticFieldStrength": 3.0,
      "Manufacturer": "SIEMENS",
      "ManufacturerModelName": "Prisma",
      "Modality": "MR",
      "NumberOfAverages": 1.0,
      "NumberOfPhaseEncodingSteps": 100,
      "PercentPhaseFieldOfView": 100.0,
      "PercentSampling": 100.0,
      "PerformedProcedureStepStartTime": "103805.151000",
      "PhotometricInterpretation": "MONOCHROME2",
      "PixelBandwidth": 2380.0,
      "PixelRepresentation": 0,
      "PixelSpacing": [2.0, 2.0],
      "ProtocolName": "bold_100x100_s3_2x2x2_static_156",
      "RepetitionTime": 2000.0,
      "Rows": 900,
      "SAR": 0.06844891816865,
      "SamplesPerPixel": 1,
      "ScanOptions": "FS",
      "ScanningSequence": "EP",
      "SequenceName": "*epfid2d1_100",
      "SequenceVariant": "SK",
      "SeriesDescription": "bold_100x100_s3_2x2x2_static_156",
      "SeriesNumber": 6,
      "SeriesTime": "110232.984000",
      "SliceLocation": -69.530287690078,
      "SliceThickness": 2.0,
      "SmallestImagePixelValue": 0,
      "SoftwareVersions": "syngo MR E11",
      "SpacingBetweenSlices": 2.0000000158393,
      "SpecificCharacterSet": "ISO_IR 100",
      "StudyID": "1",
      "StudyTime": "103805.058000",
      "TransmitCoilName": "Body",
      "VariableFlipAngleFlag": "N",
      "WindowCenterWidthExplanation": "Algo1",
      "dBdt": 0.0},
    "slices": {}
  },
  "time": {
    "samples": {
      "AcquisitionNumber": [1, 2, 3, 4, 5, 6, 7, 8, 9, 10, 11, 12, 13, 14, 15, 16, 17, 18, 19, 20, 21, 22, 23, 24, 25, 26, 27, 28, 29, 30, 31, 32, 33, 34, 35, 36, 37, 38, 39, 40, 41, 42, 43, 44, 45, 46, 47, 48, 49, 50, 51, 52, 53, 54, 55, 56, 57, 58, 59, 60, 61, 62, 63, 64, 65, 66, 67, 68, 69, 70, 71, 72, 73, 74, 75, 76, 77, 78, 79, 80, 81, 82, 83, 84, 85, 86, 87, 88, 89, 90, 91, 92, 93, 94, 95, 96, 97, 98, 99, 100, 101, 102, 103, 104, 105, 106, 107, 108, 109, 110, 111, 112, 113, 114, 115, 116, 117, 118, 119, 120, 121, 122, 123, 124, 125, 126, 127, 128, 129, 130, 131, 132, 133, 134, 135, 136, 137, 138, 139, 140, 141, 142, 143, 144, 145, 146, 147, 148, 149, 150, 151, 152, 153, 154, 155, 156],
      "AcquisitionTime": ["110230.487500", "110232.487500", "110234.487500", "110236.487500", "110238.487500", "110240.487500", "110242.487500", "110244.487500", "110246.487500", "110248.487500", "110250.487500", "110252.487500", "110254.487500", "110256.487500", "110258.487500", "110300.487500", "110302.487500", "110304.487500", "110306.487500", "110308.487500", "110310.487500", "110312.487500", "110314.487500", "110316.487500", "110318.487500", "110320.487500", "110322.487500", "110324.487500", "110326.487500", "110328.487500", "110330.487500", "110332.487500", "110334.487500", "110336.487500", "110338.487500", "110340.487500", "110342.487500", "110344.487500", "110346.487500", "110348.487500", "110350.487500", "110352.487500", "110354.487500", "110356.487500", "110358.487500", "110400.487500", "110402.487500", "110404.487500", "110406.487500", "110408.487500", "110410.487500", "110412.487500", "110414.487500", "110416.487500", "110418.487500", "110420.487500", "110422.487500", "110424.487500", "110426.487500", "110428.487500", "110430.487500", "110432.487500", "110434.487500", "110436.487500", "110438.487500", "110440.487500", "110442.487500", "110444.487500", "110446.487500", "110448.487500", "110450.487500", "110452.487500", "110454.487500", "110456.487500", "110458.487500", "110500.487500", "110502.487500", "110504.487500", "110506.487500", "110508.487500", "110510.487500", "110512.487500", "110514.487500", "110516.487500", "110518.487500", "110520.487500", "110522.487500", "110524.487500", "110526.487500", "110528.487500", "110530.487500", "110532.487500", "110534.487500", "110536.487500", "110538.487500", "110540.487500", "110542.487500", "110544.487500", "110546.487500", "110548.487500", "110550.487500", "110552.487500", "110554.487500", "110556.487500", "110558.487500", "110600.487500", "110602.487500", "110604.487500", "110606.487500", "110608.487500", "110610.487500", "110612.487500", "110614.487500", "110616.487500", "110618.487500", "110620.487500", "110622.487500", "110624.487500", "110626.487500", "110628.487500", "110630.487500", "110632.487500", "110634.487500", "110636.487500", "110638.487500", "110640.487500", "110642.487500", "110644.487500", "110646.487500", "110648.487500", "110650.487500", "110652.487500", "110654.487500", "110656.487500", "110658.487500", "110700.487500", "110702.487500", "110704.487500", "110706.487500", "110708.487500", "110710.487500", "110712.487500", "110714.487500", "110716.487500", "110718.487500", "110720.487500", "110722.487500", "110724.487500", "110726.487500", "110728.487500", "110730.487500", "110732.487500", "110734.487500", "110736.487500", "110738.487500", "110740.487500"],
      "ContentTime": ["110232.988000", "110234.483000", "110236.483000", "110238.484000", "110240.483000", "110242.484000", "110244.485000", "110246.483000", "110248.484000", "110250.984000", "110252.484000", "110254.484000", "110256.484000", "110258.484000", "110300.484000", "110302.484000", "110304.983000", "110306.483000", "110308.984000", "110310.483000", "110312.483000", "110314.483000", "110316.483000", "110318.485000", "110320.984000", "110322.483000", "110324.483000", "110326.984000", "110328.484000", "110330.484000", "110332.483000", "110334.483000", "110336.484000", "110338.483000", "110340.483000", "110342.483000", "110344.483000", "110346.483000", "110348.483000", "110350.483000", "110352.485000", "110354.484000", "110356.483000", "110358.483000", "110400.484000", "110402.484000", "110404.483000", "110406.484000", "110408.484000", "110410.485000", "110412.483000", "110414.483000", "110416.483000", "110418.484000", "110420.484000", "110422.483000", "110424.483000", "110426.483000", "110428.484000", "110430.484000", "110432.483000", "110434.483000", "110436.984000", "110438.484000", "110440.484000", "110442.484000", "110444.483000", "110446.484000", "110448.483000", "110450.483000", "110452.483000", "110454.484000", "110456.483000", "110458.983000", "110500.984000", "110502.484000", "110504.984000", "110506.483000", "110508.483000", "110510.484000", "110512.484000", "110514.484000", "110516.484000", "110518.484000", "110520.484000", "110522.983000", "110524.483000", "110526.483000", "110528.983000", "110530.484000", "110532.483000", "110534.484000", "110536.484000", "110538.485000", "110540.483000", "110542.984000", "110544.483000", "110546.484000", "110548.483000", "110550.483000", "110552.484000", "110554.484000", "110556.484000", "110558.484000", "110600.483000", "110602.483000", "110604.984000", "110606.483000", "110608.484000", "110610.483000", "110612.485000", "110614.484000", "110616.483000", "110618.483000", "110620.483000", "110622.484000", "110624.484000", "110626.984000", "110628.983000", "110630.485000", "110632.483000", "110634.984000", "110636.983000", "110638.484000", "110640.484000", "110642.483000", "110644.483000", "110646.483000", "110648.484000", "110650.483000", "110652.484000", "110654.484000", "110656.984000", "110658.483000", "110700.484000", "110702.483000", "110704.484000", "110706.484000", "110708.484000", "110710.484000", "110712.483000", "110714.984000", "110716.484000", "110718.483000", "110720.483000", "110722.985000", "110724.485000", "110726.484000", "110728.483000", "110730.484000", "110732.984000", "110734.483000", "110736.484000", "110738.984000", "110740.496000", "110742.403000"],
      "InstanceCreationTime": ["110232.988000", "110234.483000", "110236.483000", "110238.484000", "110240.483000", "110242.484000", "110244.485000", "110246.483000", "110248.484000", "110250.984000", "110252.484000", "110254.484000", "110256.484000", "110258.484000", "110300.484000", "110302.484000", "110304.983000", "110306.483000", "110308.984000", "110310.483000", "110312.483000", "110314.483000", "110316.483000", "110318.485000", "110320.984000", "110322.483000", "110324.483000", "110326.984000", "110328.484000", "110330.484000", "110332.483000", "110334.483000", "110336.484000", "110338.483000", "110340.483000", "110342.483000", "110344.483000", "110346.483000", "110348.483000", "110350.483000", "110352.485000", "110354.484000", "110356.483000", "110358.483000", "110400.484000", "110402.484000", "110404.483000", "110406.484000", "110408.484000", "110410.485000", "110412.483000", "110414.483000", "110416.483000", "110418.484000", "110420.484000", "110422.483000", "110424.483000", "110426.483000", "110428.484000", "110430.484000", "110432.483000", "110434.483000", "110436.984000", "110438.484000", "110440.484000", "110442.484000", "110444.483000", "110446.484000", "110448.483000", "110450.483000", "110452.483000", "110454.484000", "110456.483000", "110458.983000", "110500.984000", "110502.484000", "110504.984000", "110506.483000", "110508.483000", "110510.484000", "110512.484000", "110514.484000", "110516.484000", "110518.484000", "110520.484000", "110522.983000", "110524.483000", "110526.483000", "110528.983000", "110530.484000", "110532.483000", "110534.484000", "110536.484000", "110538.485000", "110540.483000", "110542.984000", "110544.483000", "110546.484000", "110548.483000", "110550.483000", "110552.484000", "110554.484000", "110556.484000", "110558.484000", "110600.483000", "110602.483000", "110604.984000", "110606.483000", "110608.484000", "110610.483000", "110612.485000", "110614.484000", "110616.483000", "110618.483000", "110620.483000", "110622.484000", "110624.484000", "110626.984000", "110628.983000", "110630.485000", "110632.483000", "110634.984000", "110636.983000", "110638.484000", "110640.484000", "110642.483000", "110644.483000", "110646.483000", "110648.484000", "110650.483000", "110652.484000", "110654.484000", "110656.984000", "110658.483000", "110700.484000", "110702.483000", "110704.484000", "110706.484000", "110708.484000", "110710.484000", "110712.483000", "110714.984000", "110716.484000", "110718.483000", "110720.483000", "110722.985000", "110724.485000", "110726.484000", "110728.483000", "110730.484000", "110732.984000", "110734.483000", "110736.484000", "110738.984000", "110740.496000", "110742.403000"],
      "InstanceNumber": [1, 2, 3, 4, 5, 6, 7, 8, 9, 10, 11, 12, 13, 14, 15, 16, 17, 18, 19, 20, 21, 22, 23, 24, 25, 26, 27, 28, 29, 30, 31, 32, 33, 34, 35, 36, 37, 38, 39, 40, 41, 42, 43, 44, 45, 46, 47, 48, 49, 50, 51, 52, 53, 54, 55, 56, 57, 58, 59, 60, 61, 62, 63, 64, 65, 66, 67, 68, 69, 70, 71, 72, 73, 74, 75, 76, 77, 78, 79, 80, 81, 82, 83, 84, 85, 86, 87, 88, 89, 90, 91, 92, 93, 94, 95, 96, 97, 98, 99, 100, 101, 102, 103, 104, 105, 106, 107, 108, 109, 110, 111, 112, 113, 114, 115, 116, 117, 118, 119, 120, 121, 122, 123, 124, 125, 126, 127, 128, 129, 130, 131, 132, 133, 134, 135, 136, 137, 138, 139, 140, 141, 142, 143, 144, 145, 146, 147, 148, 149, 150, 151, 152, 153, 154, 155, 156],
      "LargestImagePixelValue": [4095, 4095, 4095, 4095, 4095, 4095, 4095, 4095, 4095, 4095, 4095, 4095, 4095, 4095, 4095, 4095, 4095, 4095, 4095, 4095, 4095, 4095, 4095, 4095, 4095, 4095, 4095, 4095, 4095, 4095, 4095, 4095, 4095, 4095, 4095, 4095, 4095, 4095, 4095, 4095, 4095, 4095, 4095, 4095, 4095, 4095, 4095, 4095, 4095, 4095, 4095, 4095, 4095, 4095, 4083, 4095, 4095, 4095, 4095, 4095, 4095, 4095, 4095, 4095, 4095, 4095, 4095, 4095, 4095, 4095, 4095, 4095, 4095, 4095, 4095, 4095, 4095, 4095, 4095, 4095, 4095, 4095, 4095, 4095, 4095, 4095, 4095, 4095, 4095, 4095, 4095, 4095, 4095, 4095, 4095, 4095, 4095, 4095, 4095, 4095, 4095, 4095, 4095, 4095, 4095, 4095, 4095, 4095, 4095, 4095, 4095, 4095, 4095, 4095, 4095, 4095, 4095, 4095, 4095, 4095, 4095, 4095, 4095, 4095, 4095, 4095, 4095, 4095, 4095, 4095, 4095, 4095, 4095, 4095, 4095, 4095, 4095, 4095, 4095, 4095, 4095, 4095, 4095, 4095, 4095, 4095, 4095, 4095, 4095, 4095, 4095, 4095, 4095, 4095, 4095, 4095],
      "WindowCenter": [864.0, 862.0, 862.0, 861.0, 862.0, 864.0, 864.0, 864.0, 864.0, 864.0, 864.0, 865.0, 866.0, 865.0, 863.0, 863.0, 862.0, 862.0, 863.0, 863.0, 862.0, 861.0, 862.0, 861.0, 861.0, 861.0, 861.0, 862.0, 862.0, 861.0, 860.0, 860.0, 862.0, 863.0, 863.0, 863.0, 863.0, 863.0, 863.0, 864.0, 863.0, 862.0, 861.0, 863.0, 863.0, 863.0, 862.0, 860.0, 859.0, 859.0, 860.0, 859.0, 859.0, 859.0, 860.0, 861.0, 860.0, 859.0, 859.0, 857.0, 857.0, 858.0, 859.0, 860.0, 861.0, 862.0, 862.0, 863.0, 865.0, 867.0, 867.0, 866.0, 866.0, 866.0, 866.0, 866.0, 866.0, 865.0, 865.0, 865.0, 865.0, 866.0, 866.0, 865.0, 863.0, 862.0, 863.0, 863.0, 863.0, 862.0, 860.0, 858.0, 858.0, 858.0, 858.0, 859.0, 859.0, 860.0, 861.0, 864.0, 865.0, 864.0, 863.0, 862.0, 864.0, 865.0, 864.0, 863.0, 862.0, 861.0, 861.0, 863.0, 864.0, 863.0, 863.0, 863.0, 863.0, 863.0, 862.0, 863.0, 864.0, 864.0, 863.0, 863.0, 863.0, 864.0, 864.0, 864.0, 863.0, 863.0, 864.0, 864.0, 864.0, 863.0, 864.0, 865.0, 865.0, 865.0, 863.0, 862.0, 860.0, 859.0, 857.0, 856.0, 857.0, 858.0, 859.0, 861.0, 862.0, 863.0, 863.0, 862.0, 864.0, 865.0, 864.0, 863.0],
      "WindowWidth": [1899.0, 1892.0, 1891.0, 1891.0, 1894.0, 1897.0, 1898.0, 1898.0, 1898.0, 1897.0, 1899.0, 1902.0, 1902.0, 1900.0, 1895.0, 1894.0, 1893.0, 1893.0, 1893.0, 1894.0, 1892.0, 1890.0, 1890.0, 1889.0, 1887.0, 1889.0, 1890.0, 1892.0, 1891.0, 1889.0, 1887.0, 1887.0, 1891.0, 1893.0, 1895.0, 1895.0, 1895.0, 1895.0, 1895.0, 1896.0, 1893.0, 1891.0, 1888.0, 1894.0, 1895.0, 1894.0, 1891.0, 1885.0, 1883.0, 1885.0, 1886.0, 1884.0, 1884.0, 1884.0, 1886.0, 1888.0, 1886.0, 1884.0, 1882.0, 1878.0, 1877.0, 1879.0, 1883.0, 1885.0, 1889.0, 1891.0, 1891.0, 1894.0, 1900.0, 1905.0, 1904.0, 1903.0, 1903.0, 1903.0, 1903.0, 1902.0, 1902.0, 1900.0, 1899.0, 1899.0, 1900.0, 1904.0, 1903.0, 1901.0, 1895.0, 1891.0, 1893.0, 1894.0, 1895.0, 1893.0, 1886.0, 1880.0, 1880.0, 1881.0, 1881.0, 1882.0, 1882.0, 1885.0, 1890.0, 1896.0, 1900.0, 1898.0, 1894.0, 1892.0, 1897.0, 1900.0, 1897.0, 1894.0, 1891.0, 1888.0, 1890.0, 1894.0, 1896.0, 1895.0, 1893.0, 1893.0, 1892.0, 1893.0, 1892.0, 1894.0, 1896.0, 1896.0, 1895.0, 1895.0, 1895.0, 1896.0, 1897.0, 1896.0, 1894.0, 1894.0, 1896.0, 1896.0, 1895.0, 1894.0, 1897.0, 1898.0, 1900.0, 1898.0, 1893.0, 1891.0, 1886.0, 1881.0, 1877.0, 1876.0, 1878.0, 1880.0, 1883.0, 1887.0, 1893.0, 1894.0, 1893.0, 1892.0, 1897.0, 1898.0, 1896.0, 1893.0]
    },
    "slices": {}
  }
}