{
  "AcquisitionMatrixPE": 100,
  "AcquisitionNumber": 1,
  "AcquisitionTime": "11:43:12.482500",
  "BandwidthPerPixelPhaseEncode": 18.519,
  "BaseResolution": 100,
  "BodyPartExamined": "BRAIN",
  "CoilCombinationMethod": "Sum of Squares",
  "ConsistencyInfo": "N4_VE11C_LATEST_20160120",
  "ConversionSoftware": "dcm2niix",
  "ConversionSoftwareVersion": "v1.0.20211006",
  "DerivedVendorReportedEchoSpacing": 0.000539986,
  "DeviceSerialNumber": "166078",
  "DwellTime": 2.1e-06,
  "EchoTime": 0.034,
  "EchoTrainLength": 100,
  "EffectiveEchoSpacing": 0.000539986,
  "FlipAngle": 90,
  "ImageOrientationPatientDICOM": [0.997636, 0.0245746, 0.064172, -1.5999e-08, 0.933866, -0.357623],
  "ImageOrientationText": "Tra>Cor(-21.0)>Sag(3.9)",
  "ImageType": [
    "ORIGINAL",
    "PRIMARY",
    "M",
    "ND",
    "MOSAIC"
],
  "ImagingFrequency": 123.258,
  "InPlanePhaseEncodingDirectionDICOM": "COL",
  "InstitutionAddress": "Street StreetNo,Bei Jing,District,CN,ZIP",
  "InstitutionName": "BeiJing Normal University",
  "InstitutionalDepartmentName": "Department",
  "MRAcquisitionType": "2D",
  "MagneticFieldStrength": 3,
  "Manufacturer": "Siemens",
  "ManufacturersModelName": "Prisma",
  "Modality": "MR",
  "MultibandAccelerationFactor": 3,
  "PartialFourier": 1,
  "PatientPosition": "HFS",
  "PercentPhaseFOV": 100,
  "PercentSampling": 100,
  "PhaseEncodingDirection": "j-",
  "PhaseEncodingSteps": 100,
  "PhaseResolution": 1,
  "PixelBandwidth": 2380,
  "ProcedureStepDescription": "BNU_P2018_64CH^Zhen.ZongLei",
  "ProtocolName": "bold_100x100_s3_2x2x2_static_156",
  "PulseSequenceDetails": "%SiemensSeq%\\ep2d_bold",
  "ReceiveCoilActiveElements": "HC1-7;NC1",
  "ReceiveCoilName": "HeadNeck_64",
  "ReconMatrixPE": 100,
  "RefLinesPE": 32,
  "RepetitionTime": 2,
  "SAR": 0.0728448,
  "ScanOptions": "FS",
  "ScanningSequence": "EP",
  "SequenceName": "*epfid2d1_100",
  "SequenceVariant": "SK",
  "SeriesDescription": "bold_100x100_s3_2x2x2_static_156",
  "SeriesNumber": 15,
  "ShimSetting": [-5435, -11462, -1292, 386, 65, -276, -163, -7],
  "SliceThickness": 2,
  "SliceTiming": [1.485, 0, 0.99, 0.0825, 1.0725, 0.165, 1.155, 0.2475, 1.2375, 0.33, 1.32, 0.4125, 1.4025, 0.5775, 1.5675, 0.66, 1.65, 0.7425, 1.7325, 0.825, 1.815, 0.9075, 1.8975, 0.495, 1.485, 0, 0.99, 0.0825, 1.0725, 0.165, 1.155, 0.2475, 1.2375, 0.33, 1.32, 0.4125, 1.4025, 0.5775, 1.5675, 0.66, 1.65, 0.7425, 1.7325, 0.825, 1.815, 0.9075, 1.8975, 0.495, 1.485, 0, 0.99, 0.0825, 1.0725, 0.165, 1.155, 0.2475, 1.2375, 0.33, 1.32, 0.4125, 1.4025, 0.5775, 1.5675, 0.66, 1.65, 0.7425, 1.7325, 0.825, 1.815, 0.9075, 1.8975, 0.495],
  "SoftwareVersions": "syngo MR E11",
  "SpacingBetweenSlices": 2,
  "StationName": "AWP166078",
  "TaskName": "action",
  "TotalReadoutTime": 0.0534586,
  "TxRefAmp": 228.085,
  "dcmmeta_affine": [
    [-1.9952725172042847, -3.1998087735019e-08, 0.13743296265602112, 97.22671508789062],
    [-0.04914919659495354, 1.8677321672439575, -0.7135549783706665, -63.71316146850586],
    [0.12834396958351135, 0.7152456641197205, 1.8633172512054443, -124.4546890258789],
    [0.0, 0.0, 0.0, 1.0]
],
  "dcmmeta_reorient_transform": [
    [0.0, -1.0, 0.0, 99.0],
    [1.0, 0.0, 0.0, 0.0],
    [0.0, 0.0, 1.0, 0.0],
    [0.0, 0.0, 0.0, 1.0]
],
  "dcmmeta_shape": [100, 100, 72, 156],
  "dcmmeta_slice_dim": 2,
  "dcmmeta_version": 0.6,
  "global": {
    "const": {
      "AcquisitionMatrix": [100, 0, 0, 100],
      "AngioFlag": "N",
      "BitsAllocated": 16,
      "BitsStored": 12,
      "BodyPartExamined": "BRAIN",
      "Columns": 900,
      "EchoNumbers": 1,
      "EchoTime": 34.0,
      "EchoTrainLength": 100,
      "FlipAngle": 90.0,
      "HighBit": 11,
      "ImageOrientationPatient": [0.99763622881038, 0.02457459860994, 0.06417198818933, -1.5999044e-08, 0.93386610573557, -0.3576228412144],
      "ImagePositionPatient": [-895.33568409574, -887.94489097577, 181.11531972455],
      "ImageType": [
        "ORIGINAL",
        "PRIMARY",
        "M",
        "ND",
        "MOSAIC"
],
      "ImagedNucleus": "1H",
      "ImagingFrequency": 123.257768,
      "InPlanePhaseEncodingDirection": "COL",
      "LargestImagePixelValue": 4095,
      "MRAcquisitionType": "2D",
      "MagneticFieldStrength": 3.0,
      "Manufacturer": "SIEMENS",
      "ManufacturerModelName": "Prisma",
      "Modality": "MR",
      "NumberOfAverages": 1.0,
      "NumberOfPhaseEncodingSteps": 100,
      "PercentPhaseFieldOfView": 100.0,
      "PercentSampling": 100.0,
      "PerformedProcedureStepStartTime": "103805.151000",
      "PhotometricInterpretation": "MONOCHROME2",
      "PixelBandwidth": 2380.0,
      "PixelRepresentation": 0,
      "PixelSpacing": [2.0, 2.0],
      "ProtocolName": "bold_100x100_s3_2x2x2_static_156",
      "RepetitionTime": 2000.0,
      "Rows": 900,
      "SAR": 0.0728448056064,
      "SamplesPerPixel": 1,
      "ScanOptions": "FS",
      "ScanningSequence": "EP",
      "SequenceName": "*epfid2d1_100",
      "SequenceVariant": "SK",
      "SeriesDescription": "bold_100x100_s3_2x2x2_static_156",
      "SeriesNumber": 15,
      "SeriesTime": "114314.351000",
      "SliceLocation": -86.536784783564,
      "SliceThickness": 2.0,
      "SmallestImagePixelValue": 0,
      "SoftwareVersions": "syngo MR E11",
      "SpacingBetweenSlices": 1.9999999799611,
      "SpecificCharacterSet": "ISO_IR 100",
      "StudyID": "1",
      "StudyTime": "103805.058000",
      "TransmitCoilName": "Body",
      "VariableFlipAngleFlag": "N",
      "WindowCenterWidthExplanation": "Algo1",
      "dBdt": 0.0},
    "slices": {}
  },
  "time": {
    "samples": {
      "AcquisitionNumber": [1, 2, 3, 4, 5, 6, 7, 8, 9, 10, 11, 12, 13, 14, 15, 16, 17, 18, 19, 20, 21, 22, 23, 24, 25, 26, 27, 28, 29, 30, 31, 32, 33, 34, 35, 36, 37, 38, 39, 40, 41, 42, 43, 44, 45, 46, 47, 48, 49, 50, 51, 52, 53, 54, 55, 56, 57, 58, 59, 60, 61, 62, 63, 64, 65, 66, 67, 68, 69, 70, 71, 72, 73, 74, 75, 76, 77, 78, 79, 80, 81, 82, 83, 84, 85, 86, 87, 88, 89, 90, 91, 92, 93, 94, 95, 96, 97, 98, 99, 100, 101, 102, 103, 104, 105, 106, 107, 108, 109, 110, 111, 112, 113, 114, 115, 116, 117, 118, 119, 120, 121, 122, 123, 124, 125, 126, 127, 128, 129, 130, 131, 132, 133, 134, 135, 136, 137, 138, 139, 140, 141, 142, 143, 144, 145, 146, 147, 148, 149, 150, 151, 152, 153, 154, 155, 156],
      "AcquisitionTime": ["114312.482500", "114314.482500", "114316.482500", "114318.482500", "114320.482500", "114322.482500", "114324.482500", "114326.482500", "114328.482500", "114330.482500", "114332.482500", "114334.482500", "114336.482500", "114338.482500", "114340.482500", "114342.482500", "114344.482500", "114346.482500", "114348.482500", "114350.482500", "114352.482500", "114354.482500", "114356.482500", "114358.482500", "114400.482500", "114402.482500", "114404.482500", "114406.482500", "114408.482500", "114410.482500", "114412.482500", "114414.482500", "114416.482500", "114418.482500", "114420.482500", "114422.482500", "114424.482500", "114426.482500", "114428.482500", "114430.482500", "114432.482500", "114434.482500", "114436.482500", "114438.482500", "114440.482500", "114442.482500", "114444.482500", "114446.482500", "114448.482500", "114450.482500", "114452.482500", "114454.482500", "114456.482500", "114458.482500", "114500.482500", "114502.482500", "114504.482500", "114506.482500", "114508.482500", "114510.482500", "114512.482500", "114514.482500", "114516.482500", "114518.482500", "114520.482500", "114522.482500", "114524.482500", "114526.482500", "114528.482500", "114530.482500", "114532.482500", "114534.482500", "114536.482500", "114538.482500", "114540.482500", "114542.482500", "114544.482500", "114546.482500", "114548.482500", "114550.482500", "114552.482500", "114554.482500", "114556.482500", "114558.482500", "114600.482500", "114602.482500", "114604.482500", "114606.482500", "114608.482500", "114610.482500", "114612.482500", "114614.482500", "114616.482500", "114618.482500", "114620.482500", "114622.482500", "114624.482500", "114626.482500", "114628.482500", "114630.482500", "114632.482500", "114634.482500", "114636.482500", "114638.482500", "114640.482500", "114642.482500", "114644.482500", "114646.482500", "114648.482500", "114650.482500", "114652.482500", "114654.482500", "114656.482500", "114658.482500", "114700.482500", "114702.482500", "114704.482500", "114706.482500", "114708.482500", "114710.482500", "114712.482500", "114714.482500", "114716.482500", "114718.482500", "114720.482500", "114722.482500", "114724.482500", "114726.482500", "114728.482500", "114730.482500", "114732.482500", "114734.482500", "114736.482500", "114738.482500", "114740.482500", "114742.482500", "114744.482500", "114746.482500", "114748.482500", "114750.482500", "114752.482500", "114754.482500", "114756.482500", "114758.482500", "114800.482500", "114802.482500", "114804.482500", "114806.482500", "114808.482500", "114810.482500", "114812.482500", "114814.482500", "114816.482500", "114818.482500", "114820.482500", "114822.482500"],
      "ContentTime": ["114314.355000", "114315.850000", "114317.850000", "114319.850000", "114321.849000", "114323.849000", "114325.849000", "114327.849000", "114329.850000", "114331.850000", "114334.349000", "114335.850000", "114337.849000", "114339.849000", "114341.849000", "114343.849000", "114345.849000", "114347.851000", "114349.850000", "114352.349000", "114353.850000", "114355.849000", "114358.350000", "114359.849000", "114401.849000", "114403.849000", "114405.850000", "114408.351000", "114409.849000", "114411.850000", "114413.849000", "114416.349000", "114417.849000", "114419.849000", "114421.850000", "114423.851000", "114425.851000", "114427.849000", "114429.850000", "114431.849000", "114433.849000", "114435.850000", "114437.850000", "114439.849000", "114441.850000", "114443.850000", "114445.849000", "114447.849000", "114450.349000", "114451.849000", "114453.849000", "114455.849000", "114457.850000", "114500.350000", "114501.849000", "114503.849000", "114505.849000", "114507.850000", "114510.349000", "114511.849000", "114513.849000", "114515.850000", "114517.850000", "114519.850000", "114521.850000", "114523.849000", "114526.349000", "114527.849000", "114530.350000", "114531.849000", "114533.850000", "114535.850000", "114537.850000", "114539.849000", "114541.850000", "114543.849000", "114545.849000", "114548.349000", "114549.849000", "114551.851000", "114553.851000", "114555.849000", "114557.849000", "114600.350000", "114601.850000", "114603.850000", "114605.850000", "114607.850000", "114609.850000", "114611.849000", "114613.849000", "114615.849000", "114617.849000", "114619.849000", "114621.850000", "114623.849000", "114625.850000", "114627.851000", "114630.350000", "114631.849000", "114633.849000", "114635.849000", "114638.349000", "114639.850000", "114641.849000", "114643.850000", "114645.850000", "114647.849000", "114649.849000", "114652.350000", "114653.849000", "114656.349000", "114657.849000", "114700.351000", "114701.850000", "114703.850000", "114705.850000", "114707.849000", "114709.849000", "114711.849000", "114713.849000", "114715.850000", "114717.851000", "114719.850000", "114722.349000", "114724.349000", "114725.849000", "114727.850000", "114730.350000", "114731.850000", "114733.849000", "114735.851000", "114737.851000", "114739.849000", "114742.350000", "114743.849000", "114746.350000", "114747.850000", "114749.850000", "114751.850000", "114753.851000", "114755.851000", "114757.849000", "114759.861000", "114801.849000", "114804.350000", "114805.850000", "114807.849000", "114809.849000", "114811.851000", "114813.850000", "114815.850000", "114818.349000", "114819.850000", "114821.849000", "114823.758000"],
      "InstanceCreationTime": ["114314.355000", "114315.850000", "114317.850000", "114319.850000", "114321.849000", "114323.849000", "114325.849000", "114327.849000", "114329.850000", "114331.850000", "114334.349000", "114335.850000", "114337.849000", "114339.849000", "114341.849000", "114343.849000", "114345.849000", "114347.851000", "114349.850000", "114352.349000", "114353.850000", "114355.849000", "114358.350000", "114359.849000", "114401.849000", "114403.849000", "114405.850000", "114408.351000", "114409.849000", "114411.850000", "114413.849000", "114416.349000", "114417.849000", "114419.849000", "114421.850000", "114423.851000", "114425.851000", "114427.849000", "114429.850000", "114431.849000", "114433.849000", "114435.850000", "114437.850000", "114439.849000", "114441.850000", "114443.850000", "114445.849000", "114447.849000", "114450.349000", "114451.849000", "114453.849000", "114455.849000", "114457.850000", "114500.350000", "114501.849000", "114503.849000", "114505.849000", "114507.850000", "114510.349000", "114511.849000", "114513.849000", "114515.850000", "114517.850000", "114519.850000", "114521.850000", "114523.849000", "114526.349000", "114527.849000", "114530.350000", "114531.849000", "114533.850000", "114535.850000", "114537.850000", "114539.849000", "114541.850000", "114543.849000", "114545.849000", "114548.349000", "114549.849000", "114551.851000", "114553.851000", "114555.849000", "114557.849000", "114600.350000", "114601.850000", "114603.850000", "114605.850000", "114607.850000", "114609.850000", "114611.849000", "114613.849000", "114615.849000", "114617.849000", "114619.849000", "114621.850000", "114623.849000", "114625.850000", "114627.851000", "114630.350000", "114631.849000", "114633.849000", "114635.849000", "114638.349000", "114639.850000", "114641.849000", "114643.850000", "114645.850000", "114647.849000", "114649.849000", "114652.350000", "114653.849000", "114656.349000", "114657.849000", "114700.351000", "114701.850000", "114703.850000", "114705.850000", "114707.849000", "114709.849000", "114711.849000", "114713.849000", "114715.850000", "114717.851000", "114719.850000", "114722.349000", "114724.349000", "114725.849000", "114727.850000", "114730.350000", "114731.850000", "114733.849000", "114735.851000", "114737.851000", "114739.849000", "114742.350000", "114743.849000", "114746.350000", "114747.850000", "114749.850000", "114751.850000", "114753.851000", "114755.851000", "114757.849000", "114759.861000", "114801.849000", "114804.350000", "114805.850000", "114807.849000", "114809.849000", "114811.851000", "114813.850000", "114815.850000", "114818.349000", "114819.850000", "114821.849000", "114823.758000"],
      "InstanceNumber": [1, 2, 3, 4, 5, 6, 7, 8, 9, 10, 11, 12, 13, 14, 15, 16, 17, 18, 19, 20, 21, 22, 23, 24, 25, 26, 27, 28, 29, 30, 31, 32, 33, 34, 35, 36, 37, 38, 39, 40, 41, 42, 43, 44, 45, 46, 47, 48, 49, 50, 51, 52, 53, 54, 55, 56, 57, 58, 59, 60, 61, 62, 63, 64, 65, 66, 67, 68, 69, 70, 71, 72, 73, 74, 75, 76, 77, 78, 79, 80, 81, 82, 83, 84, 85, 86, 87, 88, 89, 90, 91, 92, 93, 94, 95, 96, 97, 98, 99, 100, 101, 102, 103, 104, 105, 106, 107, 108, 109, 110, 111, 112, 113, 114, 115, 116, 117, 118, 119, 120, 121, 122, 123, 124, 125, 126, 127, 128, 129, 130, 131, 132, 133, 134, 135, 136, 137, 138, 139, 140, 141, 142, 143, 144, 145, 146, 147, 148, 149, 150, 151, 152, 153, 154, 155, 156],
      "WindowCenter": [879.0, 878.0, 877.0, 876.0, 876.0, 875.0, 876.0, 876.0, 876.0, 876.0, 877.0, 877.0, 876.0, 875.0, 875.0, 875.0, 876.0, 876.0, 875.0, 875.0, 875.0, 875.0, 876.0, 875.0, 875.0, 876.0, 876.0, 875.0, 875.0, 875.0, 875.0, 874.0, 875.0, 874.0, 875.0, 877.0, 877.0, 877.0, 877.0, 876.0, 875.0, 875.0, 875.0, 875.0, 876.0, 876.0, 876.0, 877.0, 877.0, 876.0, 876.0, 876.0, 875.0, 875.0, 873.0, 873.0, 874.0, 875.0, 875.0, 874.0, 874.0, 874.0, 876.0, 876.0, 877.0, 876.0, 874.0, 872.0, 872.0, 873.0, 874.0, 874.0, 874.0, 874.0, 873.0, 872.0, 873.0, 874.0, 875.0, 876.0, 877.0, 878.0, 878.0, 878.0, 876.0, 875.0, 873.0, 873.0, 872.0, 874.0, 874.0, 873.0, 872.0, 871.0, 872.0, 873.0, 873.0, 872.0, 872.0, 872.0, 873.0, 874.0, 874.0, 874.0, 875.0, 875.0, 876.0, 876.0, 877.0, 876.0, 875.0, 875.0, 875.0, 874.0, 874.0, 874.0, 876.0, 877.0, 878.0, 877.0, 875.0, 872.0, 871.0, 871.0, 872.0, 874.0, 874.0, 873.0, 874.0, 876.0, 878.0, 878.0, 876.0, 874.0, 873.0, 873.0, 874.0, 874.0, 872.0, 871.0, 871.0, 872.0, 873.0, 874.0, 874.0, 875.0, 875.0, 876.0, 875.0, 875.0, 876.0, 875.0, 877.0, 877.0, 877.0, 876.0],
      "WindowWidth": [1940.0, 1936.0, 1933.0, 1930.0, 1928.0, 1927.0, 1928.0, 1928.0, 1929.0, 1930.0, 1931.0, 1931.0, 1929.0, 1927.0, 1926.0, 1928.0, 1929.0, 1928.0, 1926.0, 1927.0, 1926.0, 1927.0, 1928.0, 1927.0, 1927.0, 1928.0, 1928.0, 1928.0, 1926.0, 1925.0, 1925.0, 1925.0, 1926.0, 1925.0, 1927.0, 1931.0, 1933.0, 1932.0, 1931.0, 1928.0, 1926.0, 1926.0, 1927.0, 1927.0, 1928.0, 1929.0, 1930.0, 1932.0, 1932.0, 1931.0, 1931.0, 1929.0, 1928.0, 1926.0, 1922.0, 1920.0, 1925.0, 1927.0, 1927.0, 1924.0, 1923.0, 1925.0, 1928.0, 1930.0, 1931.0, 1929.0, 1924.0, 1918.0, 1917.0, 1920.0, 1923.0, 1924.0, 1925.0, 1924.0, 1921.0, 1920.0, 1920.0, 1922.0, 1926.0, 1929.0, 1931.0, 1934.0, 1935.0, 1935.0, 1930.0, 1925.0, 1922.0, 1920.0, 1918.0, 1924.0, 1923.0, 1921.0, 1918.0, 1916.0, 1919.0, 1920.0, 1921.0, 1919.0, 1917.0, 1917.0, 1920.0, 1922.0, 1924.0, 1923.0, 1925.0, 1926.0, 1928.0, 1930.0, 1931.0, 1930.0, 1927.0, 1925.0, 1925.0, 1924.0, 1924.0, 1924.0, 1930.0, 1933.0, 1934.0, 1932.0, 1927.0, 1919.0, 1916.0, 1915.0, 1920.0, 1923.0, 1925.0, 1922.0, 1924.0, 1930.0, 1935.0, 1934.0, 1928.0, 1922.0, 1920.0, 1921.0, 1924.0, 1922.0, 1917.0, 1915.0, 1916.0, 1918.0, 1921.0, 1922.0, 1924.0, 1925.0, 1927.0, 1928.0, 1926.0, 1927.0, 1928.0, 1927.0, 1930.0, 1932.0, 1931.0, 1928.0]
    },
    "slices": {}
  }
}