{
  "AcquisitionMatrixPE": 100,
  "AcquisitionNumber": 1,
  "AcquisitionTime": "16:47:6.022500",
  "BandwidthPerPixelPhaseEncode": 18.519,
  "BaseResolution": 100,
  "BodyPartExamined": "BRAIN",
  "CoilCombinationMethod": "Sum of Squares",
  "ConsistencyInfo": "N4_VE11C_LATEST_20160120",
  "ConversionSoftware": "dcm2niix",
  "ConversionSoftwareVersion": "v1.0.20211006",
  "DerivedVendorReportedEchoSpacing": 0.000539986,
  "DeviceSerialNumber": "166078",
  "DwellTime": 2.1e-06,
  "EchoTime": 0.034,
  "EchoTrainLength": 100,
  "EffectiveEchoSpacing": 0.000539986,
  "FlipAngle": 90,
  "ImageOrientationPatientDICOM": [0.999997, -0.000482849, -0.0021962, 1.0027e-08, 0.976675, -0.214724],
  "ImageOrientationText": "Tra>Cor(-12.4)>Sag(-0.1)",
  "ImageType": [
    "ORIGINAL",
    "PRIMARY",
    "M",
    "ND",
    "MOSAIC"
],
  "ImagingFrequency": 123.258,
  "InPlanePhaseEncodingDirectionDICOM": "COL",
  "InstitutionAddress": "Street StreetNo,Bei Jing,District,CN,ZIP",
  "InstitutionName": "BeiJing Normal University",
  "InstitutionalDepartmentName": "Department",
  "MRAcquisitionType": "2D",
  "MagneticFieldStrength": 3,
  "Manufacturer": "Siemens",
  "ManufacturersModelName": "Prisma",
  "Modality": "MR",
  "MultibandAccelerationFactor": 3,
  "PartialFourier": 1,
  "PatientPosition": "HFS",
  "PercentPhaseFOV": 100,
  "PercentSampling": 100,
  "PhaseEncodingDirection": "j-",
  "PhaseEncodingSteps": 100,
  "PhaseResolution": 1,
  "PixelBandwidth": 2380,
  "ProcedureStepDescription": "BNU_P2018_64CH^Zhen.ZongLei",
  "ProtocolName": "bold_100x100_s3_2x2x2_static_156",
  "PulseSequenceDetails": "%SiemensSeq%\\ep2d_bold",
  "ReceiveCoilActiveElements": "HC1-7;NC1",
  "ReceiveCoilName": "HeadNeck_64",
  "ReconMatrixPE": 100,
  "RefLinesPE": 32,
  "RepetitionTime": 2,
  "SAR": 0.0846961,
  "ScanOptions": "FS",
  "ScanningSequence": "EP",
  "SequenceName": "*epfid2d1_100",
  "SequenceVariant": "SK",
  "SeriesDescription": "bold_100x100_s3_2x2x2_static_156",
  "SeriesNumber": 13,
  "ShimSetting": [-5469, -11538, -1312, 329, -3, -519, -139, 90],
  "SliceThickness": 2,
  "SliceTiming": [1.485, 0, 0.99, 0.0825, 1.0725, 0.165, 1.155, 0.2475, 1.2375, 0.33, 1.32, 0.4125, 1.4025, 0.5775, 1.5675, 0.66, 1.65, 0.7425, 1.7325, 0.825, 1.815, 0.9075, 1.8975, 0.495, 1.485, 0, 0.99, 0.0825, 1.0725, 0.165, 1.155, 0.2475, 1.2375, 0.33, 1.32, 0.4125, 1.4025, 0.5775, 1.5675, 0.66, 1.65, 0.7425, 1.7325, 0.825, 1.815, 0.9075, 1.8975, 0.495, 1.485, 0, 0.99, 0.0825, 1.0725, 0.165, 1.155, 0.2475, 1.2375, 0.33, 1.32, 0.4125, 1.4025, 0.5775, 1.5675, 0.66, 1.65, 0.7425, 1.7325, 0.825, 1.815, 0.9075, 1.8975, 0.495],
  "SoftwareVersions": "syngo MR E11",
  "SpacingBetweenSlices": 2,
  "StationName": "AWP166078",
  "TaskName": "action",
  "TotalReadoutTime": 0.0534586,
  "TxRefAmp": 227.228,
  "dcmmeta_affine": [
    [-1.9999949932098389, 2.00539673755884e-08, -0.004497302230447531, 104.92462921142578],
    [0.0009656987385824323, 1.9533494710922241, -0.42944708466529846, -76.11588287353516],
    [-0.004392397124320269, 0.4294481873512268, 1.9533445835113525, -87.68138122558594],
    [0.0, 0.0, 0.0, 1.0]
],
  "dcmmeta_reorient_transform": [
    [0.0, -1.0, 0.0, 99.0],
    [1.0, 0.0, 0.0, 0.0],
    [0.0, 0.0, 1.0, 0.0],
    [0.0, 0.0, 0.0, 1.0]
],
  "dcmmeta_shape": [100, 100, 72, 156],
  "dcmmeta_slice_dim": 2,
  "dcmmeta_version": 0.6,
  "global": {
    "const": {
      "AcquisitionMatrix": [100, 0, 0, 100],
      "AngioFlag": "N",
      "BitsAllocated": 16,
      "BitsStored": 12,
      "BodyPartExamined": "BRAIN",
      "Columns": 900,
      "EchoNumbers": 1,
      "EchoTime": 34.0,
      "EchoTrainLength": 100,
      "FlipAngle": 90.0,
      "HighBit": 11,
      "ImageOrientationPatient": [0.99999747178083, -0.0004828493671, -0.0021961986344, 1.0026984e-08, 0.97667474852184, -0.2147240918011],
      "ImagePositionPatient": [-904.92261651583, -898.21923557598, 128.37022153599],
      "ImageType": [
        "ORIGINAL",
        "PRIMARY",
        "M",
        "ND",
        "MOSAIC"
],
      "ImagedNucleus": "1H",
      "ImagingFrequency": 123.257712,
      "InPlanePhaseEncodingDirection": "COL",
      "MRAcquisitionType": "2D",
      "MagneticFieldStrength": 3.0,
      "Manufacturer": "SIEMENS",
      "ManufacturerModelName": "Prisma",
      "Modality": "MR",
      "NumberOfAverages": 1.0,
      "NumberOfPhaseEncodingSteps": 100,
      "PercentPhaseFieldOfView": 100.0,
      "PercentSampling": 100.0,
      "PerformedProcedureStepStartTime": "155536.703000",
      "PhotometricInterpretation": "MONOCHROME2",
      "PixelBandwidth": 2380.0,
      "PixelRepresentation": 0,
      "PixelSpacing": [2.0, 2.0],
      "ProtocolName": "bold_100x100_s3_2x2x2_static_156",
      "RepetitionTime": 2000.0,
      "Rows": 900,
      "SAR": 0.08469609050595,
      "SamplesPerPixel": 1,
      "ScanOptions": "FS",
      "ScanningSequence": "EP",
      "SequenceName": "*epfid2d1_100",
      "SequenceVariant": "SK",
      "SeriesDescription": "bold_100x100_s3_2x2x2_static_156",
      "SeriesNumber": 13,
      "SeriesTime": "164708.541000",
      "SliceLocation": -69.528040376514,
      "SliceThickness": 2.0,
      "SmallestImagePixelValue": 0,
      "SoftwareVersions": "syngo MR E11",
      "SpacingBetweenSlices": 1.9999999771383,
      "SpecificCharacterSet": "ISO_IR 100",
      "StudyID": "1",
      "StudyTime": "155536.619000",
      "TransmitCoilName": "Body",
      "VariableFlipAngleFlag": "N",
      "WindowCenterWidthExplanation": "Algo1",
      "dBdt": 0.0},
    "slices": {}
  },
  "time": {
    "samples": {
      "AcquisitionNumber": [1, 2, 3, 4, 5, 6, 7, 8, 9, 10, 11, 12, 13, 14, 15, 16, 17, 18, 19, 20, 21, 22, 23, 24, 25, 26, 27, 28, 29, 30, 31, 32, 33, 34, 35, 36, 37, 38, 39, 40, 41, 42, 43, 44, 45, 46, 47, 48, 49, 50, 51, 52, 53, 54, 55, 56, 57, 58, 59, 60, 61, 62, 63, 64, 65, 66, 67, 68, 69, 70, 71, 72, 73, 74, 75, 76, 77, 78, 79, 80, 81, 82, 83, 84, 85, 86, 87, 88, 89, 90, 91, 92, 93, 94, 95, 96, 97, 98, 99, 100, 101, 102, 103, 104, 105, 106, 107, 108, 109, 110, 111, 112, 113, 114, 115, 116, 117, 118, 119, 120, 121, 122, 123, 124, 125, 126, 127, 128, 129, 130, 131, 132, 133, 134, 135, 136, 137, 138, 139, 140, 141, 142, 143, 144, 145, 146, 147, 148, 149, 150, 151, 152, 153, 154, 155, 156],
      "AcquisitionTime": ["164706.022500", "164708.022500", "164710.022500", "164712.022500", "164714.022500", "164716.022500", "164718.022500", "164720.022500", "164722.022500", "164724.022500", "164726.022500", "164728.022500", "164730.022500", "164732.022500", "164734.022500", "164736.022500", "164738.022500", "164740.022500", "164742.022500", "164744.022500", "164746.022500", "164748.022500", "164750.022500", "164752.022500", "164754.022500", "164756.022500", "164758.022500", "164800.022500", "164802.022500", "164804.022500", "164806.022500", "164808.022500", "164810.022500", "164812.022500", "164814.022500", "164816.022500", "164818.022500", "164820.022500", "164822.022500", "164824.022500", "164826.022500", "164828.022500", "164830.022500", "164832.022500", "164834.022500", "164836.022500", "164838.022500", "164840.022500", "164842.022500", "164844.022500", "164846.022500", "164848.022500", "164850.022500", "164852.022500", "164854.022500", "164856.022500", "164858.022500", "164900.022500", "164902.022500", "164904.022500", "164906.022500", "164908.022500", "164910.022500", "164912.022500", "164914.022500", "164916.022500", "164918.022500", "164920.022500", "164922.022500", "164924.022500", "164926.022500", "164928.022500", "164930.022500", "164932.022500", "164934.022500", "164936.022500", "164938.022500", "164940.022500", "164942.022500", "164944.022500", "164946.022500", "164948.022500", "164950.022500", "164952.022500", "164954.022500", "164956.022500", "164958.022500", "165000.022500", "165002.022500", "165004.022500", "165006.022500", "165008.022500", "165010.022500", "165012.022500", "165014.022500", "165016.022500", "165018.022500", "165020.022500", "165022.022500", "165024.022500", "165026.022500", "165028.022500", "165030.022500", "165032.022500", "165034.022500", "165036.022500", "165038.022500", "165040.022500", "165042.022500", "165044.022500", "165046.022500", "165048.022500", "165050.022500", "165052.022500", "165054.022500", "165056.022500", "165058.022500", "165100.022500", "165102.022500", "165104.022500", "165106.022500", "165108.022500", "165110.022500", "165112.022500", "165114.022500", "165116.022500", "165118.022500", "165120.022500", "165122.022500", "165124.022500", "165126.022500", "165128.022500", "165130.022500", "165132.022500", "165134.022500", "165136.022500", "165138.022500", "165140.022500", "165142.022500", "165144.022500", "165146.022500", "165148.022500", "165150.022500", "165152.022500", "165154.022500", "165156.022500", "165158.022500", "165200.022500", "165202.022500", "165204.022500", "165206.022500", "165208.022500", "165210.022500", "165212.022500", "165214.022500", "165216.022500"],
      "ContentTime": ["164708.545000", "164709.540000", "164711.541000", "164713.541000", "164716.041000", "164718.039000", "164719.539000", "164721.540000", "164723.540000", "164725.540000", "164727.541000", "164730.041000", "164731.541000", "164733.541000", "164735.539000", "164738.040000", "164739.540000", "164741.541000", "164743.540000", "164745.541000", "164748.041000", "164749.540000", "164752.039000", "164753.539000", "164756.039000", "164757.539000", "164800.040000", "164802.040000", "164803.540000", "164805.540000", "164808.040000", "164810.039000", "164811.539000", "164813.540000", "164815.541000", "164817.540000", "164819.540000", "164821.540000", "164824.040000", "164825.540000", "164827.539000", "164830.039000", "164831.539000", "164833.540000", "164836.040000", "164837.540000", "164840.041000", "164842.040000", "164844.040000", "164846.040000", "164848.039000", "164850.039000", "164852.041000", "164854.041000", "164855.540000", "164857.540000", "164900.041000", "164902.039000", "164903.540000", "164906.040000", "164908.040000", "164909.541000", "164911.540000", "164913.540000", "164915.541000", "164918.040000", "164920.040000", "164921.540000", "164924.040000", "164925.541000", "164927.540000", "164930.041000", "164932.040000", "164934.041000", "164936.041000", "164937.540000", "164939.539000", "164941.539000", "164943.540000", "164945.541000", "164948.040000", "164950.040000", "164952.041000", "164953.540000", "164956.040000", "164958.039000", "165000.040000", "165001.541000", "165004.040000", "165006.041000", "165007.541000", "165010.040000", "165012.040000", "165014.040000", "165015.540000", "165017.539000", "165020.041000", "165021.541000", "165024.041000", "165025.541000", "165028.040000", "165029.539000", "165031.542000", "165034.040000", "165035.540000", "165038.040000", "165040.040000", "165042.041000", "165044.040000", "165045.540000", "165048.040000", "165049.540000", "165052.040000", "165054.040000", "165056.040000", "165058.041000", "165059.541000", "165101.541000", "165103.541000", "165105.540000", "165107.542000", "165109.540000", "165112.041000", "165114.040000", "165116.041000", "165117.541000", "165119.540000", "165121.539000", "165123.541000", "165125.539000", "165128.041000", "165130.040000", "165131.540000", "165133.541000", "165135.541000", "165138.040000", "165139.540000", "165142.040000", "165144.039000", "165146.041000", "165147.541000", "165149.540000", "165152.041000", "165153.542000", "165156.040000", "165157.539000", "165200.040000", "165202.040000", "165204.041000", "165206.041000", "165208.041000", "165210.040000", "165212.040000", "165213.540000", "165215.540000", "165217.567000"],
      "InstanceCreationTime": ["164708.545000", "164709.540000", "164711.541000", "164713.541000", "164716.041000", "164718.039000", "164719.539000", "164721.540000", "164723.540000", "164725.540000", "164727.541000", "164730.041000", "164731.541000", "164733.541000", "164735.539000", "164738.040000", "164739.540000", "164741.541000", "164743.540000", "164745.541000", "164748.041000", "164749.540000", "164752.039000", "164753.539000", "164756.039000", "164757.539000", "164800.040000", "164802.040000", "164803.540000", "164805.540000", "164808.040000", "164810.039000", "164811.539000", "164813.540000", "164815.541000", "164817.540000", "164819.540000", "164821.540000", "164824.040000", "164825.540000", "164827.539000", "164830.039000", "164831.539000", "164833.540000", "164836.040000", "164837.540000", "164840.041000", "164842.040000", "164844.040000", "164846.040000", "164848.039000", "164850.039000", "164852.041000", "164854.041000", "164855.540000", "164857.540000", "164900.041000", "164902.039000", "164903.540000", "164906.040000", "164908.040000", "164909.541000", "164911.540000", "164913.540000", "164915.541000", "164918.040000", "164920.040000", "164921.540000", "164924.040000", "164925.541000", "164927.540000", "164930.041000", "164932.040000", "164934.041000", "164936.041000", "164937.540000", "164939.539000", "164941.539000", "164943.540000", "164945.541000", "164948.040000", "164950.040000", "164952.041000", "164953.540000", "164956.040000", "164958.039000", "165000.040000", "165001.541000", "165004.040000", "165006.041000", "165007.541000", "165010.040000", "165012.040000", "165014.040000", "165015.540000", "165017.539000", "165020.041000", "165021.541000", "165024.041000", "165025.541000", "165028.040000", "165029.539000", "165031.542000", "165034.040000", "165035.540000", "165038.040000", "165040.040000", "165042.041000", "165044.040000", "165045.540000", "165048.040000", "165049.540000", "165052.040000", "165054.040000", "165056.040000", "165058.041000", "165059.541000", "165101.541000", "165103.541000", "165105.540000", "165107.542000", "165109.540000", "165112.041000", "165114.040000", "165116.041000", "165117.541000", "165119.540000", "165121.539000", "165123.541000", "165125.539000", "165128.041000", "165130.040000", "165131.540000", "165133.541000", "165135.541000", "165138.040000", "165139.540000", "165142.040000", "165144.039000", "165146.041000", "165147.541000", "165149.540000", "165152.041000", "165153.542000", "165156.040000", "165157.539000", "165200.040000", "165202.040000", "165204.041000", "165206.041000", "165208.041000", "165210.040000", "165212.040000", "165213.540000", "165215.540000", "165217.567000"],
      "InstanceNumber": [1, 2, 3, 4, 5, 6, 7, 8, 9, 10, 11, 12, 13, 14, 15, 16, 17, 18, 19, 20, 21, 22, 23, 24, 25, 26, 27, 28, 29, 30, 31, 32, 33, 34, 35, 36, 37, 38, 39, 40, 41, 42, 43, 44, 45, 46, 47, 48, 49, 50, 51, 52, 53, 54, 55, 56, 57, 58, 59, 60, 61, 62, 63, 64, 65, 66, 67, 68, 69, 70, 71, 72, 73, 74, 75, 76, 77, 78, 79, 80, 81, 82, 83, 84, 85, 86, 87, 88, 89, 90, 91, 92, 93, 94, 95, 96, 97, 98, 99, 100, 101, 102, 103, 104, 105, 106, 107, 108, 109, 110, 111, 112, 113, 114, 115, 116, 117, 118, 119, 120, 121, 122, 123, 124, 125, 126, 127, 128, 129, 130, 131, 132, 133, 134, 135, 136, 137, 138, 139, 140, 141, 142, 143, 144, 145, 146, 147, 148, 149, 150, 151, 152, 153, 154, 155, 156],
      "LargestImagePixelValue": [3529, 3537, 3471, 3470, 3450, 3488, 3482, 3484, 3460, 3479, 3480, 3458, 3487, 3439, 3469, 3426, 3489, 3448, 3489, 3486, 3445, 3464, 3426, 3471, 3416, 3454, 3447, 3424, 3463, 3402, 3468, 3434, 3447, 3393, 3462, 3416, 3470, 3436, 3462, 3445, 3459, 3464, 3416, 3477, 3388, 3476, 3410, 3467, 3414, 3430, 3460, 3398, 3436, 3392, 3454, 3421, 3460, 3404, 3454, 3425, 3471, 3412, 3452, 3417, 3473, 3404, 3463, 3388, 3455, 3383, 3424, 3400, 3400, 3413, 3393, 3448, 3404, 3412, 3397, 3393, 3422, 3392, 3402, 3382, 3430, 3385, 3432, 3372, 3452, 3414, 3415, 3399, 3430, 3441, 3412, 3400, 3390, 3398, 3395, 3414, 3432, 3424, 3377, 3411, 3383, 3419, 3370, 3429, 3387, 3429, 3390, 3426, 3408, 3415, 3370, 3420, 3400, 3395, 3433, 3378, 3428, 3386, 3443, 3375, 3417, 3412, 3439, 3371, 3427, 3390, 3395, 3342, 3393, 3395, 3375, 3456, 3412, 3422, 3366, 3414, 3441, 3439, 3442, 3402, 3410, 3379, 3433, 3386, 3443, 3342, 3462, 3365, 3397, 3402, 3443, 3370],
      "WindowCenter": [759.0, 757.0, 756.0, 757.0, 757.0, 755.0, 755.0, 756.0, 757.0, 757.0, 756.0, 755.0, 756.0, 756.0, 757.0, 756.0, 755.0, 755.0, 755.0, 755.0, 756.0, 755.0, 756.0, 756.0, 756.0, 756.0, 756.0, 756.0, 756.0, 756.0, 756.0, 756.0, 754.0, 756.0, 757.0, 756.0, 756.0, 756.0, 756.0, 756.0, 756.0, 755.0, 755.0, 756.0, 756.0, 755.0, 756.0, 755.0, 756.0, 755.0, 756.0, 755.0, 756.0, 755.0, 755.0, 756.0, 756.0, 756.0, 756.0, 755.0, 756.0, 755.0, 755.0, 755.0, 756.0, 755.0, 755.0, 755.0, 756.0, 756.0, 756.0, 756.0, 756.0, 756.0, 756.0, 755.0, 756.0, 756.0, 755.0, 755.0, 755.0, 756.0, 756.0, 755.0, 755.0, 755.0, 755.0, 755.0, 756.0, 756.0, 755.0, 755.0, 757.0, 756.0, 755.0, 755.0, 755.0, 755.0, 755.0, 755.0, 756.0, 756.0, 754.0, 754.0, 755.0, 755.0, 755.0, 755.0, 756.0, 756.0, 755.0, 755.0, 755.0, 755.0, 755.0, 755.0, 756.0, 756.0, 756.0, 756.0, 756.0, 756.0, 756.0, 756.0, 756.0, 757.0, 756.0, 755.0, 757.0, 756.0, 756.0, 755.0, 756.0, 756.0, 756.0, 756.0, 756.0, 755.0, 755.0, 757.0, 758.0, 756.0, 756.0, 756.0, 757.0, 756.0, 756.0, 756.0, 757.0, 755.0, 755.0, 754.0, 755.0, 755.0, 755.0, 755.0],
      "WindowWidth": [1658.0, 1651.0, 1650.0, 1652.0, 1652.0, 1647.0, 1648.0, 1649.0, 1652.0, 1652.0, 1650.0, 1648.0, 1649.0, 1650.0, 1651.0, 1649.0, 1646.0, 1646.0, 1646.0, 1648.0, 1649.0, 1648.0, 1648.0, 1648.0, 1649.0, 1650.0, 1649.0, 1648.0, 1649.0, 1649.0, 1649.0, 1648.0, 1645.0, 1649.0, 1652.0, 1650.0, 1649.0, 1649.0, 1649.0, 1649.0, 1650.0, 1648.0, 1646.0, 1649.0, 1649.0, 1648.0, 1649.0, 1648.0, 1648.0, 1647.0, 1649.0, 1648.0, 1648.0, 1648.0, 1648.0, 1649.0, 1650.0, 1649.0, 1650.0, 1648.0, 1649.0, 1648.0, 1648.0, 1647.0, 1649.0, 1647.0, 1647.0, 1646.0, 1649.0, 1649.0, 1650.0, 1649.0, 1649.0, 1651.0, 1650.0, 1648.0, 1650.0, 1649.0, 1648.0, 1647.0, 1646.0, 1649.0, 1648.0, 1648.0, 1647.0, 1646.0, 1647.0, 1648.0, 1648.0, 1648.0, 1645.0, 1646.0, 1651.0, 1650.0, 1648.0, 1647.0, 1648.0, 1647.0, 1647.0, 1647.0, 1650.0, 1648.0, 1645.0, 1645.0, 1647.0, 1647.0, 1647.0, 1647.0, 1648.0, 1648.0, 1647.0, 1646.0, 1647.0, 1648.0, 1647.0, 1647.0, 1649.0, 1649.0, 1649.0, 1650.0, 1650.0, 1651.0, 1649.0, 1648.0, 1650.0, 1652.0, 1649.0, 1648.0, 1651.0, 1650.0, 1649.0, 1648.0, 1650.0, 1650.0, 1650.0, 1649.0, 1650.0, 1648.0, 1648.0, 1652.0, 1656.0, 1650.0, 1649.0, 1650.0, 1652.0, 1649.0, 1649.0, 1651.0, 1652.0, 1647.0, 1648.0, 1645.0, 1646.0, 1647.0, 1647.0, 1646.0]
    },
    "slices": {}
  }
}