{
  "AcquisitionMatrixPE": 100,
  "AcquisitionNumber": 1,
  "AcquisitionTime": "16:36:55.242500",
  "BandwidthPerPixelPhaseEncode": 18.519,
  "BaseResolution": 100,
  "BodyPartExamined": "BRAIN",
  "CoilCombinationMethod": "Sum of Squares",
  "ConsistencyInfo": "N4_VE11C_LATEST_20160120",
  "ConversionSoftware": "dcm2niix",
  "ConversionSoftwareVersion": "v1.0.20211006",
  "DerivedVendorReportedEchoSpacing": 0.000539986,
  "DeviceSerialNumber": "166078",
  "DwellTime": 2.1e-06,
  "EchoTime": 0.034,
  "EchoTrainLength": 100,
  "EffectiveEchoSpacing": 0.000539986,
  "FlipAngle": 90,
  "ImageOrientationPatientDICOM": [0.999997, -0.000482849, -0.0021962, 1.0027e-08, 0.976675, -0.214724],
  "ImageOrientationText": "Tra>Cor(-12.4)>Sag(-0.1)",
  "ImageType": [
    "ORIGINAL",
    "PRIMARY",
    "M",
    "ND",
    "MOSAIC"
],
  "ImagingFrequency": 123.258,
  "InPlanePhaseEncodingDirectionDICOM": "COL",
  "InstitutionAddress": "Street StreetNo,Bei Jing,District,CN,ZIP",
  "InstitutionName": "BeiJing Normal University",
  "InstitutionalDepartmentName": "Department",
  "MRAcquisitionType": "2D",
  "MagneticFieldStrength": 3,
  "Manufacturer": "Siemens",
  "ManufacturersModelName": "Prisma",
  "Modality": "MR",
  "MultibandAccelerationFactor": 3,
  "PartialFourier": 1,
  "PatientPosition": "HFS",
  "PercentPhaseFOV": 100,
  "PercentSampling": 100,
  "PhaseEncodingDirection": "j-",
  "PhaseEncodingSteps": 100,
  "PhaseResolution": 1,
  "PixelBandwidth": 2380,
  "ProcedureStepDescription": "BNU_P2018_64CH^Zhen.ZongLei",
  "ProtocolName": "bold_100x100_s3_2x2x2_static_156",
  "PulseSequenceDetails": "%SiemensSeq%\\ep2d_bold",
  "ReceiveCoilActiveElements": "HC1-7;NC1",
  "ReceiveCoilName": "HeadNeck_64",
  "ReconMatrixPE": 100,
  "RefLinesPE": 32,
  "RepetitionTime": 2,
  "SAR": 0.0846961,
  "ScanOptions": "FS",
  "ScanningSequence": "EP",
  "SequenceName": "*epfid2d1_100",
  "SequenceVariant": "SK",
  "SeriesDescription": "bold_100x100_s3_2x2x2_static_156",
  "SeriesNumber": 11,
  "ShimSetting": [-5469, -11538, -1312, 329, -3, -519, -139, 90],
  "SliceThickness": 2,
  "SliceTiming": [1.485, 0, 0.99, 0.0825, 1.0725, 0.165, 1.155, 0.2475, 1.2375, 0.33, 1.32, 0.4125, 1.4025, 0.5775, 1.5675, 0.66, 1.65, 0.7425, 1.7325, 0.825, 1.815, 0.9075, 1.8975, 0.495, 1.485, 0, 0.99, 0.0825, 1.0725, 0.165, 1.155, 0.2475, 1.2375, 0.33, 1.32, 0.4125, 1.4025, 0.5775, 1.5675, 0.66, 1.65, 0.7425, 1.7325, 0.825, 1.815, 0.9075, 1.8975, 0.495, 1.485, 0, 0.99, 0.0825, 1.0725, 0.165, 1.155, 0.2475, 1.2375, 0.33, 1.32, 0.4125, 1.4025, 0.5775, 1.5675, 0.66, 1.65, 0.7425, 1.7325, 0.825, 1.815, 0.9075, 1.8975, 0.495],
  "SoftwareVersions": "syngo MR E11",
  "SpacingBetweenSlices": 2,
  "StationName": "AWP166078",
  "TaskName": "action",
  "TotalReadoutTime": 0.0534586,
  "TxRefAmp": 227.228,
  "dcmmeta_affine": [
    [-1.9999949932098389, 2.00539673755884e-08, -0.004497302230447531, 104.92462921142578],
    [0.0009656987385824323, 1.9533494710922241, -0.42944708466529846, -76.11588287353516],
    [-0.004392397124320269, 0.4294481873512268, 1.9533445835113525, -87.68138122558594],
    [0.0, 0.0, 0.0, 1.0]
],
  "dcmmeta_reorient_transform": [
    [0.0, -1.0, 0.0, 99.0],
    [1.0, 0.0, 0.0, 0.0],
    [0.0, 0.0, 1.0, 0.0],
    [0.0, 0.0, 0.0, 1.0]
],
  "dcmmeta_shape": [100, 100, 72, 156],
  "dcmmeta_slice_dim": 2,
  "dcmmeta_version": 0.6,
  "global": {
    "const": {
      "AcquisitionMatrix": [100, 0, 0, 100],
      "AngioFlag": "N",
      "BitsAllocated": 16,
      "BitsStored": 12,
      "BodyPartExamined": "BRAIN",
      "Columns": 900,
      "EchoNumbers": 1,
      "EchoTime": 34.0,
      "EchoTrainLength": 100,
      "FlipAngle": 90.0,
      "HighBit": 11,
      "ImageOrientationPatient": [0.99999747178083, -0.0004828493671, -0.0021961986344, 1.0026984e-08, 0.97667474852184, -0.2147240918011],
      "ImagePositionPatient": [-904.92261651583, -898.21923557598, 128.37022153599],
      "ImageType": [
        "ORIGINAL",
        "PRIMARY",
        "M",
        "ND",
        "MOSAIC"
],
      "ImagedNucleus": "1H",
      "ImagingFrequency": 123.257706,
      "InPlanePhaseEncodingDirection": "COL",
      "MRAcquisitionType": "2D",
      "MagneticFieldStrength": 3.0,
      "Manufacturer": "SIEMENS",
      "ManufacturerModelName": "Prisma",
      "Modality": "MR",
      "NumberOfAverages": 1.0,
      "NumberOfPhaseEncodingSteps": 100,
      "PercentPhaseFieldOfView": 100.0,
      "PercentSampling": 100.0,
      "PerformedProcedureStepStartTime": "155536.703000",
      "PhotometricInterpretation": "MONOCHROME2",
      "PixelBandwidth": 2380.0,
      "PixelRepresentation": 0,
      "PixelSpacing": [2.0, 2.0],
      "ProtocolName": "bold_100x100_s3_2x2x2_static_156",
      "RepetitionTime": 2000.0,
      "Rows": 900,
      "SAR": 0.08469609050595,
      "SamplesPerPixel": 1,
      "ScanOptions": "FS",
      "ScanningSequence": "EP",
      "SequenceName": "*epfid2d1_100",
      "SequenceVariant": "SK",
      "SeriesDescription": "bold_100x100_s3_2x2x2_static_156",
      "SeriesNumber": 11,
      "SeriesTime": "163658.175000",
      "SliceLocation": -69.528040376514,
      "SliceThickness": 2.0,
      "SmallestImagePixelValue": 0,
      "SoftwareVersions": "syngo MR E11",
      "SpacingBetweenSlices": 1.9999999771383,
      "SpecificCharacterSet": "ISO_IR 100",
      "StudyID": "1",
      "StudyTime": "155536.619000",
      "TransmitCoilName": "Body",
      "VariableFlipAngleFlag": "N",
      "WindowCenterWidthExplanation": "Algo1",
      "dBdt": 0.0},
    "slices": {}
  },
  "time": {
    "samples": {
      "AcquisitionNumber": [1, 2, 3, 4, 5, 6, 7, 8, 9, 10, 11, 12, 13, 14, 15, 16, 17, 18, 19, 20, 21, 22, 23, 24, 25, 26, 27, 28, 29, 30, 31, 32, 33, 34, 35, 36, 37, 38, 39, 40, 41, 42, 43, 44, 45, 46, 47, 48, 49, 50, 51, 52, 53, 54, 55, 56, 57, 58, 59, 60, 61, 62, 63, 64, 65, 66, 67, 68, 69, 70, 71, 72, 73, 74, 75, 76, 77, 78, 79, 80, 81, 82, 83, 84, 85, 86, 87, 88, 89, 90, 91, 92, 93, 94, 95, 96, 97, 98, 99, 100, 101, 102, 103, 104, 105, 106, 107, 108, 109, 110, 111, 112, 113, 114, 115, 116, 117, 118, 119, 120, 121, 122, 123, 124, 125, 126, 127, 128, 129, 130, 131, 132, 133, 134, 135, 136, 137, 138, 139, 140, 141, 142, 143, 144, 145, 146, 147, 148, 149, 150, 151, 152, 153, 154, 155, 156],
      "AcquisitionTime": ["163655.242500", "163657.242500", "163659.242500", "163701.242500", "163703.242500", "163705.242500", "163707.242500", "163709.242500", "163711.242500", "163713.242500", "163715.242500", "163717.242500", "163719.242500", "163721.242500", "163723.242500", "163725.242500", "163727.242500", "163729.242500", "163731.242500", "163733.242500", "163735.242500", "163737.242500", "163739.242500", "163741.242500", "163743.242500", "163745.242500", "163747.242500", "163749.242500", "163751.242500", "163753.242500", "163755.242500", "163757.242500", "163759.242500", "163801.242500", "163803.242500", "163805.242500", "163807.242500", "163809.242500", "163811.242500", "163813.242500", "163815.242500", "163817.242500", "163819.242500", "163821.242500", "163823.242500", "163825.242500", "163827.242500", "163829.242500", "163831.242500", "163833.242500", "163835.242500", "163837.242500", "163839.242500", "163841.242500", "163843.242500", "163845.242500", "163847.242500", "163849.242500", "163851.242500", "163853.242500", "163855.242500", "163857.242500", "163859.242500", "163901.242500", "163903.242500", "163905.242500", "163907.242500", "163909.242500", "163911.242500", "163913.242500", "163915.242500", "163917.242500", "163919.242500", "163921.242500", "163923.242500", "163925.242500", "163927.242500", "163929.242500", "163931.242500", "163933.242500", "163935.242500", "163937.242500", "163939.242500", "163941.242500", "163943.242500", "163945.242500", "163947.242500", "163949.242500", "163951.242500", "163953.242500", "163955.242500", "163957.242500", "163959.242500", "164001.242500", "164003.242500", "164005.242500", "164007.242500", "164009.242500", "164011.242500", "164013.242500", "164015.242500", "164017.242500", "164019.242500", "164021.242500", "164023.242500", "164025.242500", "164027.242500", "164029.242500", "164031.242500", "164033.242500", "164035.242500", "164037.242500", "164039.242500", "164041.242500", "164043.242500", "164045.242500", "164047.242500", "164049.242500", "164051.242500", "164053.242500", "164055.242500", "164057.242500", "164059.242500", "164101.242500", "164103.242500", "164105.242500", "164107.242500", "164109.242500", "164111.242500", "164113.242500", "164115.242500", "164117.242500", "164119.242500", "164121.242500", "164123.242500", "164125.242500", "164127.242500", "164129.242500", "164131.242500", "164133.242500", "164135.242500", "164137.242500", "164139.242500", "164141.242500", "164143.242500", "164145.242500", "164147.242500", "164149.242500", "164151.242500", "164153.242500", "164155.242500", "164157.242500", "164159.242500", "164201.242500", "164203.242500", "164205.242500"],
      "ContentTime": ["163658.179000", "163659.675000", "163701.674000", "163703.674000", "163705.674000", "163707.675000", "163709.674000", "163711.676000", "163713.674000", "163715.674000", "163717.674000", "163719.674000", "163721.674000", "163723.674000", "163725.674000", "163727.674000", "163729.676000", "163731.675000", "163733.675000", "163735.674000", "163737.675000", "163739.675000", "163741.674000", "163743.674000", "163745.674000", "163747.675000", "163749.675000", "163751.675000", "163753.675000", "163755.675000", "163757.674000", "163759.674000", "163801.675000", "163803.675000", "163805.676000", "163807.674000", "163809.674000", "163811.674000", "163813.674000", "163815.674000", "163817.674000", "163819.675000", "163821.675000", "163823.674000", "163825.674000", "163827.674000", "163829.675000", "163831.675000", "163833.674000", "163835.675000", "163837.675000", "163839.676000", "163841.675000", "163843.674000", "163845.674000", "163847.674000", "163849.675000", "163851.674000", "163853.674000", "163855.674000", "163857.676000", "163859.675000", "163901.675000", "163903.675000", "163905.674000", "163907.674000", "163909.674000", "163911.674000", "163913.675000", "163915.675000", "163917.675000", "163919.675000", "163921.674000", "163923.675000", "163925.674000", "163927.674000", "163929.675000", "163931.676000", "163933.675000", "163935.675000", "163937.675000", "163939.674000", "163941.675000", "163943.674000", "163945.675000", "163947.674000", "163949.676000", "163951.675000", "163953.675000", "163955.674000", "163957.675000", "163959.675000", "164001.674000", "164003.675000", "164005.675000", "164007.676000", "164009.675000", "164011.674000", "164013.675000", "164015.674000", "164017.675000", "164019.674000", "164021.674000", "164023.676000", "164025.676000", "164027.674000", "164029.674000", "164031.674000", "164033.675000", "164035.674000", "164037.674000", "164039.674000", "164041.676000", "164043.674000", "164045.675000", "164047.675000", "164049.674000", "164051.674000", "164053.675000", "164055.674000", "164057.675000", "164059.676000", "164101.675000", "164103.675000", "164105.674000", "164107.675000", "164109.675000", "164111.674000", "164113.675000", "164115.674000", "164117.675000", "164119.675000", "164121.675000", "164123.674000", "164125.675000", "164127.675000", "164129.675000", "164131.675000", "164133.676000", "164135.676000", "164137.674000", "164139.674000", "164141.674000", "164143.675000", "164145.675000", "164147.674000", "164149.674000", "164151.675000", "164153.674000", "164155.674000", "164157.674000", "164159.674000", "164201.675000", "164203.674000", "164205.674000", "164207.554000"],
      "InstanceCreationTime": ["163658.179000", "163659.675000", "163701.674000", "163703.674000", "163705.674000", "163707.675000", "163709.674000", "163711.676000", "163713.674000", "163715.674000", "163717.674000", "163719.674000", "163721.674000", "163723.674000", "163725.674000", "163727.674000", "163729.676000", "163731.675000", "163733.675000", "163735.674000", "163737.675000", "163739.675000", "163741.674000", "163743.674000", "163745.674000", "163747.675000", "163749.675000", "163751.675000", "163753.675000", "163755.675000", "163757.674000", "163759.674000", "163801.675000", "163803.675000", "163805.676000", "163807.674000", "163809.674000", "163811.674000", "163813.674000", "163815.674000", "163817.674000", "163819.675000", "163821.675000", "163823.674000", "163825.674000", "163827.674000", "163829.675000", "163831.675000", "163833.674000", "163835.675000", "163837.675000", "163839.676000", "163841.675000", "163843.674000", "163845.674000", "163847.674000", "163849.675000", "163851.674000", "163853.674000", "163855.674000", "163857.676000", "163859.675000", "163901.675000", "163903.675000", "163905.674000", "163907.674000", "163909.674000", "163911.674000", "163913.675000", "163915.675000", "163917.675000", "163919.675000", "163921.674000", "163923.675000", "163925.674000", "163927.674000", "163929.675000", "163931.676000", "163933.675000", "163935.675000", "163937.675000", "163939.674000", "163941.675000", "163943.674000", "163945.675000", "163947.674000", "163949.676000", "163951.675000", "163953.675000", "163955.674000", "163957.675000", "163959.675000", "164001.674000", "164003.675000", "164005.675000", "164007.676000", "164009.675000", "164011.674000", "164013.675000", "164015.674000", "164017.675000", "164019.674000", "164021.674000", "164023.676000", "164025.676000", "164027.674000", "164029.674000", "164031.674000", "164033.675000", "164035.674000", "164037.674000", "164039.674000", "164041.676000", "164043.674000", "164045.675000", "164047.675000", "164049.674000", "164051.674000", "164053.675000", "164055.674000", "164057.675000", "164059.676000", "164101.675000", "164103.675000", "164105.674000", "164107.675000", "164109.675000", "164111.674000", "164113.675000", "164115.674000", "164117.675000", "164119.675000", "164121.675000", "164123.674000", "164125.675000", "164127.675000", "164129.675000", "164131.675000", "164133.676000", "164135.676000", "164137.674000", "164139.674000", "164141.674000", "164143.675000", "164145.675000", "164147.674000", "164149.674000", "164151.675000", "164153.674000", "164155.674000", "164157.674000", "164159.674000", "164201.675000", "164203.674000", "164205.674000", "164207.554000"],
      "InstanceNumber": [1, 2, 3, 4, 5, 6, 7, 8, 9, 10, 11, 12, 13, 14, 15, 16, 17, 18, 19, 20, 21, 22, 23, 24, 25, 26, 27, 28, 29, 30, 31, 32, 33, 34, 35, 36, 37, 38, 39, 40, 41, 42, 43, 44, 45, 46, 47, 48, 49, 50, 51, 52, 53, 54, 55, 56, 57, 58, 59, 60, 61, 62, 63, 64, 65, 66, 67, 68, 69, 70, 71, 72, 73, 74, 75, 76, 77, 78, 79, 80, 81, 82, 83, 84, 85, 86, 87, 88, 89, 90, 91, 92, 93, 94, 95, 96, 97, 98, 99, 100, 101, 102, 103, 104, 105, 106, 107, 108, 109, 110, 111, 112, 113, 114, 115, 116, 117, 118, 119, 120, 121, 122, 123, 124, 125, 126, 127, 128, 129, 130, 131, 132, 133, 134, 135, 136, 137, 138, 139, 140, 141, 142, 143, 144, 145, 146, 147, 148, 149, 150, 151, 152, 153, 154, 155, 156],
      "LargestImagePixelValue": [3510, 3414, 3456, 3789, 3620, 3383, 3368, 3399, 3387, 3429, 3381, 3402, 3415, 3413, 3422, 3389, 3405, 3367, 3389, 3456, 3402, 3378, 3406, 3392, 3413, 3433, 3402, 3429, 3403, 3412, 3421, 3425, 3386, 3410, 3381, 3381, 3489, 3440, 3401, 3414, 3398, 3476, 3405, 3478, 3421, 3516, 3397, 3474, 3411, 3497, 3451, 3427, 3374, 3384, 3413, 3391, 3424, 3439, 3421, 3403, 3426, 3411, 3406, 3365, 3389, 3402, 3399, 3402, 3451, 3362, 3385, 3375, 3481, 3406, 3417, 3383, 3416, 3396, 3419, 3402, 3486, 3401, 3460, 3404, 3462, 3382, 3475, 3398, 3431, 3401, 3412, 3424, 3409, 3449, 3404, 3457, 3397, 3447, 3413, 3503, 3417, 3375, 3585, 3427, 3495, 3416, 3511, 3409, 3529, 3376, 3574, 3402, 3521, 3385, 3412, 3422, 3433, 3441, 3414, 3412, 3433, 3510, 3470, 3514, 3395, 3506, 3459, 3505, 3458, 3532, 3420, 3510, 3411, 3549, 3383, 3503, 3400, 3505, 3373, 3485, 3396, 3496, 3392, 3441, 3381, 3477, 3437, 3510, 3388, 3497, 3401, 3517, 3375, 3468, 3438, 3512],
      "WindowCenter": [754.0, 752.0, 751.0, 754.0, 751.0, 754.0, 754.0, 754.0, 755.0, 756.0, 755.0, 755.0, 756.0, 757.0, 756.0, 755.0, 756.0, 756.0, 755.0, 755.0, 756.0, 756.0, 756.0, 756.0, 756.0, 755.0, 756.0, 755.0, 756.0, 755.0, 756.0, 755.0, 755.0, 756.0, 756.0, 755.0, 755.0, 756.0, 757.0, 757.0, 756.0, 756.0, 755.0, 756.0, 756.0, 757.0, 756.0, 756.0, 756.0, 756.0, 756.0, 756.0, 756.0, 755.0, 755.0, 755.0, 756.0, 756.0, 756.0, 755.0, 756.0, 756.0, 755.0, 756.0, 756.0, 756.0, 756.0, 756.0, 757.0, 756.0, 756.0, 756.0, 757.0, 756.0, 756.0, 755.0, 756.0, 755.0, 755.0, 755.0, 756.0, 756.0, 757.0, 756.0, 756.0, 756.0, 757.0, 757.0, 756.0, 757.0, 756.0, 756.0, 757.0, 757.0, 756.0, 756.0, 757.0, 756.0, 757.0, 757.0, 756.0, 756.0, 757.0, 756.0, 757.0, 756.0, 756.0, 755.0, 756.0, 755.0, 757.0, 756.0, 757.0, 756.0, 755.0, 755.0, 756.0, 756.0, 756.0, 756.0, 757.0, 757.0, 757.0, 757.0, 756.0, 757.0, 757.0, 757.0, 757.0, 758.0, 756.0, 757.0, 757.0, 758.0, 757.0, 757.0, 756.0, 758.0, 756.0, 757.0, 756.0, 757.0, 756.0, 756.0, 756.0, 757.0, 756.0, 757.0, 756.0, 757.0, 756.0, 757.0, 756.0, 756.0, 756.0, 757.0],
      "WindowWidth": [1646.0, 1640.0, 1637.0, 1644.0, 1638.0, 1645.0, 1644.0, 1645.0, 1649.0, 1652.0, 1648.0, 1648.0, 1651.0, 1652.0, 1650.0, 1648.0, 1650.0, 1649.0, 1649.0, 1648.0, 1649.0, 1650.0, 1652.0, 1651.0, 1651.0, 1649.0, 1649.0, 1648.0, 1649.0, 1649.0, 1649.0, 1649.0, 1648.0, 1651.0, 1650.0, 1648.0, 1647.0, 1650.0, 1652.0, 1654.0, 1650.0, 1649.0, 1648.0, 1650.0, 1651.0, 1653.0, 1651.0, 1651.0, 1650.0, 1650.0, 1652.0, 1651.0, 1650.0, 1648.0, 1647.0, 1648.0, 1651.0, 1650.0, 1649.0, 1648.0, 1649.0, 1649.0, 1648.0, 1650.0, 1651.0, 1649.0, 1649.0, 1651.0, 1653.0, 1650.0, 1651.0, 1649.0, 1651.0, 1650.0, 1650.0, 1649.0, 1649.0, 1648.0, 1648.0, 1648.0, 1650.0, 1650.0, 1654.0, 1651.0, 1650.0, 1650.0, 1652.0, 1651.0, 1651.0, 1651.0, 1650.0, 1651.0, 1652.0, 1653.0, 1651.0, 1651.0, 1651.0, 1650.0, 1651.0, 1652.0, 1651.0, 1651.0, 1653.0, 1650.0, 1652.0, 1651.0, 1651.0, 1649.0, 1651.0, 1648.0, 1651.0, 1649.0, 1652.0, 1649.0, 1648.0, 1648.0, 1651.0, 1651.0, 1650.0, 1650.0, 1652.0, 1654.0, 1653.0, 1653.0, 1651.0, 1653.0, 1652.0, 1653.0, 1654.0, 1654.0, 1650.0, 1652.0, 1653.0, 1655.0, 1651.0, 1652.0, 1650.0, 1654.0, 1651.0, 1651.0, 1650.0, 1652.0, 1649.0, 1648.0, 1650.0, 1652.0, 1651.0, 1651.0, 1649.0, 1652.0, 1650.0, 1651.0, 1649.0, 1649.0, 1650.0, 1654.0]
    },
    "slices": {}
  }
}