{
  "AcquisitionMatrixPE": 100,
  "AcquisitionNumber": 1,
  "AcquisitionTime": "17:04:58.875000",
  "BandwidthPerPixelPhaseEncode": 18.519,
  "BaseResolution": 100,
  "BodyPartExamined": "BRAIN",
  "CoilCombinationMethod": "Sum of Squares",
  "ConsistencyInfo": "N4_VE11C_LATEST_20160120",
  "ConversionSoftware": "dcm2niix",
  "ConversionSoftwareVersion": "v1.0.20211006",
  "DerivedVendorReportedEchoSpacing": 0.000539986,
  "DeviceSerialNumber": "166078",
  "DwellTime": 2.1e-06,
  "EchoTime": 0.034,
  "EchoTrainLength": 100,
  "EffectiveEchoSpacing": 0.000539986,
  "FlipAngle": 90,
  "ImageOrientationPatientDICOM": [0.999997, -0.000482849, -0.0021962, 1.0027e-08, 0.976675, -0.214724],
  "ImageOrientationText": "Tra>Cor(-12.4)>Sag(-0.1)",
  "ImageType": [
    "ORIGINAL",
    "PRIMARY",
    "M",
    "ND",
    "MOSAIC"
],
  "ImagingFrequency": 123.258,
  "InPlanePhaseEncodingDirectionDICOM": "COL",
  "InstitutionAddress": "Street StreetNo,Bei Jing,District,CN,ZIP",
  "InstitutionName": "BeiJing Normal University",
  "InstitutionalDepartmentName": "Department",
  "MRAcquisitionType": "2D",
  "MagneticFieldStrength": 3,
  "Manufacturer": "Siemens",
  "ManufacturersModelName": "Prisma",
  "Modality": "MR",
  "MultibandAccelerationFactor": 3,
  "PartialFourier": 1,
  "PatientPosition": "HFS",
  "PercentPhaseFOV": 100,
  "PercentSampling": 100,
  "PhaseEncodingDirection": "j-",
  "PhaseEncodingSteps": 100,
  "PhaseResolution": 1,
  "PixelBandwidth": 2380,
  "ProcedureStepDescription": "BNU_P2018_64CH^Zhen.ZongLei",
  "ProtocolName": "bold_100x100_s3_2x2x2_static_156",
  "PulseSequenceDetails": "%SiemensSeq%\\ep2d_bold",
  "ReceiveCoilActiveElements": "HC1-7;NC1",
  "ReceiveCoilName": "HeadNeck_64",
  "ReconMatrixPE": 100,
  "RefLinesPE": 32,
  "RepetitionTime": 2,
  "SAR": 0.0846961,
  "ScanOptions": "FS",
  "ScanningSequence": "EP",
  "SequenceName": "*epfid2d1_100",
  "SequenceVariant": "SK",
  "SeriesDescription": "bold_100x100_s3_2x2x2_static_156",
  "SeriesNumber": 16,
  "ShimSetting": [-5469, -11538, -1312, 329, -3, -519, -139, 90],
  "SliceThickness": 2,
  "SliceTiming": [1.485, 0, 0.99, 0.0825, 1.0725, 0.165, 1.155, 0.2475, 1.2375, 0.33, 1.32, 0.4125, 1.4025, 0.5775, 1.5675, 0.66, 1.65, 0.7425, 1.7325, 0.825, 1.815, 0.9075, 1.8975, 0.495, 1.485, 0, 0.99, 0.0825, 1.0725, 0.165, 1.155, 0.2475, 1.2375, 0.33, 1.32, 0.4125, 1.4025, 0.5775, 1.5675, 0.66, 1.65, 0.7425, 1.7325, 0.825, 1.815, 0.9075, 1.8975, 0.495, 1.485, 0, 0.99, 0.0825, 1.0725, 0.165, 1.155, 0.2475, 1.2375, 0.33, 1.32, 0.4125, 1.4025, 0.5775, 1.5675, 0.66, 1.65, 0.7425, 1.7325, 0.825, 1.815, 0.9075, 1.8975, 0.495],
  "SoftwareVersions": "syngo MR E11",
  "SpacingBetweenSlices": 2,
  "StationName": "AWP166078",
  "TaskName": "action",
  "TotalReadoutTime": 0.0534586,
  "TxRefAmp": 227.228,
  "dcmmeta_affine": [
    [-1.9999949932098389, 2.00539673755884e-08, -0.004497302230447531, 104.92462921142578],
    [0.0009656987385824323, 1.9533494710922241, -0.42944708466529846, -76.11588287353516],
    [-0.004392397124320269, 0.4294481873512268, 1.9533445835113525, -87.68138122558594],
    [0.0, 0.0, 0.0, 1.0]
],
  "dcmmeta_reorient_transform": [
    [0.0, -1.0, 0.0, 99.0],
    [1.0, 0.0, 0.0, 0.0],
    [0.0, 0.0, 1.0, 0.0],
    [0.0, 0.0, 0.0, 1.0]
],
  "dcmmeta_shape": [100, 100, 72, 156],
  "dcmmeta_slice_dim": 2,
  "dcmmeta_version": 0.6,
  "global": {
    "const": {
      "AcquisitionMatrix": [100, 0, 0, 100],
      "AngioFlag": "N",
      "BitsAllocated": 16,
      "BitsStored": 12,
      "BodyPartExamined": "BRAIN",
      "Columns": 900,
      "EchoNumbers": 1,
      "EchoTime": 34.0,
      "EchoTrainLength": 100,
      "FlipAngle": 90.0,
      "HighBit": 11,
      "ImageOrientationPatient": [0.99999747178083, -0.0004828493671, -0.0021961986344, 1.0026984e-08, 0.97667474852184, -0.2147240918011],
      "ImagePositionPatient": [-904.92261651583, -898.21923557598, 128.37022153599],
      "ImageType": [
        "ORIGINAL",
        "PRIMARY",
        "M",
        "ND",
        "MOSAIC"
],
      "ImagedNucleus": "1H",
      "ImagingFrequency": 123.257713,
      "InPlanePhaseEncodingDirection": "COL",
      "MRAcquisitionType": "2D",
      "MagneticFieldStrength": 3.0,
      "Manufacturer": "SIEMENS",
      "ManufacturerModelName": "Prisma",
      "Modality": "MR",
      "NumberOfAverages": 1.0,
      "NumberOfPhaseEncodingSteps": 100,
      "PercentPhaseFieldOfView": 100.0,
      "PercentSampling": 100.0,
      "PerformedProcedureStepStartTime": "155536.703000",
      "PhotometricInterpretation": "MONOCHROME2",
      "PixelBandwidth": 2380.0,
      "PixelRepresentation": 0,
      "PixelSpacing": [2.0, 2.0],
      "ProtocolName": "bold_100x100_s3_2x2x2_static_156",
      "RepetitionTime": 2000.0,
      "Rows": 900,
      "SAR": 0.08469609050595,
      "SamplesPerPixel": 1,
      "ScanOptions": "FS",
      "ScanningSequence": "EP",
      "SequenceName": "*epfid2d1_100",
      "SequenceVariant": "SK",
      "SeriesDescription": "bold_100x100_s3_2x2x2_static_156",
      "SeriesNumber": 16,
      "SeriesTime": "170501.527000",
      "SliceLocation": -69.528040376514,
      "SliceThickness": 2.0,
      "SmallestImagePixelValue": 0,
      "SoftwareVersions": "syngo MR E11",
      "SpacingBetweenSlices": 1.9999999771383,
      "SpecificCharacterSet": "ISO_IR 100",
      "StudyID": "1",
      "StudyTime": "155536.619000",
      "TransmitCoilName": "Body",
      "VariableFlipAngleFlag": "N",
      "WindowCenterWidthExplanation": "Algo1",
      "dBdt": 0.0},
    "slices": {}
  },
  "time": {
    "samples": {
      "AcquisitionNumber": [1, 2, 3, 4, 5, 6, 7, 8, 9, 10, 11, 12, 13, 14, 15, 16, 17, 18, 19, 20, 21, 22, 23, 24, 25, 26, 27, 28, 29, 30, 31, 32, 33, 34, 35, 36, 37, 38, 39, 40, 41, 42, 43, 44, 45, 46, 47, 48, 49, 50, 51, 52, 53, 54, 55, 56, 57, 58, 59, 60, 61, 62, 63, 64, 65, 66, 67, 68, 69, 70, 71, 72, 73, 74, 75, 76, 77, 78, 79, 80, 81, 82, 83, 84, 85, 86, 87, 88, 89, 90, 91, 92, 93, 94, 95, 96, 97, 98, 99, 100, 101, 102, 103, 104, 105, 106, 107, 108, 109, 110, 111, 112, 113, 114, 115, 116, 117, 118, 119, 120, 121, 122, 123, 124, 125, 126, 127, 128, 129, 130, 131, 132, 133, 134, 135, 136, 137, 138, 139, 140, 141, 142, 143, 144, 145, 146, 147, 148, 149, 150, 151, 152, 153, 154, 155, 156],
      "AcquisitionTime": ["170458.875000", "170500.875000", "170502.875000", "170504.875000", "170506.875000", "170508.875000", "170510.875000", "170512.875000", "170514.875000", "170516.875000", "170518.875000", "170520.875000", "170522.875000", "170524.875000", "170526.875000", "170528.875000", "170530.875000", "170532.875000", "170534.875000", "170536.875000", "170538.875000", "170540.875000", "170542.875000", "170544.875000", "170546.875000", "170548.875000", "170550.875000", "170552.875000", "170554.875000", "170556.875000", "170558.875000", "170600.875000", "170602.875000", "170604.875000", "170606.875000", "170608.875000", "170610.875000", "170612.875000", "170614.875000", "170616.875000", "170618.875000", "170620.875000", "170622.875000", "170624.875000", "170626.875000", "170628.875000", "170630.875000", "170632.875000", "170634.875000", "170636.875000", "170638.875000", "170640.875000", "170642.875000", "170644.875000", "170646.875000", "170648.875000", "170650.875000", "170652.875000", "170654.875000", "170656.875000", "170658.875000", "170700.875000", "170702.875000", "170704.875000", "170706.875000", "170708.875000", "170710.875000", "170712.875000", "170714.875000", "170716.875000", "170718.875000", "170720.875000", "170722.875000", "170724.875000", "170726.875000", "170728.875000", "170730.875000", "170732.875000", "170734.875000", "170736.875000", "170738.875000", "170740.875000", "170742.875000", "170744.875000", "170746.875000", "170748.875000", "170750.875000", "170752.875000", "170754.875000", "170756.875000", "170758.875000", "170800.875000", "170802.875000", "170804.875000", "170806.875000", "170808.875000", "170810.875000", "170812.875000", "170814.875000", "170816.875000", "170818.875000", "170820.875000", "170822.875000", "170824.875000", "170826.875000", "170828.875000", "170830.875000", "170832.875000", "170834.875000", "170836.875000", "170838.875000", "170840.875000", "170842.875000", "170844.875000", "170846.875000", "170848.875000", "170850.875000", "170852.875000", "170854.875000", "170856.875000", "170858.875000", "170900.875000", "170902.875000", "170904.875000", "170906.875000", "170908.875000", "170910.875000", "170912.875000", "170914.875000", "170916.875000", "170918.875000", "170920.875000", "170922.875000", "170924.875000", "170926.875000", "170928.875000", "170930.875000", "170932.875000", "170934.875000", "170936.875000", "170938.875000", "170940.875000", "170942.875000", "170944.875000", "170946.875000", "170948.875000", "170950.875000", "170952.875000", "170954.875000", "170956.875000", "170958.875000", "171000.875000", "171002.875000", "171004.875000", "171006.875000", "171008.875000"],
      "ContentTime": ["170501.531000", "170503.025000", "170505.025000", "170507.025000", "170509.026000", "170511.026000", "170513.026000", "170515.026000", "170517.026000", "170519.026000", "170521.026000", "170523.026000", "170525.026000", "170527.027000", "170529.026000", "170531.027000", "170533.026000", "170535.027000", "170537.027000", "170539.026000", "170541.026000", "170543.025000", "170545.027000", "170547.027000", "170549.027000", "170551.027000", "170553.027000", "170555.026000", "170557.026000", "170559.025000", "170601.025000", "170603.026000", "170605.026000", "170607.026000", "170609.027000", "170611.027000", "170613.026000", "170615.025000", "170617.025000", "170619.026000", "170621.027000", "170623.027000", "170625.027000", "170627.026000", "170629.027000", "170631.025000", "170633.026000", "170635.025000", "170637.527000", "170639.026000", "170641.027000", "170643.027000", "170645.027000", "170647.027000", "170649.025000", "170651.026000", "170653.025000", "170655.027000", "170657.026000", "170659.026000", "170701.027000", "170703.027000", "170705.027000", "170707.026000", "170709.025000", "170711.025000", "170713.026000", "170715.026000", "170717.027000", "170719.026000", "170721.026000", "170723.026000", "170725.025000", "170727.026000", "170729.026000", "170731.027000", "170733.027000", "170735.027000", "170737.026000", "170739.027000", "170741.025000", "170743.026000", "170745.025000", "170747.026000", "170749.026000", "170751.027000", "170753.027000", "170755.027000", "170757.027000", "170759.025000", "170801.026000", "170803.025000", "170805.027000", "170807.026000", "170809.527000", "170811.027000", "170813.027000", "170815.027000", "170817.026000", "170819.025000", "170821.025000", "170823.026000", "170825.027000", "170827.027000", "170829.026000", "170831.027000", "170833.026000", "170835.026000", "170837.025000", "170839.026000", "170841.027000", "170843.027000", "170845.027000", "170847.027000", "170849.027000", "170851.025000", "170853.025000", "170855.026000", "170857.027000", "170859.027000", "170901.027000", "170903.027000", "170905.026000", "170907.027000", "170909.025000", "170911.026000", "170913.025000", "170915.027000", "170917.026000", "170919.027000", "170921.027000", "170923.027000", "170925.027000", "170927.026000", "170929.025000", "170931.026000", "170933.027000", "170935.027000", "170937.027000", "170939.027000", "170941.027000", "170943.026000", "170945.026000", "170947.026000", "170949.026000", "170951.027000", "170953.027000", "170955.027000", "170957.027000", "170959.026000", "171001.026000", "171003.026000", "171005.025000", "171007.027000", "171009.026000", "171010.868000"],
      "InstanceCreationTime": ["170501.531000", "170503.025000", "170505.025000", "170507.025000", "170509.026000", "170511.026000", "170513.026000", "170515.026000", "170517.026000", "170519.026000", "170521.026000", "170523.026000", "170525.026000", "170527.027000", "170529.026000", "170531.027000", "170533.026000", "170535.027000", "170537.027000", "170539.026000", "170541.026000", "170543.025000", "170545.027000", "170547.027000", "170549.027000", "170551.027000", "170553.027000", "170555.026000", "170557.026000", "170559.025000", "170601.025000", "170603.026000", "170605.026000", "170607.026000", "170609.027000", "170611.027000", "170613.026000", "170615.025000", "170617.025000", "170619.026000", "170621.027000", "170623.027000", "170625.027000", "170627.026000", "170629.027000", "170631.025000", "170633.026000", "170635.025000", "170637.527000", "170639.026000", "170641.027000", "170643.027000", "170645.027000", "170647.027000", "170649.025000", "170651.026000", "170653.025000", "170655.027000", "170657.026000", "170659.026000", "170701.027000", "170703.027000", "170705.027000", "170707.026000", "170709.025000", "170711.025000", "170713.026000", "170715.026000", "170717.027000", "170719.026000", "170721.026000", "170723.026000", "170725.025000", "170727.026000", "170729.026000", "170731.027000", "170733.027000", "170735.027000", "170737.026000", "170739.027000", "170741.025000", "170743.026000", "170745.025000", "170747.026000", "170749.026000", "170751.027000", "170753.027000", "170755.027000", "170757.027000", "170759.025000", "170801.026000", "170803.025000", "170805.027000", "170807.026000", "170809.527000", "170811.027000", "170813.027000", "170815.027000", "170817.026000", "170819.025000", "170821.025000", "170823.026000", "170825.027000", "170827.027000", "170829.026000", "170831.027000", "170833.026000", "170835.026000", "170837.025000", "170839.026000", "170841.027000", "170843.027000", "170845.027000", "170847.027000", "170849.027000", "170851.025000", "170853.025000", "170855.026000", "170857.027000", "170859.027000", "170901.027000", "170903.027000", "170905.026000", "170907.027000", "170909.025000", "170911.026000", "170913.025000", "170915.027000", "170917.026000", "170919.027000", "170921.027000", "170923.027000", "170925.027000", "170927.026000", "170929.025000", "170931.026000", "170933.027000", "170935.027000", "170937.027000", "170939.027000", "170941.027000", "170943.026000", "170945.026000", "170947.026000", "170949.026000", "170951.027000", "170953.027000", "170955.027000", "170957.027000", "170959.026000", "171001.026000", "171003.026000", "171005.025000", "171007.027000", "171009.026000", "171010.868000"],
      "InstanceNumber": [1, 2, 3, 4, 5, 6, 7, 8, 9, 10, 11, 12, 13, 14, 15, 16, 17, 18, 19, 20, 21, 22, 23, 24, 25, 26, 27, 28, 29, 30, 31, 32, 33, 34, 35, 36, 37, 38, 39, 40, 41, 42, 43, 44, 45, 46, 47, 48, 49, 50, 51, 52, 53, 54, 55, 56, 57, 58, 59, 60, 61, 62, 63, 64, 65, 66, 67, 68, 69, 70, 71, 72, 73, 74, 75, 76, 77, 78, 79, 80, 81, 82, 83, 84, 85, 86, 87, 88, 89, 90, 91, 92, 93, 94, 95, 96, 97, 98, 99, 100, 101, 102, 103, 104, 105, 106, 107, 108, 109, 110, 111, 112, 113, 114, 115, 116, 117, 118, 119, 120, 121, 122, 123, 124, 125, 126, 127, 128, 129, 130, 131, 132, 133, 134, 135, 136, 137, 138, 139, 140, 141, 142, 143, 144, 145, 146, 147, 148, 149, 150, 151, 152, 153, 154, 155, 156],
      "LargestImagePixelValue": [3630, 3486, 3481, 3523, 3467, 3494, 3520, 3511, 3481, 3519, 3450, 3570, 3508, 3478, 3532, 3509, 3553, 3585, 3585, 3494, 3589, 3540, 3484, 3532, 3502, 3556, 3478, 3528, 3482, 3558, 3496, 3592, 3587, 3563, 3535, 3561, 3503, 3564, 3517, 3573, 3518, 3566, 3546, 3508, 3587, 3588, 3559, 3472, 3538, 3470, 3557, 3521, 3603, 3554, 3634, 3530, 3515, 3556, 3514, 3562, 3508, 3543, 3497, 3540, 3523, 3553, 3504, 3577, 3572, 3524, 3553, 3525, 3555, 3528, 3598, 3552, 3586, 3536, 3570, 3503, 3558, 3491, 3539, 3506, 3568, 3529, 3594, 3532, 3643, 3600, 3575, 3626, 3684, 3590, 3607, 3566, 3532, 3650, 3621, 3553, 3587, 3539, 3623, 3597, 3560, 3599, 3652, 3544, 3580, 3588, 3559, 3631, 3538, 3605, 3595, 3596, 3585, 3622, 3560, 3671, 3605, 3596, 3644, 3580, 3648, 3578, 3673, 3613, 3603, 3636, 3636, 3601, 3612, 3662, 3598, 3664, 3610, 3640, 3699, 3664, 3659, 3620, 3658, 3634, 3704, 3647, 3656, 3654, 3615, 3630, 3599, 3643, 3586, 3625, 3657, 3675],
      "WindowCenter": [761.0, 760.0, 760.0, 760.0, 759.0, 760.0, 760.0, 760.0, 759.0, 760.0, 760.0, 761.0, 760.0, 759.0, 760.0, 760.0, 761.0, 761.0, 762.0, 759.0, 760.0, 761.0, 759.0, 759.0, 760.0, 760.0, 760.0, 760.0, 760.0, 761.0, 759.0, 760.0, 760.0, 762.0, 760.0, 761.0, 760.0, 760.0, 760.0, 760.0, 760.0, 760.0, 761.0, 760.0, 761.0, 761.0, 761.0, 760.0, 760.0, 760.0, 760.0, 760.0, 761.0, 760.0, 761.0, 760.0, 760.0, 761.0, 761.0, 761.0, 761.0, 761.0, 761.0, 761.0, 761.0, 760.0, 760.0, 760.0, 762.0, 761.0, 762.0, 761.0, 762.0, 761.0, 762.0, 761.0, 761.0, 761.0, 761.0, 760.0, 761.0, 760.0, 760.0, 760.0, 762.0, 761.0, 762.0, 761.0, 763.0, 762.0, 761.0, 761.0, 763.0, 762.0, 761.0, 761.0, 760.0, 761.0, 762.0, 760.0, 761.0, 761.0, 761.0, 761.0, 760.0, 761.0, 763.0, 762.0, 760.0, 761.0, 761.0, 762.0, 760.0, 761.0, 760.0, 761.0, 761.0, 761.0, 761.0, 762.0, 762.0, 761.0, 762.0, 761.0, 762.0, 761.0, 761.0, 761.0, 761.0, 761.0, 762.0, 762.0, 761.0, 762.0, 761.0, 764.0, 762.0, 760.0, 762.0, 763.0, 763.0, 762.0, 762.0, 763.0, 763.0, 762.0, 762.0, 762.0, 762.0, 762.0, 761.0, 762.0, 762.0, 761.0, 763.0, 763.0],
      "WindowWidth": [1665.0, 1660.0, 1659.0, 1660.0, 1659.0, 1659.0, 1661.0, 1660.0, 1659.0, 1660.0, 1660.0, 1662.0, 1661.0, 1658.0, 1660.0, 1660.0, 1663.0, 1663.0, 1665.0, 1658.0, 1660.0, 1663.0, 1657.0, 1659.0, 1660.0, 1661.0, 1660.0, 1661.0, 1661.0, 1663.0, 1659.0, 1661.0, 1662.0, 1665.0, 1662.0, 1663.0, 1659.0, 1661.0, 1660.0, 1661.0, 1661.0, 1662.0, 1663.0, 1660.0, 1662.0, 1663.0, 1664.0, 1661.0, 1662.0, 1661.0, 1661.0, 1660.0, 1662.0, 1662.0, 1663.0, 1662.0, 1661.0, 1662.0, 1662.0, 1664.0, 1664.0, 1664.0, 1664.0, 1663.0, 1663.0, 1661.0, 1661.0, 1661.0, 1665.0, 1663.0, 1665.0, 1662.0, 1664.0, 1663.0, 1665.0, 1663.0, 1663.0, 1663.0, 1663.0, 1661.0, 1664.0, 1662.0, 1661.0, 1661.0, 1665.0, 1664.0, 1667.0, 1664.0, 1669.0, 1666.0, 1662.0, 1663.0, 1668.0, 1665.0, 1664.0, 1663.0, 1662.0, 1663.0, 1666.0, 1661.0, 1663.0, 1663.0, 1664.0, 1663.0, 1660.0, 1663.0, 1668.0, 1665.0, 1662.0, 1664.0, 1663.0, 1665.0, 1662.0, 1662.0, 1662.0, 1663.0, 1663.0, 1664.0, 1664.0, 1666.0, 1667.0, 1665.0, 1667.0, 1663.0, 1665.0, 1664.0, 1665.0, 1665.0, 1663.0, 1664.0, 1667.0, 1667.0, 1664.0, 1666.0, 1665.0, 1671.0, 1666.0, 1661.0, 1666.0, 1668.0, 1669.0, 1666.0, 1666.0, 1669.0, 1670.0, 1668.0, 1667.0, 1667.0, 1666.0, 1666.0, 1664.0, 1665.0, 1665.0, 1665.0, 1668.0, 1669.0]
    },
    "slices": {}
  }
}