{
  "AcquisitionMatrixPE": 100,
  "AcquisitionNumber": 1,
  "AcquisitionTime": "16:22:22.382500",
  "BandwidthPerPixelPhaseEncode": 18.519,
  "BaseResolution": 100,
  "BodyPartExamined": "BRAIN",
  "CoilCombinationMethod": "Sum of Squares",
  "ConsistencyInfo": "N4_VE11C_LATEST_20160120",
  "ConversionSoftware": "dcm2niix",
  "ConversionSoftwareVersion": "v1.0.20211006",
  "DerivedVendorReportedEchoSpacing": 0.000539986,
  "DeviceSerialNumber": "166078",
  "DwellTime": 2.1e-06,
  "EchoTime": 0.034,
  "EchoTrainLength": 100,
  "EffectiveEchoSpacing": 0.000539986,
  "FlipAngle": 90,
  "ImageOrientationPatientDICOM": [0.999997, -0.000482849, -0.0021962, 1.0027e-08, 0.976675, -0.214724],
  "ImageOrientationText": "Tra>Cor(-12.4)>Sag(-0.1)",
  "ImageType": [
    "ORIGINAL",
    "PRIMARY",
    "M",
    "ND",
    "MOSAIC"
],
  "ImagingFrequency": 123.258,
  "InPlanePhaseEncodingDirectionDICOM": "COL",
  "InstitutionAddress": "Street StreetNo,Bei Jing,District,CN,ZIP",
  "InstitutionName": "BeiJing Normal University",
  "InstitutionalDepartmentName": "Department",
  "MRAcquisitionType": "2D",
  "MagneticFieldStrength": 3,
  "Manufacturer": "Siemens",
  "ManufacturersModelName": "Prisma",
  "Modality": "MR",
  "MultibandAccelerationFactor": 3,
  "PartialFourier": 1,
  "PatientPosition": "HFS",
  "PercentPhaseFOV": 100,
  "PercentSampling": 100,
  "PhaseEncodingDirection": "j-",
  "PhaseEncodingSteps": 100,
  "PhaseResolution": 1,
  "PixelBandwidth": 2380,
  "ProcedureStepDescription": "BNU_P2018_64CH^Zhen.ZongLei",
  "ProtocolName": "bold_100x100_s3_2x2x2_static_156",
  "PulseSequenceDetails": "%SiemensSeq%\\ep2d_bold",
  "ReceiveCoilActiveElements": "HC1-7;NC1",
  "ReceiveCoilName": "HeadNeck_64",
  "ReconMatrixPE": 100,
  "RefLinesPE": 32,
  "RepetitionTime": 2,
  "SAR": 0.0846961,
  "ScanOptions": "FS",
  "ScanningSequence": "EP",
  "SequenceName": "*epfid2d1_100",
  "SequenceVariant": "SK",
  "SeriesDescription": "bold_100x100_s3_2x2x2_static_156",
  "SeriesNumber": 7,
  "ShimSetting": [-5469, -11538, -1312, 329, -3, -519, -139, 90],
  "SliceThickness": 2,
  "SliceTiming": [1.485, 0, 0.99, 0.0825, 1.0725, 0.165, 1.155, 0.2475, 1.2375, 0.33, 1.32, 0.4125, 1.4025, 0.5775, 1.5675, 0.66, 1.65, 0.7425, 1.7325, 0.825, 1.815, 0.9075, 1.8975, 0.495, 1.485, 0, 0.99, 0.0825, 1.0725, 0.165, 1.155, 0.2475, 1.2375, 0.33, 1.32, 0.4125, 1.4025, 0.5775, 1.5675, 0.66, 1.65, 0.7425, 1.7325, 0.825, 1.815, 0.9075, 1.8975, 0.495, 1.485, 0, 0.99, 0.0825, 1.0725, 0.165, 1.155, 0.2475, 1.2375, 0.33, 1.32, 0.4125, 1.4025, 0.5775, 1.5675, 0.66, 1.65, 0.7425, 1.7325, 0.825, 1.815, 0.9075, 1.8975, 0.495],
  "SoftwareVersions": "syngo MR E11",
  "SpacingBetweenSlices": 2,
  "StationName": "AWP166078",
  "TaskName": "action",
  "TotalReadoutTime": 0.0534586,
  "TxRefAmp": 227.228,
  "dcmmeta_affine": [
    [-1.9999949932098389, 2.00539673755884e-08, -0.004497302230447531, 104.92462921142578],
    [0.0009656987385824323, 1.9533494710922241, -0.42944708466529846, -76.11588287353516],
    [-0.004392397124320269, 0.4294481873512268, 1.9533445835113525, -87.68138122558594],
    [0.0, 0.0, 0.0, 1.0]
],
  "dcmmeta_reorient_transform": [
    [0.0, -1.0, 0.0, 99.0],
    [1.0, 0.0, 0.0, 0.0],
    [0.0, 0.0, 1.0, 0.0],
    [0.0, 0.0, 0.0, 1.0]
],
  "dcmmeta_shape": [100, 100, 72, 156],
  "dcmmeta_slice_dim": 2,
  "dcmmeta_version": 0.6,
  "global": {
    "const": {
      "AcquisitionMatrix": [100, 0, 0, 100],
      "AngioFlag": "N",
      "BitsAllocated": 16,
      "BitsStored": 12,
      "BodyPartExamined": "BRAIN",
      "Columns": 900,
      "EchoNumbers": 1,
      "EchoTime": 34.0,
      "EchoTrainLength": 100,
      "FlipAngle": 90.0,
      "HighBit": 11,
      "ImageOrientationPatient": [0.99999747178083, -0.0004828493671, -0.0021961986344, 1.0026984e-08, 0.97667474852184, -0.2147240918011],
      "ImagePositionPatient": [-904.92261651583, -898.21923557598, 128.37022153599],
      "ImageType": [
        "ORIGINAL",
        "PRIMARY",
        "M",
        "ND",
        "MOSAIC"
],
      "ImagedNucleus": "1H",
      "ImagingFrequency": 123.25771,
      "InPlanePhaseEncodingDirection": "COL",
      "MRAcquisitionType": "2D",
      "MagneticFieldStrength": 3.0,
      "Manufacturer": "SIEMENS",
      "ManufacturerModelName": "Prisma",
      "Modality": "MR",
      "NumberOfAverages": 1.0,
      "NumberOfPhaseEncodingSteps": 100,
      "PercentPhaseFieldOfView": 100.0,
      "PercentSampling": 100.0,
      "PerformedProcedureStepStartTime": "155536.703000",
      "PhotometricInterpretation": "MONOCHROME2",
      "PixelBandwidth": 2380.0,
      "PixelRepresentation": 0,
      "PixelSpacing": [2.0, 2.0],
      "ProtocolName": "bold_100x100_s3_2x2x2_static_156",
      "RepetitionTime": 2000.0,
      "Rows": 900,
      "SAR": 0.08469609050595,
      "SamplesPerPixel": 1,
      "ScanOptions": "FS",
      "ScanningSequence": "EP",
      "SequenceName": "*epfid2d1_100",
      "SequenceVariant": "SK",
      "SeriesDescription": "bold_100x100_s3_2x2x2_static_156",
      "SeriesNumber": 7,
      "SeriesTime": "162224.437000",
      "SliceLocation": -69.528040376514,
      "SliceThickness": 2.0,
      "SmallestImagePixelValue": 0,
      "SoftwareVersions": "syngo MR E11",
      "SpacingBetweenSlices": 1.9999999771383,
      "SpecificCharacterSet": "ISO_IR 100",
      "StudyID": "1",
      "StudyTime": "155536.619000",
      "TransmitCoilName": "Body",
      "VariableFlipAngleFlag": "N",
      "WindowCenterWidthExplanation": "Algo1",
      "dBdt": 0.0},
    "slices": {}
  },
  "time": {
    "samples": {
      "AcquisitionNumber": [1, 2, 3, 4, 5, 6, 7, 8, 9, 10, 11, 12, 13, 14, 15, 16, 17, 18, 19, 20, 21, 22, 23, 24, 25, 26, 27, 28, 29, 30, 31, 32, 33, 34, 35, 36, 37, 38, 39, 40, 41, 42, 43, 44, 45, 46, 47, 48, 49, 50, 51, 52, 53, 54, 55, 56, 57, 58, 59, 60, 61, 62, 63, 64, 65, 66, 67, 68, 69, 70, 71, 72, 73, 74, 75, 76, 77, 78, 79, 80, 81, 82, 83, 84, 85, 86, 87, 88, 89, 90, 91, 92, 93, 94, 95, 96, 97, 98, 99, 100, 101, 102, 103, 104, 105, 106, 107, 108, 109, 110, 111, 112, 113, 114, 115, 116, 117, 118, 119, 120, 121, 122, 123, 124, 125, 126, 127, 128, 129, 130, 131, 132, 133, 134, 135, 136, 137, 138, 139, 140, 141, 142, 143, 144, 145, 146, 147, 148, 149, 150, 151, 152, 153, 154, 155, 156],
      "AcquisitionTime": ["162222.382500", "162224.382500", "162226.382500", "162228.382500", "162230.382500", "162232.382500", "162234.382500", "162236.382500", "162238.382500", "162240.382500", "162242.382500", "162244.382500", "162246.382500", "162248.382500", "162250.382500", "162252.382500", "162254.382500", "162256.382500", "162258.382500", "162300.382500", "162302.382500", "162304.382500", "162306.382500", "162308.382500", "162310.382500", "162312.382500", "162314.382500", "162316.382500", "162318.382500", "162320.382500", "162322.382500", "162324.382500", "162326.382500", "162328.382500", "162330.382500", "162332.382500", "162334.382500", "162336.382500", "162338.382500", "162340.382500", "162342.382500", "162344.382500", "162346.382500", "162348.382500", "162350.382500", "162352.382500", "162354.382500", "162356.382500", "162358.382500", "162400.382500", "162402.382500", "162404.382500", "162406.382500", "162408.382500", "162410.382500", "162412.382500", "162414.382500", "162416.382500", "162418.382500", "162420.382500", "162422.382500", "162424.382500", "162426.382500", "162428.382500", "162430.382500", "162432.382500", "162434.382500", "162436.382500", "162438.382500", "162440.382500", "162442.382500", "162444.382500", "162446.382500", "162448.382500", "162450.382500", "162452.382500", "162454.382500", "162456.382500", "162458.382500", "162500.382500", "162502.382500", "162504.382500", "162506.382500", "162508.382500", "162510.382500", "162512.382500", "162514.382500", "162516.382500", "162518.382500", "162520.382500", "162522.382500", "162524.382500", "162526.382500", "162528.382500", "162530.382500", "162532.382500", "162534.382500", "162536.382500", "162538.382500", "162540.382500", "162542.382500", "162544.382500", "162546.382500", "162548.382500", "162550.382500", "162552.382500", "162554.382500", "162556.382500", "162558.382500", "162600.382500", "162602.382500", "162604.382500", "162606.382500", "162608.382500", "162610.382500", "162612.382500", "162614.382500", "162616.382500", "162618.382500", "162620.382500", "162622.382500", "162624.382500", "162626.382500", "162628.382500", "162630.382500", "162632.382500", "162634.382500", "162636.382500", "162638.382500", "162640.382500", "162642.382500", "162644.382500", "162646.382500", "162648.382500", "162650.382500", "162652.382500", "162654.382500", "162656.382500", "162658.382500", "162700.382500", "162702.382500", "162704.382500", "162706.382500", "162708.382500", "162710.382500", "162712.382500", "162714.382500", "162716.382500", "162718.382500", "162720.382500", "162722.382500", "162724.382500", "162726.382500", "162728.382500", "162730.382500", "162732.382500"],
      "ContentTime": ["162224.440000", "162225.936000", "162227.935000", "162229.936000", "162231.934000", "162233.934000", "162235.935000", "162237.935000", "162239.936000", "162241.935000", "162243.935000", "162245.936000", "162247.935000", "162249.934000", "162251.934000", "162253.934000", "162255.935000", "162257.935000", "162259.935000", "162301.936000", "162303.935000", "162305.935000", "162307.934000", "162309.934000", "162311.935000", "162313.936000", "162315.935000", "162317.935000", "162319.935000", "162321.936000", "162323.936000", "162325.935000", "162327.935000", "162329.935000", "162331.935000", "162333.936000", "162335.935000", "162337.936000", "162339.935000", "162341.934000", "162343.934000", "162345.934000", "162347.935000", "162349.936000", "162351.935000", "162353.936000", "162355.935000", "162357.936000", "162359.934000", "162401.934000", "162403.934000", "162405.936000", "162407.936000", "162409.935000", "162411.936000", "162413.936000", "162415.936000", "162417.934000", "162419.934000", "162421.935000", "162423.935000", "162426.436000", "162427.935000", "162429.936000", "162431.935000", "162433.936000", "162435.934000", "162437.935000", "162439.935000", "162441.935000", "162443.935000", "162445.936000", "162447.935000", "162449.936000", "162451.935000", "162453.935000", "162455.934000", "162457.936000", "162459.935000", "162501.936000", "162503.936000", "162505.935000", "162507.936000", "162509.934000", "162511.934000", "162513.935000", "162515.935000", "162517.936000", "162519.936000", "162521.935000", "162523.935000", "162525.935000", "162527.934000", "162529.934000", "162531.936000", "162533.936000", "162535.935000", "162537.935000", "162539.936000", "162541.936000", "162543.935000", "162545.935000", "162547.934000", "162549.936000", "162551.935000", "162553.936000", "162555.935000", "162557.935000", "162559.936000", "162601.935000", "162603.934000", "162605.934000", "162607.936000", "162609.935000", "162611.936000", "162613.936000", "162615.936000", "162617.936000", "162619.934000", "162621.934000", "162623.935000", "162625.936000", "162627.936000", "162629.936000", "162631.935000", "162633.936000", "162635.936000", "162637.934000", "162639.934000", "162641.936000", "162643.936000", "162645.936000", "162648.435000", "162649.935000", "162651.936000", "162653.935000", "162655.935000", "162657.935000", "162659.935000", "162701.935000", "162703.936000", "162705.936000", "162707.936000", "162709.936000", "162711.934000", "162713.934000", "162715.935000", "162717.935000", "162719.935000", "162721.936000", "162723.935000", "162725.936000", "162727.936000", "162729.935000", "162731.934000", "162733.806000"],
      "InstanceCreationTime": ["162224.440000", "162225.936000", "162227.935000", "162229.936000", "162231.934000", "162233.934000", "162235.935000", "162237.935000", "162239.936000", "162241.935000", "162243.935000", "162245.936000", "162247.935000", "162249.934000", "162251.934000", "162253.934000", "162255.935000", "162257.935000", "162259.935000", "162301.936000", "162303.935000", "162305.935000", "162307.934000", "162309.934000", "162311.935000", "162313.936000", "162315.935000", "162317.935000", "162319.935000", "162321.936000", "162323.936000", "162325.935000", "162327.935000", "162329.935000", "162331.935000", "162333.936000", "162335.935000", "162337.936000", "162339.935000", "162341.934000", "162343.934000", "162345.934000", "162347.935000", "162349.936000", "162351.935000", "162353.936000", "162355.935000", "162357.936000", "162359.934000", "162401.934000", "162403.934000", "162405.936000", "162407.936000", "162409.935000", "162411.936000", "162413.936000", "162415.936000", "162417.934000", "162419.934000", "162421.935000", "162423.935000", "162426.436000", "162427.935000", "162429.936000", "162431.935000", "162433.936000", "162435.934000", "162437.935000", "162439.935000", "162441.935000", "162443.935000", "162445.936000", "162447.935000", "162449.936000", "162451.935000", "162453.935000", "162455.934000", "162457.936000", "162459.935000", "162501.936000", "162503.936000", "162505.935000", "162507.936000", "162509.934000", "162511.934000", "162513.935000", "162515.935000", "162517.936000", "162519.936000", "162521.935000", "162523.935000", "162525.935000", "162527.934000", "162529.934000", "162531.936000", "162533.936000", "162535.935000", "162537.935000", "162539.936000", "162541.936000", "162543.935000", "162545.935000", "162547.934000", "162549.936000", "162551.935000", "162553.936000", "162555.935000", "162557.935000", "162559.936000", "162601.935000", "162603.934000", "162605.934000", "162607.936000", "162609.935000", "162611.936000", "162613.936000", "162615.936000", "162617.936000", "162619.934000", "162621.934000", "162623.935000", "162625.936000", "162627.936000", "162629.936000", "162631.935000", "162633.936000", "162635.936000", "162637.934000", "162639.934000", "162641.936000", "162643.936000", "162645.936000", "162648.435000", "162649.935000", "162651.936000", "162653.935000", "162655.935000", "162657.935000", "162659.935000", "162701.935000", "162703.936000", "162705.936000", "162707.936000", "162709.936000", "162711.934000", "162713.934000", "162715.935000", "162717.935000", "162719.935000", "162721.936000", "162723.935000", "162725.936000", "162727.936000", "162729.935000", "162731.934000", "162733.806000"],
      "InstanceNumber": [1, 2, 3, 4, 5, 6, 7, 8, 9, 10, 11, 12, 13, 14, 15, 16, 17, 18, 19, 20, 21, 22, 23, 24, 25, 26, 27, 28, 29, 30, 31, 32, 33, 34, 35, 36, 37, 38, 39, 40, 41, 42, 43, 44, 45, 46, 47, 48, 49, 50, 51, 52, 53, 54, 55, 56, 57, 58, 59, 60, 61, 62, 63, 64, 65, 66, 67, 68, 69, 70, 71, 72, 73, 74, 75, 76, 77, 78, 79, 80, 81, 82, 83, 84, 85, 86, 87, 88, 89, 90, 91, 92, 93, 94, 95, 96, 97, 98, 99, 100, 101, 102, 103, 104, 105, 106, 107, 108, 109, 110, 111, 112, 113, 114, 115, 116, 117, 118, 119, 120, 121, 122, 123, 124, 125, 126, 127, 128, 129, 130, 131, 132, 133, 134, 135, 136, 137, 138, 139, 140, 141, 142, 143, 144, 145, 146, 147, 148, 149, 150, 151, 152, 153, 154, 155, 156],
      "LargestImagePixelValue": [3698, 3651, 3612, 3574, 3562, 3566, 3588, 3578, 3580, 3610, 3604, 3571, 3573, 3575, 3571, 3589, 3594, 3574, 3553, 3556, 3589, 3578, 3586, 3548, 3563, 3569, 3571, 3589, 3580, 3597, 3596, 3575, 3592, 3603, 3590, 3608, 3547, 3585, 3568, 3595, 3591, 3560, 3576, 3577, 3569, 3606, 3605, 3581, 3576, 3598, 3621, 3562, 3570, 3579, 3633, 3566, 3607, 3604, 3553, 3596, 3575, 3610, 3588, 3580, 3560, 3587, 3573, 3597, 3589, 3548, 3611, 3580, 3573, 3557, 3613, 3576, 3578, 3570, 3595, 3572, 3580, 3614, 3561, 3578, 3577, 3596, 3578, 3570, 3559, 3570, 3567, 3593, 3580, 3554, 3584, 3570, 3579, 3591, 3531, 3566, 3557, 3576, 3599, 3594, 3594, 3558, 3583, 3578, 3583, 3602, 3569, 3556, 3553, 3571, 3550, 3578, 3582, 3604, 3619, 3580, 3567, 3597, 3588, 3585, 3574, 3531, 3585, 3571, 3586, 3587, 3579, 3538, 3557, 3570, 3590, 3572, 3591, 3605, 3576, 3592, 3568, 3598, 3604, 3564, 3580, 3594, 3619, 3535, 3568, 3561, 3601, 3557, 3597, 3561, 3585, 3535],
      "WindowCenter": [755.0, 755.0, 754.0, 753.0, 753.0, 753.0, 753.0, 753.0, 754.0, 754.0, 753.0, 753.0, 752.0, 753.0, 753.0, 753.0, 753.0, 753.0, 752.0, 752.0, 753.0, 753.0, 753.0, 753.0, 752.0, 752.0, 753.0, 753.0, 753.0, 752.0, 752.0, 752.0, 752.0, 752.0, 753.0, 753.0, 752.0, 753.0, 753.0, 753.0, 753.0, 752.0, 752.0, 752.0, 753.0, 753.0, 753.0, 753.0, 753.0, 753.0, 753.0, 752.0, 752.0, 752.0, 752.0, 752.0, 752.0, 752.0, 752.0, 752.0, 752.0, 753.0, 752.0, 752.0, 752.0, 753.0, 753.0, 753.0, 753.0, 753.0, 753.0, 753.0, 753.0, 753.0, 753.0, 753.0, 753.0, 753.0, 753.0, 752.0, 752.0, 754.0, 753.0, 752.0, 752.0, 753.0, 752.0, 752.0, 752.0, 752.0, 752.0, 753.0, 752.0, 752.0, 752.0, 753.0, 753.0, 753.0, 753.0, 753.0, 753.0, 753.0, 753.0, 753.0, 753.0, 752.0, 753.0, 752.0, 753.0, 753.0, 753.0, 753.0, 753.0, 752.0, 752.0, 752.0, 752.0, 753.0, 753.0, 753.0, 752.0, 752.0, 752.0, 752.0, 753.0, 752.0, 753.0, 753.0, 753.0, 753.0, 754.0, 753.0, 753.0, 753.0, 754.0, 753.0, 754.0, 753.0, 753.0, 753.0, 754.0, 754.0, 753.0, 753.0, 754.0, 754.0, 754.0, 753.0, 754.0, 754.0, 754.0, 754.0, 754.0, 754.0, 754.0, 754.0],
      "WindowWidth": [1650.0, 1647.0, 1645.0, 1643.0, 1642.0, 1642.0, 1642.0, 1643.0, 1644.0, 1645.0, 1643.0, 1641.0, 1640.0, 1642.0, 1641.0, 1642.0, 1643.0, 1643.0, 1639.0, 1639.0, 1642.0, 1641.0, 1642.0, 1641.0, 1641.0, 1640.0, 1641.0, 1642.0, 1641.0, 1640.0, 1639.0, 1640.0, 1640.0, 1639.0, 1642.0, 1642.0, 1641.0, 1642.0, 1641.0, 1642.0, 1641.0, 1640.0, 1639.0, 1640.0, 1641.0, 1642.0, 1642.0, 1641.0, 1641.0, 1642.0, 1641.0, 1640.0, 1639.0, 1640.0, 1641.0, 1639.0, 1641.0, 1641.0, 1640.0, 1641.0, 1640.0, 1641.0, 1640.0, 1640.0, 1639.0, 1641.0, 1641.0, 1642.0, 1642.0, 1642.0, 1643.0, 1642.0, 1643.0, 1642.0, 1643.0, 1641.0, 1643.0, 1642.0, 1642.0, 1640.0, 1639.0, 1644.0, 1641.0, 1640.0, 1641.0, 1642.0, 1640.0, 1639.0, 1640.0, 1640.0, 1639.0, 1641.0, 1638.0, 1638.0, 1640.0, 1642.0, 1643.0, 1643.0, 1642.0, 1642.0, 1642.0, 1641.0, 1641.0, 1641.0, 1642.0, 1640.0, 1641.0, 1639.0, 1642.0, 1642.0, 1643.0, 1643.0, 1642.0, 1640.0, 1638.0, 1640.0, 1640.0, 1642.0, 1643.0, 1642.0, 1639.0, 1640.0, 1639.0, 1640.0, 1641.0, 1640.0, 1641.0, 1641.0, 1642.0, 1642.0, 1644.0, 1642.0, 1643.0, 1642.0, 1644.0, 1643.0, 1644.0, 1642.0, 1641.0, 1643.0, 1643.0, 1644.0, 1643.0, 1643.0, 1644.0, 1645.0, 1645.0, 1643.0, 1644.0, 1644.0, 1644.0, 1643.0, 1644.0, 1644.0, 1644.0, 1644.0]
    },
    "slices": {}
  }
}