{
  "AcquisitionMatrixPE": 100,
  "AcquisitionNumber": 1,
  "AcquisitionTime": "16:16:25.205000",
  "BandwidthPerPixelPhaseEncode": 18.519,
  "BaseResolution": 100,
  "BodyPartExamined": "BRAIN",
  "CoilCombinationMethod": "Sum of Squares",
  "ConsistencyInfo": "N4_VE11C_LATEST_20160120",
  "ConversionSoftware": "dcm2niix",
  "ConversionSoftwareVersion": "v1.0.20211006",
  "DerivedVendorReportedEchoSpacing": 0.000539986,
  "DeviceSerialNumber": "166078",
  "DwellTime": 2.1e-06,
  "EchoTime": 0.034,
  "EchoTrainLength": 100,
  "EffectiveEchoSpacing": 0.000539986,
  "FlipAngle": 90,
  "ImageOrientationPatientDICOM": [0.999997, -0.000482849, -0.0021962, 1.0027e-08, 0.976675, -0.214724],
  "ImageOrientationText": "Tra>Cor(-12.4)>Sag(-0.1)",
  "ImageType": [
    "ORIGINAL",
    "PRIMARY",
    "M",
    "ND",
    "MOSAIC"
],
  "ImagingFrequency": 123.258,
  "InPlanePhaseEncodingDirectionDICOM": "COL",
  "InstitutionAddress": "Street StreetNo,Bei Jing,District,CN,ZIP",
  "InstitutionName": "BeiJing Normal University",
  "InstitutionalDepartmentName": "Department",
  "MRAcquisitionType": "2D",
  "MagneticFieldStrength": 3,
  "Manufacturer": "Siemens",
  "ManufacturersModelName": "Prisma",
  "Modality": "MR",
  "MultibandAccelerationFactor": 3,
  "PartialFourier": 1,
  "PatientPosition": "HFS",
  "PercentPhaseFOV": 100,
  "PercentSampling": 100,
  "PhaseEncodingDirection": "j-",
  "PhaseEncodingSteps": 100,
  "PhaseResolution": 1,
  "PixelBandwidth": 2380,
  "ProcedureStepDescription": "BNU_P2018_64CH^Zhen.ZongLei",
  "ProtocolName": "bold_100x100_s3_2x2x2_static_156",
  "PulseSequenceDetails": "%SiemensSeq%\\ep2d_bold",
  "ReceiveCoilActiveElements": "HC1-7;NC1",
  "ReceiveCoilName": "HeadNeck_64",
  "ReconMatrixPE": 100,
  "RefLinesPE": 32,
  "RepetitionTime": 2,
  "SAR": 0.0846961,
  "ScanOptions": "FS",
  "ScanningSequence": "EP",
  "SequenceName": "*epfid2d1_100",
  "SequenceVariant": "SK",
  "SeriesDescription": "bold_100x100_s3_2x2x2_static_156",
  "SeriesNumber": 6,
  "ShimSetting": [-5469, -11538, -1312, 329, -3, -519, -139, 90],
  "SliceThickness": 2,
  "SliceTiming": [1.485, 0, 0.99, 0.0825, 1.0725, 0.165, 1.155, 0.2475, 1.2375, 0.33, 1.32, 0.4125, 1.4025, 0.5775, 1.5675, 0.66, 1.65, 0.7425, 1.7325, 0.825, 1.815, 0.9075, 1.8975, 0.495, 1.485, 0, 0.99, 0.0825, 1.0725, 0.165, 1.155, 0.2475, 1.2375, 0.33, 1.32, 0.4125, 1.4025, 0.5775, 1.5675, 0.66, 1.65, 0.7425, 1.7325, 0.825, 1.815, 0.9075, 1.8975, 0.495, 1.485, 0, 0.99, 0.0825, 1.0725, 0.165, 1.155, 0.2475, 1.2375, 0.33, 1.32, 0.4125, 1.4025, 0.5775, 1.5675, 0.66, 1.65, 0.7425, 1.7325, 0.825, 1.815, 0.9075, 1.8975, 0.495],
  "SoftwareVersions": "syngo MR E11",
  "SpacingBetweenSlices": 2,
  "StationName": "AWP166078",
  "TaskName": "action",
  "TotalReadoutTime": 0.0534586,
  "TxRefAmp": 227.228,
  "dcmmeta_affine": [
    [-1.9999949932098389, 2.00539673755884e-08, -0.004497302230447531, 104.92462921142578],
    [0.0009656987385824323, 1.9533494710922241, -0.42944708466529846, -76.11588287353516],
    [-0.004392397124320269, 0.4294481873512268, 1.9533445835113525, -87.68138122558594],
    [0.0, 0.0, 0.0, 1.0]
],
  "dcmmeta_reorient_transform": [
    [0.0, -1.0, 0.0, 99.0],
    [1.0, 0.0, 0.0, 0.0],
    [0.0, 0.0, 1.0, 0.0],
    [0.0, 0.0, 0.0, 1.0]
],
  "dcmmeta_shape": [100, 100, 72, 156],
  "dcmmeta_slice_dim": 2,
  "dcmmeta_version": 0.6,
  "global": {
    "const": {
      "AcquisitionMatrix": [100, 0, 0, 100],
      "AngioFlag": "N",
      "BitsAllocated": 16,
      "BitsStored": 12,
      "BodyPartExamined": "BRAIN",
      "Columns": 900,
      "EchoNumbers": 1,
      "EchoTime": 34.0,
      "EchoTrainLength": 100,
      "FlipAngle": 90.0,
      "HighBit": 11,
      "ImageOrientationPatient": [0.99999747178083, -0.0004828493671, -0.0021961986344, 1.0026984e-08, 0.97667474852184, -0.2147240918011],
      "ImagePositionPatient": [-904.92261651583, -898.21923557598, 128.37022153599],
      "ImageType": [
        "ORIGINAL",
        "PRIMARY",
        "M",
        "ND",
        "MOSAIC"
],
      "ImagedNucleus": "1H",
      "ImagingFrequency": 123.257709,
      "InPlanePhaseEncodingDirection": "COL",
      "MRAcquisitionType": "2D",
      "MagneticFieldStrength": 3.0,
      "Manufacturer": "SIEMENS",
      "ManufacturerModelName": "Prisma",
      "Modality": "MR",
      "NumberOfAverages": 1.0,
      "NumberOfPhaseEncodingSteps": 100,
      "PercentPhaseFieldOfView": 100.0,
      "PercentSampling": 100.0,
      "PerformedProcedureStepStartTime": "155536.703000",
      "PhotometricInterpretation": "MONOCHROME2",
      "PixelBandwidth": 2380.0,
      "PixelRepresentation": 0,
      "PixelSpacing": [2.0, 2.0],
      "ProtocolName": "bold_100x100_s3_2x2x2_static_156",
      "RepetitionTime": 2000.0,
      "Rows": 900,
      "SAR": 0.08469609050595,
      "SamplesPerPixel": 1,
      "ScanOptions": "FS",
      "ScanningSequence": "EP",
      "SequenceName": "*epfid2d1_100",
      "SequenceVariant": "SK",
      "SeriesDescription": "bold_100x100_s3_2x2x2_static_156",
      "SeriesNumber": 6,
      "SeriesTime": "161627.960000",
      "SliceLocation": -69.528040376514,
      "SliceThickness": 2.0,
      "SmallestImagePixelValue": 0,
      "SoftwareVersions": "syngo MR E11",
      "SpacingBetweenSlices": 1.9999999771383,
      "SpecificCharacterSet": "ISO_IR 100",
      "StudyID": "1",
      "StudyTime": "155536.619000",
      "TransmitCoilName": "Body",
      "VariableFlipAngleFlag": "N",
      "WindowCenterWidthExplanation": "Algo1",
      "dBdt": 0.0},
    "slices": {}
  },
  "time": {
    "samples": {
      "AcquisitionNumber": [1, 2, 3, 4, 5, 6, 7, 8, 9, 10, 11, 12, 13, 14, 15, 16, 17, 18, 19, 20, 21, 22, 23, 24, 25, 26, 27, 28, 29, 30, 31, 32, 33, 34, 35, 36, 37, 38, 39, 40, 41, 42, 43, 44, 45, 46, 47, 48, 49, 50, 51, 52, 53, 54, 55, 56, 57, 58, 59, 60, 61, 62, 63, 64, 65, 66, 67, 68, 69, 70, 71, 72, 73, 74, 75, 76, 77, 78, 79, 80, 81, 82, 83, 84, 85, 86, 87, 88, 89, 90, 91, 92, 93, 94, 95, 96, 97, 98, 99, 100, 101, 102, 103, 104, 105, 106, 107, 108, 109, 110, 111, 112, 113, 114, 115, 116, 117, 118, 119, 120, 121, 122, 123, 124, 125, 126, 127, 128, 129, 130, 131, 132, 133, 134, 135, 136, 137, 138, 139, 140, 141, 142, 143, 144, 145, 146, 147, 148, 149, 150, 151, 152, 153, 154, 155, 156],
      "AcquisitionTime": ["161625.205000", "161627.205000", "161629.205000", "161631.205000", "161633.205000", "161635.205000", "161637.205000", "161639.205000", "161641.205000", "161643.205000", "161645.205000", "161647.205000", "161649.205000", "161651.205000", "161653.205000", "161655.205000", "161657.205000", "161659.205000", "161701.205000", "161703.205000", "161705.205000", "161707.205000", "161709.205000", "161711.205000", "161713.205000", "161715.205000", "161717.205000", "161719.205000", "161721.205000", "161723.205000", "161725.205000", "161727.205000", "161729.205000", "161731.205000", "161733.205000", "161735.205000", "161737.205000", "161739.205000", "161741.205000", "161743.205000", "161745.205000", "161747.205000", "161749.205000", "161751.205000", "161753.205000", "161755.205000", "161757.205000", "161759.205000", "161801.205000", "161803.205000", "161805.205000", "161807.205000", "161809.205000", "161811.205000", "161813.205000", "161815.205000", "161817.205000", "161819.205000", "161821.205000", "161823.205000", "161825.205000", "161827.205000", "161829.205000", "161831.205000", "161833.205000", "161835.205000", "161837.205000", "161839.205000", "161841.205000", "161843.205000", "161845.205000", "161847.205000", "161849.205000", "161851.205000", "161853.205000", "161855.205000", "161857.205000", "161859.205000", "161901.205000", "161903.205000", "161905.205000", "161907.205000", "161909.205000", "161911.205000", "161913.205000", "161915.205000", "161917.205000", "161919.205000", "161921.205000", "161923.205000", "161925.205000", "161927.205000", "161929.205000", "161931.205000", "161933.205000", "161935.205000", "161937.205000", "161939.205000", "161941.205000", "161943.205000", "161945.205000", "161947.205000", "161949.205000", "161951.205000", "161953.205000", "161955.205000", "161957.205000", "161959.205000", "162001.205000", "162003.205000", "162005.205000", "162007.205000", "162009.205000", "162011.205000", "162013.205000", "162015.205000", "162017.205000", "162019.205000", "162021.205000", "162023.205000", "162025.205000", "162027.205000", "162029.205000", "162031.205000", "162033.205000", "162035.205000", "162037.205000", "162039.205000", "162041.205000", "162043.205000", "162045.205000", "162047.205000", "162049.205000", "162051.205000", "162053.205000", "162055.205000", "162057.205000", "162059.205000", "162101.205000", "162103.205000", "162105.205000", "162107.205000", "162109.205000", "162111.205000", "162113.205000", "162115.205000", "162117.205000", "162119.205000", "162121.205000", "162123.205000", "162125.205000", "162127.205000", "162129.205000", "162131.205000", "162133.205000", "162135.205000"],
      "ContentTime": ["161627.964000", "161629.460000", "161631.461000", "161633.461000", "161635.461000", "161637.460000", "161639.460000", "161641.460000", "161643.459000", "161645.460000", "161647.460000", "161649.461000", "161651.460000", "161653.461000", "161655.460000", "161657.460000", "161659.460000", "161701.460000", "161703.460000", "161705.460000", "161707.472000", "161709.460000", "161711.461000", "161713.459000", "161715.460000", "161717.459000", "161719.460000", "161721.460000", "161723.460000", "161725.461000", "161727.460000", "161729.461000", "161731.459000", "161733.459000", "161735.459000", "161737.460000", "161739.460000", "161741.461000", "161743.461000", "161745.460000", "161747.461000", "161749.460000", "161751.460000", "161753.460000", "161755.460000", "161757.461000", "161759.460000", "161801.460000", "161803.460000", "161805.460000", "161807.459000", "161809.459000", "161811.459000", "161813.460000", "161815.460000", "161817.460000", "161819.461000", "161821.461000", "161823.459000", "161825.460000", "161827.459000", "161829.459000", "161831.459000", "161833.461000", "161835.461000", "161837.461000", "161839.460000", "161841.460000", "161843.459000", "161845.460000", "161847.460000", "161849.460000", "161851.461000", "161853.461000", "161855.460000", "161857.461000", "161859.459000", "161901.459000", "161903.459000", "161905.460000", "161907.461000", "161909.460000", "161911.461000", "161913.460000", "161915.461000", "161917.460000", "161919.459000", "161921.459000", "161923.459000", "161925.461000", "161927.461000", "161929.461000", "161931.460000", "161933.459000", "161935.459000", "161937.460000", "161939.460000", "161941.460000", "161943.461000", "161945.461000", "161947.460000", "161949.460000", "161951.460000", "161953.460000", "161955.459000", "161957.459000", "161959.460000", "162001.461000", "162003.460000", "162005.461000", "162007.461000", "162009.460000", "162011.460000", "162013.460000", "162015.460000", "162017.461000", "162019.461000", "162021.461000", "162023.460000", "162025.460000", "162027.459000", "162029.459000", "162031.460000", "162033.459000", "162035.461000", "162037.461000", "162039.460000", "162041.461000", "162043.459000", "162045.459000", "162047.460000", "162049.460000", "162051.460000", "162053.460000", "162055.461000", "162057.460000", "162059.461000", "162101.460000", "162103.459000", "162105.459000", "162107.459000", "162109.460000", "162111.461000", "162113.461000", "162115.461000", "162117.461000", "162119.460000", "162121.460000", "162123.460000", "162125.459000", "162127.460000", "162129.460000", "162131.460000", "162133.460000", "162135.461000", "162137.094000"],
      "InstanceCreationTime": ["161627.964000", "161629.460000", "161631.461000", "161633.461000", "161635.461000", "161637.460000", "161639.460000", "161641.460000", "161643.459000", "161645.460000", "161647.460000", "161649.461000", "161651.460000", "161653.461000", "161655.460000", "161657.460000", "161659.460000", "161701.460000", "161703.460000", "161705.460000", "161707.472000", "161709.460000", "161711.461000", "161713.459000", "161715.460000", "161717.459000", "161719.460000", "161721.460000", "161723.460000", "161725.461000", "161727.460000", "161729.461000", "161731.459000", "161733.459000", "161735.459000", "161737.460000", "161739.460000", "161741.461000", "161743.461000", "161745.460000", "161747.461000", "161749.460000", "161751.460000", "161753.460000", "161755.460000", "161757.461000", "161759.460000", "161801.460000", "161803.460000", "161805.460000", "161807.459000", "161809.459000", "161811.459000", "161813.460000", "161815.460000", "161817.460000", "161819.461000", "161821.461000", "161823.459000", "161825.460000", "161827.459000", "161829.459000", "161831.459000", "161833.461000", "161835.461000", "161837.461000", "161839.460000", "161841.460000", "161843.459000", "161845.460000", "161847.460000", "161849.460000", "161851.461000", "161853.461000", "161855.460000", "161857.461000", "161859.459000", "161901.459000", "161903.459000", "161905.460000", "161907.461000", "161909.460000", "161911.461000", "161913.460000", "161915.461000", "161917.460000", "161919.459000", "161921.459000", "161923.459000", "161925.461000", "161927.461000", "161929.461000", "161931.460000", "161933.459000", "161935.459000", "161937.460000", "161939.460000", "161941.460000", "161943.461000", "161945.461000", "161947.460000", "161949.460000", "161951.460000", "161953.460000", "161955.459000", "161957.459000", "161959.460000", "162001.461000", "162003.460000", "162005.461000", "162007.461000", "162009.460000", "162011.460000", "162013.460000", "162015.460000", "162017.461000", "162019.461000", "162021.461000", "162023.460000", "162025.460000", "162027.459000", "162029.459000", "162031.460000", "162033.459000", "162035.461000", "162037.461000", "162039.460000", "162041.461000", "162043.459000", "162045.459000", "162047.460000", "162049.460000", "162051.460000", "162053.460000", "162055.461000", "162057.460000", "162059.461000", "162101.460000", "162103.459000", "162105.459000", "162107.459000", "162109.460000", "162111.461000", "162113.461000", "162115.461000", "162117.461000", "162119.460000", "162121.460000", "162123.460000", "162125.459000", "162127.460000", "162129.460000", "162131.460000", "162133.460000", "162135.461000", "162137.094000"],
      "InstanceNumber": [1, 2, 3, 4, 5, 6, 7, 8, 9, 10, 11, 12, 13, 14, 15, 16, 17, 18, 19, 20, 21, 22, 23, 24, 25, 26, 27, 28, 29, 30, 31, 32, 33, 34, 35, 36, 37, 38, 39, 40, 41, 42, 43, 44, 45, 46, 47, 48, 49, 50, 51, 52, 53, 54, 55, 56, 57, 58, 59, 60, 61, 62, 63, 64, 65, 66, 67, 68, 69, 70, 71, 72, 73, 74, 75, 76, 77, 78, 79, 80, 81, 82, 83, 84, 85, 86, 87, 88, 89, 90, 91, 92, 93, 94, 95, 96, 97, 98, 99, 100, 101, 102, 103, 104, 105, 106, 107, 108, 109, 110, 111, 112, 113, 114, 115, 116, 117, 118, 119, 120, 121, 122, 123, 124, 125, 126, 127, 128, 129, 130, 131, 132, 133, 134, 135, 136, 137, 138, 139, 140, 141, 142, 143, 144, 145, 146, 147, 148, 149, 150, 151, 152, 153, 154, 155, 156],
      "LargestImagePixelValue": [3564, 3572, 3514, 3525, 3482, 3502, 3499, 3509, 3496, 3475, 3468, 3519, 3514, 3523, 3470, 3519, 3481, 3535, 3502, 3480, 3514, 3514, 3519, 3482, 3541, 3472, 3545, 3500, 3529, 3504, 3546, 3517, 3530, 3512, 3517, 3494, 3497, 3485, 3530, 3505, 3549, 3506, 3549, 3482, 3553, 3501, 3533, 3517, 3462, 3542, 3498, 3575, 3552, 3515, 3492, 3509, 3528, 3540, 3537, 3523, 3531, 3514, 3550, 3538, 3601, 3521, 3497, 3530, 3529, 3539, 3532, 3532, 3514, 3545, 3522, 3550, 3538, 3560, 3545, 3535, 3538, 3546, 3501, 3524, 3559, 3510, 3537, 3544, 3527, 3553, 3551, 3532, 3539, 3539, 3581, 3518, 3552, 3535, 3550, 3531, 3546, 3544, 3552, 3524, 3590, 3515, 3555, 3522, 3552, 3527, 3543, 3542, 3557, 3553, 3541, 3558, 3527, 3594, 3514, 3597, 3495, 3599, 3568, 3572, 3533, 3527, 3537, 3539, 3462, 3547, 3545, 3547, 3517, 3557, 3518, 3574, 3514, 3581, 3501, 3537, 3578, 3409, 3633, 3583, 3629, 3614, 3614, 3559, 3587, 3609, 3566, 3585, 3555, 3563, 3598, 3588],
      "WindowCenter": [752.0, 750.0, 749.0, 750.0, 750.0, 750.0, 750.0, 750.0, 750.0, 750.0, 750.0, 750.0, 751.0, 751.0, 750.0, 751.0, 751.0, 751.0, 750.0, 749.0, 750.0, 752.0, 751.0, 749.0, 751.0, 750.0, 752.0, 751.0, 751.0, 751.0, 751.0, 751.0, 752.0, 751.0, 752.0, 751.0, 751.0, 751.0, 752.0, 751.0, 752.0, 751.0, 751.0, 750.0, 751.0, 751.0, 752.0, 751.0, 750.0, 751.0, 751.0, 752.0, 751.0, 751.0, 750.0, 751.0, 751.0, 751.0, 751.0, 751.0, 752.0, 751.0, 752.0, 751.0, 752.0, 751.0, 751.0, 751.0, 751.0, 752.0, 752.0, 752.0, 751.0, 752.0, 751.0, 752.0, 751.0, 752.0, 752.0, 752.0, 752.0, 752.0, 751.0, 751.0, 752.0, 751.0, 751.0, 751.0, 751.0, 751.0, 751.0, 751.0, 752.0, 752.0, 752.0, 752.0, 752.0, 752.0, 753.0, 752.0, 752.0, 752.0, 752.0, 752.0, 752.0, 752.0, 752.0, 752.0, 753.0, 752.0, 752.0, 752.0, 752.0, 752.0, 752.0, 752.0, 752.0, 753.0, 752.0, 752.0, 752.0, 752.0, 752.0, 751.0, 751.0, 752.0, 751.0, 751.0, 751.0, 752.0, 752.0, 751.0, 751.0, 752.0, 752.0, 751.0, 752.0, 752.0, 751.0, 751.0, 752.0, 749.0, 753.0, 752.0, 754.0, 753.0, 752.0, 751.0, 751.0, 750.0, 750.0, 751.0, 751.0, 752.0, 753.0, 752.0],
      "WindowWidth": [1639.0, 1635.0, 1632.0, 1633.0, 1632.0, 1633.0, 1634.0, 1633.0, 1634.0, 1634.0, 1633.0, 1635.0, 1636.0, 1637.0, 1635.0, 1637.0, 1635.0, 1637.0, 1633.0, 1631.0, 1636.0, 1639.0, 1638.0, 1633.0, 1636.0, 1635.0, 1639.0, 1636.0, 1638.0, 1636.0, 1637.0, 1637.0, 1639.0, 1638.0, 1639.0, 1638.0, 1638.0, 1638.0, 1639.0, 1638.0, 1639.0, 1636.0, 1637.0, 1634.0, 1637.0, 1638.0, 1638.0, 1637.0, 1634.0, 1637.0, 1638.0, 1639.0, 1638.0, 1636.0, 1635.0, 1636.0, 1638.0, 1638.0, 1638.0, 1637.0, 1638.0, 1635.0, 1639.0, 1637.0, 1639.0, 1637.0, 1636.0, 1638.0, 1638.0, 1640.0, 1639.0, 1639.0, 1638.0, 1639.0, 1638.0, 1639.0, 1638.0, 1639.0, 1639.0, 1639.0, 1640.0, 1639.0, 1638.0, 1637.0, 1639.0, 1638.0, 1637.0, 1637.0, 1638.0, 1636.0, 1637.0, 1638.0, 1640.0, 1640.0, 1640.0, 1640.0, 1640.0, 1641.0, 1642.0, 1640.0, 1640.0, 1639.0, 1639.0, 1638.0, 1641.0, 1639.0, 1640.0, 1640.0, 1642.0, 1640.0, 1640.0, 1639.0, 1640.0, 1639.0, 1639.0, 1640.0, 1640.0, 1641.0, 1638.0, 1639.0, 1639.0, 1640.0, 1639.0, 1638.0, 1638.0, 1639.0, 1637.0, 1637.0, 1638.0, 1639.0, 1640.0, 1636.0, 1637.0, 1640.0, 1639.0, 1638.0, 1638.0, 1639.0, 1635.0, 1636.0, 1638.0, 1631.0, 1643.0, 1639.0, 1644.0, 1643.0, 1639.0, 1638.0, 1637.0, 1635.0, 1633.0, 1636.0, 1636.0, 1639.0, 1641.0, 1640.0]
    },
    "slices": {}
  }
}