{
  "AcquisitionMatrixPE": 100,
  "AcquisitionNumber": 1,
  "AcquisitionTime": "15:58:24.475000",
  "BandwidthPerPixelPhaseEncode": 18.519,
  "BaseResolution": 100,
  "BodyPartExamined": "BRAIN",
  "CoilCombinationMethod": "Sum of Squares",
  "ConsistencyInfo": "N4_VE11C_LATEST_20160120",
  "ConversionSoftware": "dcm2niix",
  "ConversionSoftwareVersion": "v1.0.20211006",
  "DerivedVendorReportedEchoSpacing": 0.000539986,
  "DeviceSerialNumber": "166078",
  "DwellTime": 2.1e-06,
  "EchoTime": 0.034,
  "EchoTrainLength": 100,
  "EffectiveEchoSpacing": 0.000539986,
  "FlipAngle": 90,
  "ImageOrientationPatientDICOM": [0.999997, -0.000482849, -0.0021962, 1.0027e-08, 0.976675, -0.214724],
  "ImageOrientationText": "Tra>Cor(-12.4)>Sag(-0.1)",
  "ImageType": [
    "ORIGINAL",
    "PRIMARY",
    "M",
    "ND",
    "MOSAIC"
],
  "ImagingFrequency": 123.258,
  "InPlanePhaseEncodingDirectionDICOM": "COL",
  "InstitutionAddress": "Street StreetNo,Bei Jing,District,CN,ZIP",
  "InstitutionName": "BeiJing Normal University",
  "InstitutionalDepartmentName": "Department",
  "MRAcquisitionType": "2D",
  "MagneticFieldStrength": 3,
  "Manufacturer": "Siemens",
  "ManufacturersModelName": "Prisma",
  "Modality": "MR",
  "MultibandAccelerationFactor": 3,
  "PartialFourier": 1,
  "PatientPosition": "HFS",
  "PercentPhaseFOV": 100,
  "PercentSampling": 100,
  "PhaseEncodingDirection": "j-",
  "PhaseEncodingSteps": 100,
  "PhaseResolution": 1,
  "PixelBandwidth": 2380,
  "ProcedureStepDescription": "BNU_P2018_64CH^Zhen.ZongLei",
  "ProtocolName": "bold_100x100_s3_2x2x2_static_156",
  "PulseSequenceDetails": "%SiemensSeq%\\ep2d_bold",
  "ReceiveCoilActiveElements": "HC1-7;NC1",
  "ReceiveCoilName": "HeadNeck_64",
  "ReconMatrixPE": 100,
  "RefLinesPE": 32,
  "RepetitionTime": 2,
  "SAR": 0.0846961,
  "ScanOptions": "FS",
  "ScanningSequence": "EP",
  "SequenceName": "*epfid2d1_100",
  "SequenceVariant": "SK",
  "SeriesDescription": "bold_100x100_s3_2x2x2_static_156",
  "SeriesNumber": 3,
  "ShimSetting": [-5469, -11538, -1312, 329, -3, -519, -139, 90],
  "SliceThickness": 2,
  "SliceTiming": [1.485, 0, 0.99, 0.0825, 1.0725, 0.165, 1.155, 0.2475, 1.2375, 0.33, 1.32, 0.4125, 1.4025, 0.5775, 1.5675, 0.66, 1.65, 0.7425, 1.7325, 0.825, 1.815, 0.9075, 1.8975, 0.495, 1.485, 0, 0.99, 0.0825, 1.0725, 0.165, 1.155, 0.2475, 1.2375, 0.33, 1.32, 0.4125, 1.4025, 0.5775, 1.5675, 0.66, 1.65, 0.7425, 1.7325, 0.825, 1.815, 0.9075, 1.8975, 0.495, 1.485, 0, 0.99, 0.0825, 1.0725, 0.165, 1.155, 0.2475, 1.2375, 0.33, 1.32, 0.4125, 1.4025, 0.5775, 1.5675, 0.66, 1.65, 0.7425, 1.7325, 0.825, 1.815, 0.9075, 1.8975, 0.495],
  "SoftwareVersions": "syngo MR E11",
  "SpacingBetweenSlices": 2,
  "StationName": "AWP166078",
  "TaskName": "action",
  "TotalReadoutTime": 0.0534586,
  "TxRefAmp": 227.228,
  "dcmmeta_affine": [
    [-1.9999949932098389, 2.00539673755884e-08, -0.004497302230447531, 104.92462921142578],
    [0.0009656987385824323, 1.9533494710922241, -0.42944708466529846, -76.11588287353516],
    [-0.004392397124320269, 0.4294481873512268, 1.9533445835113525, -87.68138122558594],
    [0.0, 0.0, 0.0, 1.0]
],
  "dcmmeta_reorient_transform": [
    [0.0, -1.0, 0.0, 99.0],
    [1.0, 0.0, 0.0, 0.0],
    [0.0, 0.0, 1.0, 0.0],
    [0.0, 0.0, 0.0, 1.0]
],
  "dcmmeta_shape": [100, 100, 72, 156],
  "dcmmeta_slice_dim": 2,
  "dcmmeta_version": 0.6,
  "global": {
    "const": {
      "AcquisitionMatrix": [100, 0, 0, 100],
      "AngioFlag": "N",
      "BitsAllocated": 16,
      "BitsStored": 12,
      "BodyPartExamined": "BRAIN",
      "Columns": 900,
      "EchoNumbers": 1,
      "EchoTime": 34.0,
      "EchoTrainLength": 100,
      "FlipAngle": 90.0,
      "HighBit": 11,
      "ImageOrientationPatient": [0.99999747178083, -0.0004828493671, -0.0021961986344, 1.0026984e-08, 0.97667474852184, -0.2147240918011],
      "ImagePositionPatient": [-904.92261651583, -898.21923557598, 128.37022153599],
      "ImageType": [
        "ORIGINAL",
        "PRIMARY",
        "M",
        "ND",
        "MOSAIC"
],
      "ImagedNucleus": "1H",
      "ImagingFrequency": 123.257704,
      "InPlanePhaseEncodingDirection": "COL",
      "MRAcquisitionType": "2D",
      "MagneticFieldStrength": 3.0,
      "Manufacturer": "SIEMENS",
      "ManufacturerModelName": "Prisma",
      "Modality": "MR",
      "NumberOfAverages": 1.0,
      "NumberOfPhaseEncodingSteps": 100,
      "PercentPhaseFieldOfView": 100.0,
      "PercentSampling": 100.0,
      "PerformedProcedureStepStartTime": "155536.703000",
      "PhotometricInterpretation": "MONOCHROME2",
      "PixelBandwidth": 2380.0,
      "PixelRepresentation": 0,
      "PixelSpacing": [2.0, 2.0],
      "ProtocolName": "bold_100x100_s3_2x2x2_static_156",
      "RepetitionTime": 2000.0,
      "Rows": 900,
      "SAR": 0.08469609050595,
      "SamplesPerPixel": 1,
      "ScanOptions": "FS",
      "ScanningSequence": "EP",
      "SequenceName": "*epfid2d1_100",
      "SequenceVariant": "SK",
      "SeriesDescription": "bold_100x100_s3_2x2x2_static_156",
      "SeriesNumber": 3,
      "SeriesTime": "155826.523000",
      "SliceLocation": -69.528040376514,
      "SliceThickness": 2.0,
      "SmallestImagePixelValue": 0,
      "SoftwareVersions": "syngo MR E11",
      "SpacingBetweenSlices": 1.9999999771383,
      "SpecificCharacterSet": "ISO_IR 100",
      "StudyID": "1",
      "StudyTime": "155536.619000",
      "TransmitCoilName": "Body",
      "VariableFlipAngleFlag": "N",
      "WindowCenterWidthExplanation": "Algo1",
      "dBdt": 0.0},
    "slices": {}
  },
  "time": {
    "samples": {
      "AcquisitionNumber": [1, 2, 3, 4, 5, 6, 7, 8, 9, 10, 11, 12, 13, 14, 15, 16, 17, 18, 19, 20, 21, 22, 23, 24, 25, 26, 27, 28, 29, 30, 31, 32, 33, 34, 35, 36, 37, 38, 39, 40, 41, 42, 43, 44, 45, 46, 47, 48, 49, 50, 51, 52, 53, 54, 55, 56, 57, 58, 59, 60, 61, 62, 63, 64, 65, 66, 67, 68, 69, 70, 71, 72, 73, 74, 75, 76, 77, 78, 79, 80, 81, 82, 83, 84, 85, 86, 87, 88, 89, 90, 91, 92, 93, 94, 95, 96, 97, 98, 99, 100, 101, 102, 103, 104, 105, 106, 107, 108, 109, 110, 111, 112, 113, 114, 115, 116, 117, 118, 119, 120, 121, 122, 123, 124, 125, 126, 127, 128, 129, 130, 131, 132, 133, 134, 135, 136, 137, 138, 139, 140, 141, 142, 143, 144, 145, 146, 147, 148, 149, 150, 151, 152, 153, 154, 155, 156],
      "AcquisitionTime": ["155824.475000", "155826.475000", "155828.475000", "155830.475000", "155832.475000", "155834.475000", "155836.475000", "155838.475000", "155840.475000", "155842.475000", "155844.475000", "155846.475000", "155848.475000", "155850.475000", "155852.475000", "155854.475000", "155856.475000", "155858.475000", "155900.475000", "155902.475000", "155904.475000", "155906.475000", "155908.475000", "155910.475000", "155912.475000", "155914.475000", "155916.475000", "155918.475000", "155920.475000", "155922.475000", "155924.475000", "155926.475000", "155928.475000", "155930.475000", "155932.475000", "155934.475000", "155936.475000", "155938.475000", "155940.475000", "155942.475000", "155944.475000", "155946.475000", "155948.475000", "155950.475000", "155952.475000", "155954.475000", "155956.475000", "155958.475000", "160000.475000", "160002.475000", "160004.475000", "160006.475000", "160008.475000", "160010.475000", "160012.475000", "160014.475000", "160016.475000", "160018.475000", "160020.475000", "160022.475000", "160024.475000", "160026.475000", "160028.475000", "160030.475000", "160032.475000", "160034.475000", "160036.475000", "160038.475000", "160040.475000", "160042.475000", "160044.475000", "160046.475000", "160048.475000", "160050.475000", "160052.475000", "160054.475000", "160056.475000", "160058.475000", "160100.475000", "160102.475000", "160104.475000", "160106.475000", "160108.475000", "160110.475000", "160112.475000", "160114.475000", "160116.475000", "160118.475000", "160120.475000", "160122.475000", "160124.475000", "160126.475000", "160128.475000", "160130.475000", "160132.475000", "160134.475000", "160136.475000", "160138.475000", "160140.475000", "160142.475000", "160144.475000", "160146.475000", "160148.475000", "160150.475000", "160152.475000", "160154.475000", "160156.475000", "160158.475000", "160200.475000", "160202.475000", "160204.475000", "160206.475000", "160208.475000", "160210.475000", "160212.475000", "160214.475000", "160216.475000", "160218.475000", "160220.475000", "160222.475000", "160224.475000", "160226.475000", "160228.475000", "160230.475000", "160232.475000", "160234.475000", "160236.475000", "160238.475000", "160240.475000", "160242.475000", "160244.475000", "160246.475000", "160248.475000", "160250.475000", "160252.475000", "160254.475000", "160256.475000", "160258.475000", "160300.475000", "160302.475000", "160304.475000", "160306.475000", "160308.475000", "160310.475000", "160312.475000", "160314.475000", "160316.475000", "160318.475000", "160320.475000", "160322.475000", "160324.475000", "160326.475000", "160328.475000", "160330.475000", "160332.475000", "160334.475000"],
      "ContentTime": ["155826.527000", "155828.023000", "155830.022000", "155832.022000", "155834.022000", "155836.022000", "155838.021000", "155840.021000", "155842.022000", "155844.023000", "155846.022000", "155848.022000", "155850.022000", "155852.022000", "155854.022000", "155856.022000", "155858.021000", "155900.021000", "155902.022000", "155904.022000", "155906.022000", "155908.023000", "155910.022000", "155912.521000", "155914.022000", "155916.022000", "155918.021000", "155920.022000", "155922.023000", "155924.023000", "155926.023000", "155928.021000", "155930.021000", "155932.021000", "155934.021000", "155936.022000", "155938.022000", "155940.022000", "155942.022000", "155944.023000", "155946.022000", "155948.022000", "155950.021000", "155952.022000", "155954.023000", "155956.022000", "155958.023000", "160000.022000", "160002.022000", "160004.022000", "160006.021000", "160008.021000", "160010.021000", "160012.022000", "160014.022000", "160016.523000", "160018.023000", "160020.021000", "160022.021000", "160024.021000", "160026.021000", "160028.022000", "160030.022000", "160032.023000", "160034.023000", "160036.022000", "160038.022000", "160040.021000", "160042.022000", "160044.021000", "160046.022000", "160048.022000", "160050.022000", "160052.022000", "160054.022000", "160056.021000", "160058.022000", "160100.021000", "160102.022000", "160104.023000", "160106.022000", "160108.022000", "160110.023000", "160112.022000", "160114.022000", "160116.021000", "160118.022000", "160120.021000", "160122.023000", "160124.022000", "160126.023000", "160128.023000", "160130.021000", "160132.021000", "160134.022000", "160136.021000", "160138.022000", "160140.022000", "160142.023000", "160144.022000", "160146.023000", "160148.021000", "160150.522000", "160152.021000", "160154.021000", "160156.022000", "160158.023000", "160200.023000", "160202.022000", "160204.023000", "160206.521000", "160208.021000", "160210.021000", "160212.022000", "160214.023000", "160216.022000", "160218.022000", "160220.022000", "160222.022000", "160224.021000", "160226.021000", "160228.021000", "160230.022000", "160232.022000", "160234.023000", "160236.023000", "160238.022000", "160240.021000", "160242.022000", "160244.021000", "160246.022000", "160248.023000", "160250.023000", "160252.023000", "160254.022000", "160256.023000", "160258.022000", "160300.022000", "160302.021000", "160304.022000", "160306.023000", "160308.022000", "160310.023000", "160312.023000", "160314.023000", "160316.022000", "160318.021000", "160320.022000", "160322.022000", "160324.022000", "160326.023000", "160328.022000", "160330.023000", "160332.021000", "160334.021000", "160335.882000"],
      "InstanceCreationTime": ["155826.527000", "155828.023000", "155830.022000", "155832.022000", "155834.022000", "155836.022000", "155838.021000", "155840.021000", "155842.022000", "155844.023000", "155846.022000", "155848.022000", "155850.022000", "155852.022000", "155854.022000", "155856.022000", "155858.021000", "155900.021000", "155902.022000", "155904.022000", "155906.022000", "155908.023000", "155910.022000", "155912.521000", "155914.022000", "155916.022000", "155918.021000", "155920.022000", "155922.023000", "155924.023000", "155926.023000", "155928.021000", "155930.021000", "155932.021000", "155934.021000", "155936.022000", "155938.022000", "155940.022000", "155942.022000", "155944.023000", "155946.022000", "155948.022000", "155950.021000", "155952.022000", "155954.023000", "155956.022000", "155958.023000", "160000.022000", "160002.022000", "160004.022000", "160006.021000", "160008.021000", "160010.021000", "160012.022000", "160014.022000", "160016.523000", "160018.023000", "160020.021000", "160022.021000", "160024.021000", "160026.021000", "160028.022000", "160030.022000", "160032.023000", "160034.023000", "160036.022000", "160038.022000", "160040.021000", "160042.022000", "160044.021000", "160046.022000", "160048.022000", "160050.022000", "160052.022000", "160054.022000", "160056.021000", "160058.022000", "160100.021000", "160102.022000", "160104.023000", "160106.022000", "160108.022000", "160110.023000", "160112.022000", "160114.022000", "160116.021000", "160118.022000", "160120.021000", "160122.023000", "160124.022000", "160126.023000", "160128.023000", "160130.021000", "160132.021000", "160134.022000", "160136.021000", "160138.022000", "160140.022000", "160142.023000", "160144.022000", "160146.023000", "160148.021000", "160150.522000", "160152.021000", "160154.021000", "160156.022000", "160158.023000", "160200.023000", "160202.022000", "160204.023000", "160206.521000", "160208.021000", "160210.021000", "160212.022000", "160214.023000", "160216.022000", "160218.022000", "160220.022000", "160222.022000", "160224.021000", "160226.021000", "160228.021000", "160230.022000", "160232.022000", "160234.023000", "160236.023000", "160238.022000", "160240.021000", "160242.022000", "160244.021000", "160246.022000", "160248.023000", "160250.023000", "160252.023000", "160254.022000", "160256.023000", "160258.022000", "160300.022000", "160302.021000", "160304.022000", "160306.023000", "160308.022000", "160310.023000", "160312.023000", "160314.023000", "160316.022000", "160318.021000", "160320.022000", "160322.022000", "160324.022000", "160326.023000", "160328.022000", "160330.023000", "160332.021000", "160334.021000", "160335.882000"],
      "InstanceNumber": [1, 2, 3, 4, 5, 6, 7, 8, 9, 10, 11, 12, 13, 14, 15, 16, 17, 18, 19, 20, 21, 22, 23, 24, 25, 26, 27, 28, 29, 30, 31, 32, 33, 34, 35, 36, 37, 38, 39, 40, 41, 42, 43, 44, 45, 46, 47, 48, 49, 50, 51, 52, 53, 54, 55, 56, 57, 58, 59, 60, 61, 62, 63, 64, 65, 66, 67, 68, 69, 70, 71, 72, 73, 74, 75, 76, 77, 78, 79, 80, 81, 82, 83, 84, 85, 86, 87, 88, 89, 90, 91, 92, 93, 94, 95, 96, 97, 98, 99, 100, 101, 102, 103, 104, 105, 106, 107, 108, 109, 110, 111, 112, 113, 114, 115, 116, 117, 118, 119, 120, 121, 122, 123, 124, 125, 126, 127, 128, 129, 130, 131, 132, 133, 134, 135, 136, 137, 138, 139, 140, 141, 142, 143, 144, 145, 146, 147, 148, 149, 150, 151, 152, 153, 154, 155, 156],
      "LargestImagePixelValue": [3434, 3353, 3346, 3399, 3343, 3433, 3375, 3375, 3408, 3375, 3396, 3384, 3350, 3332, 3392, 3360, 3352, 3342, 3357, 3363, 3409, 3319, 3388, 3319, 3426, 3332, 3342, 3328, 3351, 3331, 3394, 3334, 3360, 3338, 3335, 3354, 3366, 3351, 3380, 3347, 3377, 3321, 3339, 3381, 3345, 3358, 3310, 3348, 3356, 3364, 3366, 3366, 3360, 3383, 3352, 3407, 3352, 3383, 3356, 3345, 3343, 3367, 3383, 3368, 3390, 3364, 3418, 3387, 3433, 3379, 3435, 3362, 3476, 3392, 3412, 3396, 3481, 3420, 3481, 3405, 3490, 3413, 3529, 3436, 3533, 3433, 3497, 3454, 3499, 3469, 3531, 3477, 3546, 3466, 3515, 3449, 3499, 3440, 3501, 3496, 3507, 3488, 3494, 3495, 3493, 3475, 3518, 3503, 3502, 3442, 3549, 3499, 3526, 3529, 3588, 3575, 3557, 3543, 3528, 3519, 3552, 3552, 3536, 3599, 3524, 3582, 3549, 3588, 3537, 3586, 3531, 3596, 3530, 3588, 3530, 3591, 3557, 3559, 3557, 3555, 3561, 3556, 3607, 3580, 3594, 3566, 3586, 3554, 3648, 3548, 3599, 3661, 3596, 3624, 3578, 3628],
      "WindowCenter": [745.0, 744.0, 743.0, 744.0, 743.0, 745.0, 743.0, 744.0, 745.0, 745.0, 746.0, 746.0, 746.0, 745.0, 745.0, 745.0, 745.0, 745.0, 745.0, 744.0, 745.0, 744.0, 745.0, 744.0, 746.0, 744.0, 744.0, 743.0, 744.0, 744.0, 745.0, 743.0, 744.0, 743.0, 744.0, 744.0, 744.0, 744.0, 744.0, 744.0, 745.0, 744.0, 744.0, 744.0, 744.0, 745.0, 745.0, 746.0, 745.0, 746.0, 745.0, 745.0, 745.0, 746.0, 745.0, 746.0, 746.0, 746.0, 746.0, 745.0, 745.0, 746.0, 746.0, 746.0, 747.0, 746.0, 746.0, 746.0, 746.0, 746.0, 746.0, 745.0, 746.0, 746.0, 746.0, 745.0, 746.0, 745.0, 746.0, 746.0, 747.0, 746.0, 747.0, 747.0, 748.0, 747.0, 747.0, 747.0, 747.0, 746.0, 747.0, 747.0, 748.0, 747.0, 748.0, 746.0, 747.0, 747.0, 748.0, 748.0, 747.0, 747.0, 747.0, 748.0, 748.0, 748.0, 747.0, 748.0, 748.0, 747.0, 747.0, 747.0, 747.0, 748.0, 747.0, 748.0, 748.0, 748.0, 748.0, 748.0, 748.0, 748.0, 748.0, 749.0, 748.0, 749.0, 748.0, 748.0, 749.0, 750.0, 749.0, 749.0, 749.0, 750.0, 749.0, 749.0, 748.0, 749.0, 748.0, 749.0, 748.0, 748.0, 748.0, 749.0, 748.0, 749.0, 748.0, 749.0, 749.0, 749.0, 748.0, 749.0, 749.0, 749.0, 749.0, 749.0],
      "WindowWidth": [1622.0, 1619.0, 1617.0, 1620.0, 1618.0, 1622.0, 1618.0, 1619.0, 1623.0, 1623.0, 1625.0, 1624.0, 1624.0, 1621.0, 1623.0, 1622.0, 1623.0, 1623.0, 1622.0, 1620.0, 1622.0, 1621.0, 1624.0, 1621.0, 1625.0, 1620.0, 1622.0, 1618.0, 1621.0, 1621.0, 1622.0, 1619.0, 1620.0, 1618.0, 1620.0, 1621.0, 1620.0, 1620.0, 1621.0, 1619.0, 1624.0, 1620.0, 1621.0, 1621.0, 1621.0, 1624.0, 1623.0, 1624.0, 1623.0, 1624.0, 1623.0, 1624.0, 1623.0, 1625.0, 1624.0, 1625.0, 1625.0, 1625.0, 1624.0, 1623.0, 1624.0, 1625.0, 1625.0, 1625.0, 1627.0, 1625.0, 1625.0, 1624.0, 1627.0, 1625.0, 1626.0, 1624.0, 1626.0, 1625.0, 1626.0, 1624.0, 1626.0, 1624.0, 1626.0, 1626.0, 1629.0, 1626.0, 1629.0, 1627.0, 1631.0, 1627.0, 1628.0, 1627.0, 1628.0, 1626.0, 1627.0, 1627.0, 1630.0, 1628.0, 1630.0, 1626.0, 1628.0, 1628.0, 1630.0, 1630.0, 1629.0, 1629.0, 1627.0, 1630.0, 1630.0, 1630.0, 1628.0, 1631.0, 1630.0, 1628.0, 1629.0, 1629.0, 1629.0, 1630.0, 1628.0, 1631.0, 1630.0, 1631.0, 1632.0, 1632.0, 1631.0, 1631.0, 1631.0, 1634.0, 1631.0, 1632.0, 1631.0, 1631.0, 1633.0, 1635.0, 1632.0, 1633.0, 1633.0, 1635.0, 1634.0, 1634.0, 1631.0, 1633.0, 1631.0, 1632.0, 1630.0, 1632.0, 1631.0, 1632.0, 1631.0, 1633.0, 1631.0, 1633.0, 1634.0, 1634.0, 1631.0, 1633.0, 1632.0, 1633.0, 1633.0, 1632.0]
    },
    "slices": {}
  }
}