{
  "AcquisitionMatrixPE": 100,
  "AcquisitionNumber": 1,
  "AcquisitionTime": "16:28:59.712500",
  "BandwidthPerPixelPhaseEncode": 18.519,
  "BaseResolution": 100,
  "BodyPartExamined": "BRAIN",
  "CoilCombinationMethod": "Sum of Squares",
  "ConsistencyInfo": "N4_VE11C_LATEST_20160120",
  "ConversionSoftware": "dcm2niix",
  "ConversionSoftwareVersion": "v1.0.20211006",
  "DerivedVendorReportedEchoSpacing": 0.000539986,
  "DeviceSerialNumber": "166078",
  "DwellTime": 2.1e-06,
  "EchoTime": 0.034,
  "EchoTrainLength": 100,
  "EffectiveEchoSpacing": 0.000539986,
  "FlipAngle": 90,
  "ImageOrientationPatientDICOM": [1, 0, 0, 0, 0.999903, -0.0139622],
  "ImageOrientationText": "Tra>Cor(-0.8)",
  "ImageType": [
    "ORIGINAL",
    "PRIMARY",
    "M",
    "ND",
    "MOSAIC"
],
  "ImagingFrequency": 123.258,
  "InPlanePhaseEncodingDirectionDICOM": "COL",
  "InstitutionAddress": "Street StreetNo,Bei Jing,District,CN,ZIP",
  "InstitutionName": "BeiJing Normal University",
  "InstitutionalDepartmentName": "Department",
  "MRAcquisitionType": "2D",
  "MagneticFieldStrength": 3,
  "Manufacturer": "Siemens",
  "ManufacturersModelName": "Prisma",
  "Modality": "MR",
  "MultibandAccelerationFactor": 3,
  "PartialFourier": 1,
  "PatientPosition": "HFS",
  "PercentPhaseFOV": 100,
  "PercentSampling": 100,
  "PhaseEncodingDirection": "j-",
  "PhaseEncodingSteps": 100,
  "PhaseResolution": 1,
  "PixelBandwidth": 2380,
  "ProcedureStepDescription": "BNU_P2018_64CH^Zhen.ZongLei",
  "ProtocolName": "bold_100x100_s3_2x2x2_static_156",
  "PulseSequenceDetails": "%SiemensSeq%\\ep2d_bold",
  "ReceiveCoilActiveElements": "HC1-7;NC1",
  "ReceiveCoilName": "HeadNeck_64",
  "ReconMatrixPE": 100,
  "RefLinesPE": 32,
  "RepetitionTime": 2,
  "SAR": 0.0796453,
  "ScanOptions": "FS",
  "ScanningSequence": "EP",
  "SequenceName": "*epfid2d1_100",
  "SequenceVariant": "SK",
  "SeriesDescription": "bold_100x100_s3_2x2x2_static_156",
  "SeriesNumber": 12,
  "ShimSetting": [-5469, -11543, -1272, 291, -62, -194, -9, 63],
  "SliceThickness": 2,
  "SliceTiming": [1.485, 0, 0.99, 0.0825, 1.0725, 0.165, 1.155, 0.2475, 1.2375, 0.33, 1.32, 0.4125, 1.4025, 0.5775, 1.5675, 0.66, 1.65, 0.7425, 1.7325, 0.825, 1.815, 0.9075, 1.8975, 0.495, 1.485, 0, 0.99, 0.0825, 1.0725, 0.165, 1.155, 0.2475, 1.2375, 0.33, 1.32, 0.4125, 1.4025, 0.5775, 1.5675, 0.66, 1.65, 0.7425, 1.7325, 0.825, 1.815, 0.9075, 1.8975, 0.495, 1.485, 0, 0.99, 0.0825, 1.0725, 0.165, 1.155, 0.2475, 1.2375, 0.33, 1.32, 0.4125, 1.4025, 0.5775, 1.5675, 0.66, 1.65, 0.7425, 1.7325, 0.825, 1.815, 0.9075, 1.8975, 0.495],
  "SoftwareVersions": "syngo MR E11",
  "SpacingBetweenSlices": 2,
  "StationName": "AWP166078",
  "TaskName": "action",
  "TotalReadoutTime": 0.0534586,
  "TxRefAmp": 213.971,
  "dcmmeta_affine": [
    [-2.0, 0.0, 0.0, 101.3559341430664],
    [0.0, 1.9998050928115845, -0.02792436257004738, -89.20736694335938],
    [0.0, 0.02792436257004738, 1.9998050928115845, -51.13134765625],
    [0.0, 0.0, 0.0, 1.0]
],
  "dcmmeta_reorient_transform": [
    [0.0, -1.0, 0.0, 99.0],
    [1.0, 0.0, 0.0, 0.0],
    [0.0, 0.0, 1.0, 0.0],
    [0.0, 0.0, 0.0, 1.0]
],
  "dcmmeta_shape": [100, 100, 72, 156],
  "dcmmeta_slice_dim": 2,
  "dcmmeta_version": 0.6,
  "global": {
    "const": {
      "AcquisitionMatrix": [100, 0, 0, 100],
      "AngioFlag": "N",
      "BitsAllocated": 16,
      "BitsStored": 12,
      "BodyPartExamined": "BRAIN",
      "Columns": 900,
      "EchoNumbers": 1,
      "EchoTime": 34.0,
      "EchoTrainLength": 100,
      "FlipAngle": 90.0,
      "HighBit": 11,
      "ImageOrientationPatient": [1.0, 0.0, 0.0, 0.0, 0.99990252399856, -0.0139621811089],
      "ImagePositionPatient": [-901.35593223572, -908.69535360707, -37.197090896012],
      "ImageType": [
        "ORIGINAL",
        "PRIMARY",
        "M",
        "ND",
        "MOSAIC"
],
      "ImagedNucleus": "1H",
      "ImagingFrequency": 123.25772,
      "InPlanePhaseEncodingDirection": "COL",
      "MRAcquisitionType": "2D",
      "MagneticFieldStrength": 3.0,
      "Manufacturer": "SIEMENS",
      "ManufacturerModelName": "Prisma",
      "Modality": "MR",
      "NumberOfAverages": 1.0,
      "NumberOfPhaseEncodingSteps": 100,
      "PercentPhaseFieldOfView": 100.0,
      "PercentSampling": 100.0,
      "PerformedProcedureStepStartTime": "153942.174000",
      "PhotometricInterpretation": "MONOCHROME2",
      "PixelBandwidth": 2380.0,
      "PixelRepresentation": 0,
      "PixelSpacing": [2.0, 2.0],
      "ProtocolName": "bold_100x100_s3_2x2x2_static_156",
      "RepetitionTime": 2000.0,
      "Rows": 900,
      "SAR": 0.07964531459085,
      "SamplesPerPixel": 1,
      "ScanOptions": "FS",
      "ScanningSequence": "EP",
      "SequenceName": "*epfid2d1_100",
      "SequenceVariant": "SK",
      "SeriesDescription": "bold_100x100_s3_2x2x2_static_156",
      "SeriesNumber": 12,
      "SeriesTime": "162902.749000",
      "SliceLocation": -49.880834172225,
      "SliceThickness": 2.0,
      "SmallestImagePixelValue": 0,
      "SoftwareVersions": "syngo MR E11",
      "SpacingBetweenSlices": 2.0000000262606,
      "SpecificCharacterSet": "ISO_IR 100",
      "StudyID": "1",
      "StudyTime": "153942.074000",
      "TransmitCoilName": "Body",
      "VariableFlipAngleFlag": "N",
      "WindowCenterWidthExplanation": "Algo1",
      "dBdt": 0.0},
    "slices": {}
  },
  "time": {
    "samples": {
      "AcquisitionNumber": [1, 2, 3, 4, 5, 6, 7, 8, 9, 10, 11, 12, 13, 14, 15, 16, 17, 18, 19, 20, 21, 22, 23, 24, 25, 26, 27, 28, 29, 30, 31, 32, 33, 34, 35, 36, 37, 38, 39, 40, 41, 42, 43, 44, 45, 46, 47, 48, 49, 50, 51, 52, 53, 54, 55, 56, 57, 58, 59, 60, 61, 62, 63, 64, 65, 66, 67, 68, 69, 70, 71, 72, 73, 74, 75, 76, 77, 78, 79, 80, 81, 82, 83, 84, 85, 86, 87, 88, 89, 90, 91, 92, 93, 94, 95, 96, 97, 98, 99, 100, 101, 102, 103, 104, 105, 106, 107, 108, 109, 110, 111, 112, 113, 114, 115, 116, 117, 118, 119, 120, 121, 122, 123, 124, 125, 126, 127, 128, 129, 130, 131, 132, 133, 134, 135, 136, 137, 138, 139, 140, 141, 142, 143, 144, 145, 146, 147, 148, 149, 150, 151, 152, 153, 154, 155, 156],
      "AcquisitionTime": ["162859.712500", "162901.712500", "162903.712500", "162905.712500", "162907.712500", "162909.712500", "162911.712500", "162913.712500", "162915.712500", "162917.712500", "162919.712500", "162921.712500", "162923.712500", "162925.712500", "162927.712500", "162929.712500", "162931.712500", "162933.712500", "162935.712500", "162937.712500", "162939.712500", "162941.712500", "162943.712500", "162945.712500", "162947.712500", "162949.712500", "162951.712500", "162953.712500", "162955.712500", "162957.712500", "162959.712500", "163001.712500", "163003.712500", "163005.712500", "163007.712500", "163009.712500", "163011.712500", "163013.712500", "163015.712500", "163017.712500", "163019.712500", "163021.712500", "163023.712500", "163025.712500", "163027.712500", "163029.712500", "163031.712500", "163033.712500", "163035.712500", "163037.712500", "163039.712500", "163041.712500", "163043.712500", "163045.712500", "163047.712500", "163049.712500", "163051.712500", "163053.712500", "163055.712500", "163057.712500", "163059.712500", "163101.712500", "163103.712500", "163105.712500", "163107.712500", "163109.712500", "163111.712500", "163113.712500", "163115.712500", "163117.712500", "163119.712500", "163121.712500", "163123.712500", "163125.712500", "163127.712500", "163129.712500", "163131.712500", "163133.712500", "163135.712500", "163137.712500", "163139.712500", "163141.712500", "163143.712500", "163145.712500", "163147.712500", "163149.712500", "163151.712500", "163153.712500", "163155.712500", "163157.712500", "163159.712500", "163201.712500", "163203.712500", "163205.712500", "163207.712500", "163209.712500", "163211.712500", "163213.712500", "163215.712500", "163217.712500", "163219.712500", "163221.712500", "163223.712500", "163225.712500", "163227.712500", "163229.712500", "163231.712500", "163233.712500", "163235.712500", "163237.712500", "163239.712500", "163241.712500", "163243.712500", "163245.712500", "163247.712500", "163249.712500", "163251.712500", "163253.712500", "163255.712500", "163257.712500", "163259.712500", "163301.712500", "163303.712500", "163305.712500", "163307.712500", "163309.712500", "163311.712500", "163313.712500", "163315.712500", "163317.712500", "163319.712500", "163321.712500", "163323.712500", "163325.712500", "163327.712500", "163329.712500", "163331.712500", "163333.712500", "163335.712500", "163337.712500", "163339.712500", "163341.712500", "163343.712500", "163345.712500", "163347.712500", "163349.712500", "163351.712500", "163353.712500", "163355.712500", "163357.712500", "163359.712500", "163401.712500", "163403.712500", "163405.712500", "163407.712500", "163409.712500"],
      "ContentTime": ["162902.753000", "162904.248000", "162906.248000", "162908.248000", "162910.248000", "162912.248000", "162914.248000", "162916.248000", "162918.249000", "162920.249000", "162922.249000", "162924.249000", "162926.248000", "162928.249000", "162930.248000", "162932.248000", "162934.248000", "162936.248000", "162938.248000", "162940.248000", "162942.249000", "162944.249000", "162946.249000", "162948.248000", "162950.248000", "162952.249000", "162954.248000", "162956.249000", "162958.248000", "163000.249000", "163002.248000", "163004.247000", "163006.247000", "163008.248000", "163010.248000", "163012.249000", "163014.249000", "163016.248000", "163018.249000", "163020.248000", "163022.248000", "163024.249000", "163026.249000", "163028.249000", "163030.248000", "163032.248000", "163034.249000", "163036.249000", "163038.249000", "163040.247000", "163042.249000", "163044.249000", "163046.248000", "163048.249000", "163050.248000", "163052.249000", "163054.249000", "163056.248000", "163058.247000", "163100.249000", "163102.248000", "163104.248000", "163106.249000", "163108.248000", "163110.249000", "163112.249000", "163114.248000", "163116.248000", "163118.248000", "163120.248000", "163122.249000", "163124.249000", "163126.249000", "163128.248000", "163130.249000", "163132.247000", "163134.249000", "163136.249000", "163138.248000", "163140.249000", "163142.248000", "163144.248000", "163146.249000", "163148.249000", "163150.248000", "163152.248000", "163154.249000", "163156.249000", "163158.249000", "163200.249000", "163202.248000", "163204.249000", "163206.248000", "163208.248000", "163210.249000", "163212.249000", "163214.249000", "163216.249000", "163218.248000", "163220.249000", "163222.248000", "163224.248000", "163226.248000", "163228.248000", "163230.248000", "163232.248000", "163234.249000", "163236.248000", "163238.249000", "163240.249000", "163242.248000", "163244.249000", "163246.249000", "163248.248000", "163250.248000", "163252.249000", "163254.248000", "163256.249000", "163258.249000", "163300.248000", "163302.248000", "163304.249000", "163306.248000", "163308.248000", "163310.249000", "163312.249000", "163314.249000", "163316.249000", "163318.248000", "163320.249000", "163322.249000", "163324.249000", "163326.248000", "163328.249000", "163330.249000", "163332.249000", "163334.248000", "163336.248000", "163338.249000", "163340.249000", "163342.249000", "163344.249000", "163346.249000", "163348.248000", "163350.251000", "163352.248000", "163354.249000", "163356.248000", "163358.249000", "163400.248000", "163402.249000", "163404.248000", "163406.248000", "163408.248000", "163410.248000", "163411.964000"],
      "InstanceCreationTime": ["162902.753000", "162904.248000", "162906.248000", "162908.248000", "162910.248000", "162912.248000", "162914.248000", "162916.248000", "162918.249000", "162920.249000", "162922.249000", "162924.249000", "162926.248000", "162928.249000", "162930.248000", "162932.248000", "162934.248000", "162936.248000", "162938.248000", "162940.248000", "162942.249000", "162944.249000", "162946.249000", "162948.248000", "162950.248000", "162952.249000", "162954.248000", "162956.249000", "162958.248000", "163000.249000", "163002.248000", "163004.247000", "163006.247000", "163008.248000", "163010.248000", "163012.249000", "163014.249000", "163016.248000", "163018.249000", "163020.248000", "163022.248000", "163024.249000", "163026.249000", "163028.249000", "163030.248000", "163032.248000", "163034.249000", "163036.249000", "163038.249000", "163040.247000", "163042.249000", "163044.249000", "163046.248000", "163048.249000", "163050.248000", "163052.249000", "163054.249000", "163056.248000", "163058.247000", "163100.249000", "163102.248000", "163104.248000", "163106.249000", "163108.248000", "163110.249000", "163112.249000", "163114.248000", "163116.248000", "163118.248000", "163120.248000", "163122.249000", "163124.249000", "163126.249000", "163128.248000", "163130.249000", "163132.247000", "163134.249000", "163136.249000", "163138.248000", "163140.249000", "163142.248000", "163144.248000", "163146.249000", "163148.249000", "163150.248000", "163152.248000", "163154.249000", "163156.249000", "163158.249000", "163200.249000", "163202.248000", "163204.249000", "163206.248000", "163208.248000", "163210.249000", "163212.249000", "163214.249000", "163216.249000", "163218.248000", "163220.249000", "163222.248000", "163224.248000", "163226.248000", "163228.248000", "163230.248000", "163232.248000", "163234.249000", "163236.248000", "163238.249000", "163240.249000", "163242.248000", "163244.249000", "163246.249000", "163248.248000", "163250.248000", "163252.249000", "163254.248000", "163256.249000", "163258.249000", "163300.248000", "163302.248000", "163304.249000", "163306.248000", "163308.248000", "163310.249000", "163312.249000", "163314.249000", "163316.249000", "163318.248000", "163320.249000", "163322.249000", "163324.249000", "163326.248000", "163328.249000", "163330.249000", "163332.249000", "163334.248000", "163336.248000", "163338.249000", "163340.249000", "163342.249000", "163344.249000", "163346.249000", "163348.248000", "163350.251000", "163352.248000", "163354.249000", "163356.248000", "163358.249000", "163400.248000", "163402.249000", "163404.248000", "163406.248000", "163408.248000", "163410.248000", "163411.964000"],
      "InstanceNumber": [1, 2, 3, 4, 5, 6, 7, 8, 9, 10, 11, 12, 13, 14, 15, 16, 17, 18, 19, 20, 21, 22, 23, 24, 25, 26, 27, 28, 29, 30, 31, 32, 33, 34, 35, 36, 37, 38, 39, 40, 41, 42, 43, 44, 45, 46, 47, 48, 49, 50, 51, 52, 53, 54, 55, 56, 57, 58, 59, 60, 61, 62, 63, 64, 65, 66, 67, 68, 69, 70, 71, 72, 73, 74, 75, 76, 77, 78, 79, 80, 81, 82, 83, 84, 85, 86, 87, 88, 89, 90, 91, 92, 93, 94, 95, 96, 97, 98, 99, 100, 101, 102, 103, 104, 105, 106, 107, 108, 109, 110, 111, 112, 113, 114, 115, 116, 117, 118, 119, 120, 121, 122, 123, 124, 125, 126, 127, 128, 129, 130, 131, 132, 133, 134, 135, 136, 137, 138, 139, 140, 141, 142, 143, 144, 145, 146, 147, 148, 149, 150, 151, 152, 153, 154, 155, 156],
      "LargestImagePixelValue": [2566, 2554, 2575, 2484, 2505, 2555, 2529, 2549, 2544, 2543, 2513, 2536, 2489, 2505, 2536, 2556, 2561, 2536, 2508, 2587, 2576, 2566, 2545, 2562, 2594, 2527, 2590, 2560, 2622, 2531, 2539, 2533, 2533, 2591, 2579, 2595, 2563, 2564, 2586, 2543, 2555, 2567, 2529, 2504, 2527, 2562, 2512, 2516, 2534, 2528, 2592, 2562, 2543, 2586, 2567, 2545, 2567, 2538, 2580, 2566, 2548, 2564, 2563, 2549, 2541, 2578, 2506, 2508, 2545, 2499, 2530, 2527, 2594, 2519, 2561, 2609, 2570, 2615, 2555, 2607, 2554, 2557, 2564, 2596, 2596, 2610, 2580, 2563, 2572, 2532, 2531, 2537, 2593, 2596, 2569, 2622, 2619, 2573, 2611, 2586, 2566, 2587, 2550, 2560, 2573, 2570, 2588, 2544, 2536, 2560, 2594, 2591, 2523, 2576, 2614, 2521, 2557, 2605, 2570, 2567, 2564, 2529, 2555, 2502, 2552, 2577, 2514, 2541, 2572, 2511, 2588, 2521, 2538, 2554, 2522, 2559, 2616, 2564, 2531, 2582, 2535, 2569, 2589, 2529, 2591, 2501, 2551, 2570, 2534, 2533, 2573, 2479, 2519, 2549, 2578, 2523],
      "WindowCenter": [727.0, 724.0, 724.0, 726.0, 726.0, 726.0, 723.0, 724.0, 724.0, 724.0, 724.0, 725.0, 725.0, 724.0, 725.0, 724.0, 725.0, 725.0, 724.0, 725.0, 727.0, 728.0, 727.0, 726.0, 726.0, 725.0, 726.0, 725.0, 726.0, 724.0, 724.0, 725.0, 726.0, 726.0, 726.0, 728.0, 727.0, 726.0, 726.0, 726.0, 727.0, 728.0, 727.0, 725.0, 724.0, 724.0, 724.0, 724.0, 726.0, 725.0, 726.0, 726.0, 725.0, 725.0, 725.0, 726.0, 725.0, 724.0, 725.0, 725.0, 726.0, 725.0, 724.0, 724.0, 727.0, 728.0, 725.0, 724.0, 725.0, 724.0, 725.0, 725.0, 726.0, 724.0, 725.0, 725.0, 726.0, 727.0, 726.0, 726.0, 725.0, 725.0, 727.0, 726.0, 725.0, 724.0, 724.0, 723.0, 724.0, 725.0, 725.0, 723.0, 722.0, 722.0, 722.0, 723.0, 725.0, 725.0, 727.0, 726.0, 726.0, 725.0, 724.0, 723.0, 725.0, 724.0, 727.0, 726.0, 724.0, 726.0, 727.0, 726.0, 725.0, 725.0, 725.0, 725.0, 727.0, 726.0, 726.0, 727.0, 726.0, 726.0, 729.0, 727.0, 727.0, 725.0, 724.0, 725.0, 727.0, 725.0, 724.0, 725.0, 727.0, 726.0, 724.0, 723.0, 725.0, 725.0, 724.0, 725.0, 726.0, 725.0, 726.0, 725.0, 727.0, 728.0, 729.0, 727.0, 726.0, 725.0, 726.0, 727.0, 728.0, 727.0, 728.0, 727.0],
      "WindowWidth": [1542.0, 1533.0, 1534.0, 1539.0, 1541.0, 1539.0, 1533.0, 1534.0, 1536.0, 1534.0, 1536.0, 1537.0, 1538.0, 1536.0, 1537.0, 1534.0, 1537.0, 1537.0, 1536.0, 1537.0, 1542.0, 1545.0, 1543.0, 1538.0, 1538.0, 1537.0, 1539.0, 1538.0, 1538.0, 1535.0, 1533.0, 1537.0, 1539.0, 1538.0, 1539.0, 1544.0, 1541.0, 1537.0, 1538.0, 1538.0, 1541.0, 1545.0, 1542.0, 1537.0, 1534.0, 1535.0, 1534.0, 1535.0, 1538.0, 1536.0, 1539.0, 1538.0, 1536.0, 1535.0, 1535.0, 1538.0, 1537.0, 1534.0, 1535.0, 1536.0, 1538.0, 1537.0, 1534.0, 1535.0, 1540.0, 1545.0, 1537.0, 1534.0, 1537.0, 1533.0, 1536.0, 1536.0, 1539.0, 1535.0, 1538.0, 1538.0, 1539.0, 1543.0, 1538.0, 1538.0, 1536.0, 1537.0, 1541.0, 1538.0, 1537.0, 1535.0, 1534.0, 1531.0, 1534.0, 1538.0, 1537.0, 1531.0, 1529.0, 1529.0, 1528.0, 1533.0, 1536.0, 1538.0, 1541.0, 1539.0, 1539.0, 1537.0, 1534.0, 1533.0, 1537.0, 1535.0, 1541.0, 1539.0, 1534.0, 1539.0, 1541.0, 1539.0, 1537.0, 1536.0, 1536.0, 1537.0, 1541.0, 1540.0, 1540.0, 1541.0, 1539.0, 1541.0, 1546.0, 1543.0, 1542.0, 1536.0, 1535.0, 1538.0, 1541.0, 1538.0, 1534.0, 1535.0, 1541.0, 1538.0, 1534.0, 1532.0, 1536.0, 1536.0, 1534.0, 1536.0, 1538.0, 1537.0, 1537.0, 1536.0, 1541.0, 1545.0, 1546.0, 1542.0, 1538.0, 1537.0, 1539.0, 1542.0, 1543.0, 1541.0, 1543.0, 1541.0]
    },
    "slices": {}
  }
}