{
  "AcquisitionMatrixPE": 100,
  "AcquisitionNumber": 1,
  "AcquisitionTime": "16:13:37.630000",
  "BandwidthPerPixelPhaseEncode": 18.519,
  "BaseResolution": 100,
  "BodyPartExamined": "BRAIN",
  "CoilCombinationMethod": "Sum of Squares",
  "ConsistencyInfo": "N4_VE11C_LATEST_20160120",
  "ConversionSoftware": "dcm2niix",
  "ConversionSoftwareVersion": "v1.0.20211006",
  "DerivedVendorReportedEchoSpacing": 0.000539986,
  "DeviceSerialNumber": "166078",
  "DwellTime": 2.1e-06,
  "EchoTime": 0.034,
  "EchoTrainLength": 100,
  "EffectiveEchoSpacing": 0.000539986,
  "FlipAngle": 90,
  "ImageOrientationPatientDICOM": [1, 0, 0, 0, 0.999903, -0.0139622],
  "ImageOrientationText": "Tra>Cor(-0.8)",
  "ImageType": [
    "ORIGINAL",
    "PRIMARY",
    "M",
    "ND",
    "MOSAIC"
],
  "ImagingFrequency": 123.258,
  "InPlanePhaseEncodingDirectionDICOM": "COL",
  "InstitutionAddress": "Street StreetNo,Bei Jing,District,CN,ZIP",
  "InstitutionName": "BeiJing Normal University",
  "InstitutionalDepartmentName": "Department",
  "MRAcquisitionType": "2D",
  "MagneticFieldStrength": 3,
  "Manufacturer": "Siemens",
  "ManufacturersModelName": "Prisma",
  "Modality": "MR",
  "MultibandAccelerationFactor": 3,
  "PartialFourier": 1,
  "PatientPosition": "HFS",
  "PercentPhaseFOV": 100,
  "PercentSampling": 100,
  "PhaseEncodingDirection": "j-",
  "PhaseEncodingSteps": 100,
  "PhaseResolution": 1,
  "PixelBandwidth": 2380,
  "ProcedureStepDescription": "BNU_P2018_64CH^Zhen.ZongLei",
  "ProtocolName": "bold_100x100_s3_2x2x2_static_156",
  "PulseSequenceDetails": "%SiemensSeq%\\ep2d_bold",
  "ReceiveCoilActiveElements": "HC1-7;NC1",
  "ReceiveCoilName": "HeadNeck_64",
  "ReconMatrixPE": 100,
  "RefLinesPE": 32,
  "RepetitionTime": 2,
  "SAR": 0.0796453,
  "ScanOptions": "FS",
  "ScanningSequence": "EP",
  "SequenceName": "*epfid2d1_100",
  "SequenceVariant": "SK",
  "SeriesDescription": "bold_100x100_s3_2x2x2_static_156",
  "SeriesNumber": 8,
  "ShimSetting": [-5469, -11543, -1272, 291, -62, -194, -9, 63],
  "SliceThickness": 2,
  "SliceTiming": [1.485, 0, 0.99, 0.0825, 1.0725, 0.165, 1.155, 0.2475, 1.2375, 0.33, 1.32, 0.4125, 1.4025, 0.5775, 1.5675, 0.66, 1.65, 0.7425, 1.7325, 0.825, 1.815, 0.9075, 1.8975, 0.495, 1.485, 0, 0.99, 0.0825, 1.0725, 0.165, 1.155, 0.2475, 1.2375, 0.33, 1.32, 0.4125, 1.4025, 0.5775, 1.5675, 0.66, 1.65, 0.7425, 1.7325, 0.825, 1.815, 0.9075, 1.8975, 0.495, 1.485, 0, 0.99, 0.0825, 1.0725, 0.165, 1.155, 0.2475, 1.2375, 0.33, 1.32, 0.4125, 1.4025, 0.5775, 1.5675, 0.66, 1.65, 0.7425, 1.7325, 0.825, 1.815, 0.9075, 1.8975, 0.495],
  "SoftwareVersions": "syngo MR E11",
  "SpacingBetweenSlices": 2,
  "StationName": "AWP166078",
  "TaskName": "action",
  "TotalReadoutTime": 0.0534586,
  "TxRefAmp": 213.971,
  "dcmmeta_affine": [
    [-2.0, 0.0, 0.0, 101.3559341430664],
    [0.0, 1.9998050928115845, -0.02792436257004738, -89.20736694335938],
    [0.0, 0.02792436257004738, 1.9998050928115845, -51.13134765625],
    [0.0, 0.0, 0.0, 1.0]
],
  "dcmmeta_reorient_transform": [
    [0.0, -1.0, 0.0, 99.0],
    [1.0, 0.0, 0.0, 0.0],
    [0.0, 0.0, 1.0, 0.0],
    [0.0, 0.0, 0.0, 1.0]
],
  "dcmmeta_shape": [100, 100, 72, 156],
  "dcmmeta_slice_dim": 2,
  "dcmmeta_version": 0.6,
  "global": {
    "const": {
      "AcquisitionMatrix": [100, 0, 0, 100],
      "AngioFlag": "N",
      "BitsAllocated": 16,
      "BitsStored": 12,
      "BodyPartExamined": "BRAIN",
      "Columns": 900,
      "EchoNumbers": 1,
      "EchoTime": 34.0,
      "EchoTrainLength": 100,
      "FlipAngle": 90.0,
      "HighBit": 11,
      "ImageOrientationPatient": [1.0, 0.0, 0.0, 0.0, 0.99990252399856, -0.0139621811089],
      "ImagePositionPatient": [-901.35593223572, -908.69535360707, -37.197090896012],
      "ImageType": [
        "ORIGINAL",
        "PRIMARY",
        "M",
        "ND",
        "MOSAIC"
],
      "ImagedNucleus": "1H",
      "ImagingFrequency": 123.257722,
      "InPlanePhaseEncodingDirection": "COL",
      "MRAcquisitionType": "2D",
      "MagneticFieldStrength": 3.0,
      "Manufacturer": "SIEMENS",
      "ManufacturerModelName": "Prisma",
      "Modality": "MR",
      "NumberOfAverages": 1.0,
      "NumberOfPhaseEncodingSteps": 100,
      "PercentPhaseFieldOfView": 100.0,
      "PercentSampling": 100.0,
      "PerformedProcedureStepStartTime": "153942.174000",
      "PhotometricInterpretation": "MONOCHROME2",
      "PixelBandwidth": 2380.0,
      "PixelRepresentation": 0,
      "PixelSpacing": [2.0, 2.0],
      "ProtocolName": "bold_100x100_s3_2x2x2_static_156",
      "RepetitionTime": 2000.0,
      "Rows": 900,
      "SAR": 0.07964531459085,
      "SamplesPerPixel": 1,
      "ScanOptions": "FS",
      "ScanningSequence": "EP",
      "SequenceName": "*epfid2d1_100",
      "SequenceVariant": "SK",
      "SeriesDescription": "bold_100x100_s3_2x2x2_static_156",
      "SeriesNumber": 8,
      "SeriesTime": "161339.968000",
      "SliceLocation": -49.880834172225,
      "SliceThickness": 2.0,
      "SmallestImagePixelValue": 0,
      "SoftwareVersions": "syngo MR E11",
      "SpacingBetweenSlices": 2.0000000262606,
      "SpecificCharacterSet": "ISO_IR 100",
      "StudyID": "1",
      "StudyTime": "153942.074000",
      "TransmitCoilName": "Body",
      "VariableFlipAngleFlag": "N",
      "WindowCenterWidthExplanation": "Algo1",
      "dBdt": 0.0},
    "slices": {}
  },
  "time": {
    "samples": {
      "AcquisitionNumber": [1, 2, 3, 4, 5, 6, 7, 8, 9, 10, 11, 12, 13, 14, 15, 16, 17, 18, 19, 20, 21, 22, 23, 24, 25, 26, 27, 28, 29, 30, 31, 32, 33, 34, 35, 36, 37, 38, 39, 40, 41, 42, 43, 44, 45, 46, 47, 48, 49, 50, 51, 52, 53, 54, 55, 56, 57, 58, 59, 60, 61, 62, 63, 64, 65, 66, 67, 68, 69, 70, 71, 72, 73, 74, 75, 76, 77, 78, 79, 80, 81, 82, 83, 84, 85, 86, 87, 88, 89, 90, 91, 92, 93, 94, 95, 96, 97, 98, 99, 100, 101, 102, 103, 104, 105, 106, 107, 108, 109, 110, 111, 112, 113, 114, 115, 116, 117, 118, 119, 120, 121, 122, 123, 124, 125, 126, 127, 128, 129, 130, 131, 132, 133, 134, 135, 136, 137, 138, 139, 140, 141, 142, 143, 144, 145, 146, 147, 148, 149, 150, 151, 152, 153, 154, 155, 156],
      "AcquisitionTime": ["161337.630000", "161339.630000", "161341.630000", "161343.630000", "161345.630000", "161347.630000", "161349.630000", "161351.630000", "161353.630000", "161355.630000", "161357.630000", "161359.630000", "161401.630000", "161403.630000", "161405.630000", "161407.630000", "161409.630000", "161411.630000", "161413.630000", "161415.630000", "161417.630000", "161419.630000", "161421.630000", "161423.630000", "161425.630000", "161427.630000", "161429.630000", "161431.630000", "161433.630000", "161435.630000", "161437.630000", "161439.630000", "161441.630000", "161443.630000", "161445.630000", "161447.630000", "161449.630000", "161451.630000", "161453.630000", "161455.630000", "161457.630000", "161459.630000", "161501.630000", "161503.630000", "161505.630000", "161507.630000", "161509.630000", "161511.630000", "161513.630000", "161515.630000", "161517.630000", "161519.630000", "161521.630000", "161523.630000", "161525.630000", "161527.630000", "161529.630000", "161531.630000", "161533.630000", "161535.630000", "161537.630000", "161539.630000", "161541.630000", "161543.630000", "161545.630000", "161547.630000", "161549.630000", "161551.630000", "161553.630000", "161555.630000", "161557.630000", "161559.630000", "161601.630000", "161603.630000", "161605.630000", "161607.630000", "161609.630000", "161611.630000", "161613.630000", "161615.630000", "161617.630000", "161619.630000", "161621.630000", "161623.630000", "161625.630000", "161627.630000", "161629.630000", "161631.630000", "161633.630000", "161635.630000", "161637.630000", "161639.630000", "161641.630000", "161643.630000", "161645.630000", "161647.630000", "161649.630000", "161651.630000", "161653.630000", "161655.630000", "161657.630000", "161659.630000", "161701.630000", "161703.630000", "161705.630000", "161707.630000", "161709.630000", "161711.630000", "161713.630000", "161715.630000", "161717.630000", "161719.630000", "161721.630000", "161723.630000", "161725.630000", "161727.630000", "161729.630000", "161731.630000", "161733.630000", "161735.630000", "161737.630000", "161739.630000", "161741.630000", "161743.630000", "161745.630000", "161747.630000", "161749.630000", "161751.630000", "161753.630000", "161755.630000", "161757.630000", "161759.630000", "161801.630000", "161803.630000", "161805.630000", "161807.630000", "161809.630000", "161811.630000", "161813.630000", "161815.630000", "161817.630000", "161819.630000", "161821.630000", "161823.630000", "161825.630000", "161827.630000", "161829.630000", "161831.630000", "161833.630000", "161835.630000", "161837.630000", "161839.630000", "161841.630000", "161843.630000", "161845.630000", "161847.630000"],
      "ContentTime": ["161339.971000", "161341.465000", "161343.465000", "161345.465000", "161347.466000", "161349.466000", "161351.466000", "161353.466000", "161355.466000", "161357.466000", "161359.465000", "161401.465000", "161403.465000", "161405.466000", "161407.466000", "161409.466000", "161411.466000", "161413.466000", "161415.466000", "161417.466000", "161419.465000", "161421.465000", "161423.466000", "161425.466000", "161427.486000", "161429.466000", "161431.466000", "161433.466000", "161435.466000", "161437.466000", "161439.466000", "161441.466000", "161443.467000", "161445.467000", "161447.467000", "161449.467000", "161451.465000", "161453.466000", "161455.466000", "161457.467000", "161459.467000", "161501.466000", "161503.466000", "161505.467000", "161507.467000", "161509.466000", "161511.466000", "161513.466000", "161515.467000", "161517.467000", "161519.467000", "161521.466000", "161523.467000", "161525.467000", "161527.466000", "161529.466000", "161531.466000", "161533.467000", "161535.467000", "161537.467000", "161539.467000", "161541.467000", "161543.466000", "161545.465000", "161547.466000", "161549.465000", "161551.466000", "161553.467000", "161555.466000", "161557.466000", "161559.466000", "161601.466000", "161603.465000", "161605.465000", "161607.466000", "161609.467000", "161611.467000", "161613.466000", "161615.466000", "161617.467000", "161619.466000", "161621.466000", "161623.466000", "161625.467000", "161627.466000", "161629.467000", "161631.467000", "161633.467000", "161635.466000", "161637.466000", "161639.466000", "161641.465000", "161643.467000", "161645.467000", "161647.466000", "161649.466000", "161651.466000", "161653.467000", "161655.465000", "161657.465000", "161659.465000", "161701.467000", "161703.466000", "161705.467000", "161707.467000", "161709.467000", "161711.466000", "161713.465000", "161715.466000", "161717.466000", "161719.467000", "161721.467000", "161723.467000", "161725.466000", "161727.466000", "161729.466000", "161731.466000", "161733.465000", "161735.467000", "161737.466000", "161739.467000", "161741.466000", "161743.466000", "161745.466000", "161747.465000", "161749.465000", "161751.465000", "161753.466000", "161755.467000", "161757.467000", "161759.466000", "161801.467000", "161803.473000", "161805.465000", "161807.465000", "161809.466000", "161811.467000", "161813.467000", "161815.466000", "161817.467000", "161819.467000", "161821.466000", "161823.465000", "161825.466000", "161827.466000", "161829.466000", "161831.467000", "161833.466000", "161835.466000", "161837.467000", "161839.466000", "161841.465000", "161843.465000", "161845.466000", "161847.466000", "161849.346000"],
      "InstanceCreationTime": ["161339.971000", "161341.465000", "161343.465000", "161345.465000", "161347.466000", "161349.466000", "161351.466000", "161353.466000", "161355.466000", "161357.466000", "161359.465000", "161401.465000", "161403.465000", "161405.466000", "161407.466000", "161409.466000", "161411.466000", "161413.466000", "161415.466000", "161417.466000", "161419.465000", "161421.465000", "161423.466000", "161425.466000", "161427.486000", "161429.466000", "161431.466000", "161433.466000", "161435.466000", "161437.466000", "161439.466000", "161441.466000", "161443.467000", "161445.467000", "161447.467000", "161449.467000", "161451.465000", "161453.466000", "161455.466000", "161457.467000", "161459.467000", "161501.466000", "161503.466000", "161505.467000", "161507.467000", "161509.466000", "161511.466000", "161513.466000", "161515.467000", "161517.467000", "161519.467000", "161521.466000", "161523.467000", "161525.467000", "161527.466000", "161529.466000", "161531.466000", "161533.467000", "161535.467000", "161537.467000", "161539.467000", "161541.467000", "161543.466000", "161545.465000", "161547.466000", "161549.465000", "161551.466000", "161553.467000", "161555.466000", "161557.466000", "161559.466000", "161601.466000", "161603.465000", "161605.465000", "161607.466000", "161609.467000", "161611.467000", "161613.466000", "161615.466000", "161617.467000", "161619.466000", "161621.466000", "161623.466000", "161625.467000", "161627.466000", "161629.467000", "161631.467000", "161633.467000", "161635.466000", "161637.466000", "161639.466000", "161641.465000", "161643.467000", "161645.467000", "161647.466000", "161649.466000", "161651.466000", "161653.467000", "161655.465000", "161657.465000", "161659.465000", "161701.467000", "161703.466000", "161705.467000", "161707.467000", "161709.467000", "161711.466000", "161713.465000", "161715.466000", "161717.466000", "161719.467000", "161721.467000", "161723.467000", "161725.466000", "161727.466000", "161729.466000", "161731.466000", "161733.465000", "161735.467000", "161737.466000", "161739.467000", "161741.466000", "161743.466000", "161745.466000", "161747.465000", "161749.465000", "161751.465000", "161753.466000", "161755.467000", "161757.467000", "161759.466000", "161801.467000", "161803.473000", "161805.465000", "161807.465000", "161809.466000", "161811.467000", "161813.467000", "161815.466000", "161817.467000", "161819.467000", "161821.466000", "161823.465000", "161825.466000", "161827.466000", "161829.466000", "161831.467000", "161833.466000", "161835.466000", "161837.467000", "161839.466000", "161841.465000", "161843.465000", "161845.466000", "161847.466000", "161849.346000"],
      "InstanceNumber": [1, 2, 3, 4, 5, 6, 7, 8, 9, 10, 11, 12, 13, 14, 15, 16, 17, 18, 19, 20, 21, 22, 23, 24, 25, 26, 27, 28, 29, 30, 31, 32, 33, 34, 35, 36, 37, 38, 39, 40, 41, 42, 43, 44, 45, 46, 47, 48, 49, 50, 51, 52, 53, 54, 55, 56, 57, 58, 59, 60, 61, 62, 63, 64, 65, 66, 67, 68, 69, 70, 71, 72, 73, 74, 75, 76, 77, 78, 79, 80, 81, 82, 83, 84, 85, 86, 87, 88, 89, 90, 91, 92, 93, 94, 95, 96, 97, 98, 99, 100, 101, 102, 103, 104, 105, 106, 107, 108, 109, 110, 111, 112, 113, 114, 115, 116, 117, 118, 119, 120, 121, 122, 123, 124, 125, 126, 127, 128, 129, 130, 131, 132, 133, 134, 135, 136, 137, 138, 139, 140, 141, 142, 143, 144, 145, 146, 147, 148, 149, 150, 151, 152, 153, 154, 155, 156],
      "LargestImagePixelValue": [2780, 2734, 2665, 2657, 2618, 2686, 2676, 2639, 2659, 2691, 2653, 2708, 2643, 2656, 2669, 2689, 2753, 2695, 2676, 2700, 2692, 2710, 2667, 2690, 2653, 2659, 2721, 2681, 2680, 2661, 2696, 2683, 2660, 2709, 2713, 2722, 2734, 2742, 2670, 2704, 2721, 2730, 2729, 2688, 2723, 2746, 2723, 2727, 2722, 2746, 2744, 2727, 2745, 2740, 2722, 2693, 2750, 2769, 2750, 2721, 2692, 2728, 2762, 2737, 2794, 2748, 2784, 2781, 2711, 2763, 2710, 2736, 2760, 2753, 2744, 2721, 2739, 2712, 2715, 2716, 2707, 2745, 2707, 2750, 2746, 2707, 2744, 2670, 2748, 2765, 2693, 2727, 2746, 2688, 2725, 2670, 2743, 2655, 2704, 2722, 2684, 2673, 2740, 2713, 2690, 2735, 2691, 2719, 2739, 2707, 2698, 2764, 2688, 2717, 2673, 2705, 2703, 2719, 2716, 2684, 2717, 2663, 2712, 2684, 2704, 2719, 2684, 2684, 2753, 2731, 2708, 2737, 2736, 2742, 2728, 2727, 2766, 2671, 2740, 2759, 2719, 2802, 2735, 2750, 2789, 2701, 2754, 2771, 2794, 2763, 2740, 2779, 2748, 2774, 2750, 2735],
      "WindowCenter": [733.0, 731.0, 731.0, 732.0, 732.0, 732.0, 732.0, 731.0, 732.0, 732.0, 732.0, 732.0, 731.0, 731.0, 731.0, 732.0, 733.0, 731.0, 730.0, 730.0, 731.0, 732.0, 731.0, 731.0, 730.0, 730.0, 732.0, 731.0, 732.0, 731.0, 731.0, 730.0, 731.0, 731.0, 730.0, 731.0, 731.0, 732.0, 731.0, 731.0, 731.0, 732.0, 731.0, 731.0, 732.0, 732.0, 731.0, 731.0, 731.0, 732.0, 733.0, 732.0, 731.0, 730.0, 731.0, 731.0, 731.0, 731.0, 731.0, 731.0, 732.0, 732.0, 732.0, 731.0, 731.0, 731.0, 731.0, 731.0, 731.0, 731.0, 732.0, 732.0, 733.0, 732.0, 733.0, 732.0, 731.0, 731.0, 731.0, 731.0, 731.0, 732.0, 732.0, 732.0, 733.0, 733.0, 734.0, 733.0, 732.0, 731.0, 731.0, 731.0, 732.0, 732.0, 734.0, 732.0, 732.0, 731.0, 732.0, 732.0, 731.0, 731.0, 732.0, 732.0, 733.0, 731.0, 732.0, 731.0, 732.0, 732.0, 732.0, 733.0, 733.0, 733.0, 732.0, 732.0, 733.0, 733.0, 733.0, 732.0, 732.0, 732.0, 731.0, 732.0, 732.0, 733.0, 731.0, 732.0, 732.0, 733.0, 733.0, 732.0, 732.0, 731.0, 733.0, 733.0, 733.0, 733.0, 733.0, 733.0, 733.0, 731.0, 732.0, 735.0, 736.0, 733.0, 731.0, 732.0, 732.0, 732.0, 732.0, 731.0, 731.0, 731.0, 732.0, 731.0],
      "WindowWidth": [1558.0, 1553.0, 1553.0, 1554.0, 1555.0, 1555.0, 1555.0, 1552.0, 1555.0, 1555.0, 1555.0, 1557.0, 1552.0, 1554.0, 1553.0, 1555.0, 1557.0, 1552.0, 1551.0, 1551.0, 1553.0, 1554.0, 1554.0, 1552.0, 1551.0, 1550.0, 1554.0, 1553.0, 1555.0, 1554.0, 1553.0, 1551.0, 1553.0, 1553.0, 1551.0, 1552.0, 1552.0, 1554.0, 1554.0, 1553.0, 1554.0, 1555.0, 1553.0, 1552.0, 1554.0, 1556.0, 1553.0, 1553.0, 1554.0, 1556.0, 1558.0, 1554.0, 1553.0, 1551.0, 1552.0, 1553.0, 1554.0, 1552.0, 1552.0, 1553.0, 1555.0, 1556.0, 1556.0, 1553.0, 1553.0, 1552.0, 1553.0, 1553.0, 1553.0, 1554.0, 1555.0, 1556.0, 1558.0, 1555.0, 1556.0, 1554.0, 1553.0, 1553.0, 1552.0, 1554.0, 1554.0, 1554.0, 1556.0, 1556.0, 1558.0, 1558.0, 1559.0, 1557.0, 1555.0, 1553.0, 1552.0, 1552.0, 1556.0, 1556.0, 1559.0, 1556.0, 1555.0, 1553.0, 1554.0, 1556.0, 1553.0, 1553.0, 1554.0, 1556.0, 1557.0, 1554.0, 1554.0, 1554.0, 1555.0, 1554.0, 1554.0, 1558.0, 1558.0, 1558.0, 1556.0, 1556.0, 1558.0, 1556.0, 1557.0, 1555.0, 1555.0, 1554.0, 1554.0, 1554.0, 1556.0, 1557.0, 1552.0, 1554.0, 1556.0, 1557.0, 1558.0, 1555.0, 1555.0, 1553.0, 1557.0, 1558.0, 1558.0, 1557.0, 1557.0, 1557.0, 1557.0, 1553.0, 1555.0, 1563.0, 1565.0, 1557.0, 1553.0, 1554.0, 1556.0, 1556.0, 1555.0, 1553.0, 1553.0, 1553.0, 1554.0, 1552.0]
    },
    "slices": {}
  }
}