{
  "AcquisitionMatrixPE": 100,
  "AcquisitionNumber": 1,
  "AcquisitionTime": "15:55:58.935000",
  "BandwidthPerPixelPhaseEncode": 18.519,
  "BaseResolution": 100,
  "BodyPartExamined": "BRAIN",
  "CoilCombinationMethod": "Sum of Squares",
  "ConsistencyInfo": "N4_VE11C_LATEST_20160120",
  "ConversionSoftware": "dcm2niix",
  "ConversionSoftwareVersion": "v1.0.20211006",
  "DerivedVendorReportedEchoSpacing": 0.000539986,
  "DeviceSerialNumber": "166078",
  "DwellTime": 2.1e-06,
  "EchoTime": 0.034,
  "EchoTrainLength": 100,
  "EffectiveEchoSpacing": 0.000539986,
  "FlipAngle": 90,
  "ImageOrientationPatientDICOM": [1, 0, 0, 0, 0.999903, -0.0139622],
  "ImageOrientationText": "Tra>Cor(-0.8)",
  "ImageType": [
    "ORIGINAL",
    "PRIMARY",
    "M",
    "ND",
    "MOSAIC"
],
  "ImagingFrequency": 123.258,
  "InPlanePhaseEncodingDirectionDICOM": "COL",
  "InstitutionAddress": "Street StreetNo,Bei Jing,District,CN,ZIP",
  "InstitutionName": "BeiJing Normal University",
  "InstitutionalDepartmentName": "Department",
  "MRAcquisitionType": "2D",
  "MagneticFieldStrength": 3,
  "Manufacturer": "Siemens",
  "ManufacturersModelName": "Prisma",
  "Modality": "MR",
  "MultibandAccelerationFactor": 3,
  "PartialFourier": 1,
  "PatientPosition": "HFS",
  "PercentPhaseFOV": 100,
  "PercentSampling": 100,
  "PhaseEncodingDirection": "j-",
  "PhaseEncodingSteps": 100,
  "PhaseResolution": 1,
  "PixelBandwidth": 2380,
  "ProcedureStepDescription": "BNU_P2018_64CH^Zhen.ZongLei",
  "ProtocolName": "bold_100x100_s3_2x2x2_static_156",
  "PulseSequenceDetails": "%SiemensSeq%\\ep2d_bold",
  "ReceiveCoilActiveElements": "HC1-7;NC1",
  "ReceiveCoilName": "HeadNeck_64",
  "ReconMatrixPE": 100,
  "RefLinesPE": 32,
  "RepetitionTime": 2,
  "SAR": 0.0796453,
  "ScanOptions": "FS",
  "ScanningSequence": "EP",
  "SequenceName": "*epfid2d1_100",
  "SequenceVariant": "SK",
  "SeriesDescription": "bold_100x100_s3_2x2x2_static_156",
  "SeriesNumber": 5,
  "ShimSetting": [-5469, -11543, -1272, 291, -62, -194, -9, 63],
  "SliceThickness": 2,
  "SliceTiming": [1.485, 0, 0.99, 0.0825, 1.0725, 0.165, 1.155, 0.2475, 1.2375, 0.33, 1.32, 0.4125, 1.4025, 0.5775, 1.5675, 0.66, 1.65, 0.7425, 1.7325, 0.825, 1.815, 0.9075, 1.8975, 0.495, 1.485, 0, 0.99, 0.0825, 1.0725, 0.165, 1.155, 0.2475, 1.2375, 0.33, 1.32, 0.4125, 1.4025, 0.5775, 1.5675, 0.66, 1.65, 0.7425, 1.7325, 0.825, 1.815, 0.9075, 1.8975, 0.495, 1.485, 0, 0.99, 0.0825, 1.0725, 0.165, 1.155, 0.2475, 1.2375, 0.33, 1.32, 0.4125, 1.4025, 0.5775, 1.5675, 0.66, 1.65, 0.7425, 1.7325, 0.825, 1.815, 0.9075, 1.8975, 0.495],
  "SoftwareVersions": "syngo MR E11",
  "SpacingBetweenSlices": 2,
  "StationName": "AWP166078",
  "TaskName": "action",
  "TotalReadoutTime": 0.0534586,
  "TxRefAmp": 213.971,
  "dcmmeta_affine": [
    [-2.0, 0.0, 0.0, 101.3559341430664],
    [0.0, 1.9998050928115845, -0.02792436257004738, -89.20736694335938],
    [0.0, 0.02792436257004738, 1.9998050928115845, -51.13134765625],
    [0.0, 0.0, 0.0, 1.0]
],
  "dcmmeta_reorient_transform": [
    [0.0, -1.0, 0.0, 99.0],
    [1.0, 0.0, 0.0, 0.0],
    [0.0, 0.0, 1.0, 0.0],
    [0.0, 0.0, 0.0, 1.0]
],
  "dcmmeta_shape": [100, 100, 72, 156],
  "dcmmeta_slice_dim": 2,
  "dcmmeta_version": 0.6,
  "global": {
    "const": {
      "AcquisitionMatrix": [100, 0, 0, 100],
      "AngioFlag": "N",
      "BitsAllocated": 16,
      "BitsStored": 12,
      "BodyPartExamined": "BRAIN",
      "Columns": 900,
      "EchoNumbers": 1,
      "EchoTime": 34.0,
      "EchoTrainLength": 100,
      "FlipAngle": 90.0,
      "HighBit": 11,
      "ImageOrientationPatient": [1.0, 0.0, 0.0, 0.0, 0.99990252399856, -0.0139621811089],
      "ImagePositionPatient": [-901.35593223572, -908.69535360707, -37.197090896012],
      "ImageType": [
        "ORIGINAL",
        "PRIMARY",
        "M",
        "ND",
        "MOSAIC"
],
      "ImagedNucleus": "1H",
      "ImagingFrequency": 123.257718,
      "InPlanePhaseEncodingDirection": "COL",
      "MRAcquisitionType": "2D",
      "MagneticFieldStrength": 3.0,
      "Manufacturer": "SIEMENS",
      "ManufacturerModelName": "Prisma",
      "Modality": "MR",
      "NumberOfAverages": 1.0,
      "NumberOfPhaseEncodingSteps": 100,
      "PercentPhaseFieldOfView": 100.0,
      "PercentSampling": 100.0,
      "PerformedProcedureStepStartTime": "153942.174000",
      "PhotometricInterpretation": "MONOCHROME2",
      "PixelBandwidth": 2380.0,
      "PixelRepresentation": 0,
      "PixelSpacing": [2.0, 2.0],
      "ProtocolName": "bold_100x100_s3_2x2x2_static_156",
      "RepetitionTime": 2000.0,
      "Rows": 900,
      "SAR": 0.07964531459085,
      "SamplesPerPixel": 1,
      "ScanOptions": "FS",
      "ScanningSequence": "EP",
      "SequenceName": "*epfid2d1_100",
      "SequenceVariant": "SK",
      "SeriesDescription": "bold_100x100_s3_2x2x2_static_156",
      "SeriesNumber": 5,
      "SeriesTime": "155600.916000",
      "SliceLocation": -49.880834172225,
      "SliceThickness": 2.0,
      "SmallestImagePixelValue": 0,
      "SoftwareVersions": "syngo MR E11",
      "SpacingBetweenSlices": 2.0000000262606,
      "SpecificCharacterSet": "ISO_IR 100",
      "StudyID": "1",
      "StudyTime": "153942.074000",
      "TransmitCoilName": "Body",
      "VariableFlipAngleFlag": "N",
      "WindowCenterWidthExplanation": "Algo1",
      "dBdt": 0.0},
    "slices": {}
  },
  "time": {
    "samples": {
      "AcquisitionNumber": [1, 2, 3, 4, 5, 6, 7, 8, 9, 10, 11, 12, 13, 14, 15, 16, 17, 18, 19, 20, 21, 22, 23, 24, 25, 26, 27, 28, 29, 30, 31, 32, 33, 34, 35, 36, 37, 38, 39, 40, 41, 42, 43, 44, 45, 46, 47, 48, 49, 50, 51, 52, 53, 54, 55, 56, 57, 58, 59, 60, 61, 62, 63, 64, 65, 66, 67, 68, 69, 70, 71, 72, 73, 74, 75, 76, 77, 78, 79, 80, 81, 82, 83, 84, 85, 86, 87, 88, 89, 90, 91, 92, 93, 94, 95, 96, 97, 98, 99, 100, 101, 102, 103, 104, 105, 106, 107, 108, 109, 110, 111, 112, 113, 114, 115, 116, 117, 118, 119, 120, 121, 122, 123, 124, 125, 126, 127, 128, 129, 130, 131, 132, 133, 134, 135, 136, 137, 138, 139, 140, 141, 142, 143, 144, 145, 146, 147, 148, 149, 150, 151, 152, 153, 154, 155, 156],
      "AcquisitionTime": ["155558.935000", "155600.935000", "155602.935000", "155604.935000", "155606.935000", "155608.935000", "155610.935000", "155612.935000", "155614.935000", "155616.935000", "155618.935000", "155620.935000", "155622.935000", "155624.935000", "155626.935000", "155628.935000", "155630.935000", "155632.935000", "155634.935000", "155636.935000", "155638.935000", "155640.935000", "155642.935000", "155644.935000", "155646.935000", "155648.935000", "155650.935000", "155652.935000", "155654.935000", "155656.935000", "155658.935000", "155700.935000", "155702.935000", "155704.935000", "155706.935000", "155708.935000", "155710.935000", "155712.935000", "155714.935000", "155716.935000", "155718.935000", "155720.935000", "155722.935000", "155724.935000", "155726.935000", "155728.935000", "155730.935000", "155732.935000", "155734.935000", "155736.935000", "155738.935000", "155740.935000", "155742.935000", "155744.935000", "155746.935000", "155748.935000", "155750.935000", "155752.935000", "155754.935000", "155756.935000", "155758.935000", "155800.935000", "155802.935000", "155804.935000", "155806.935000", "155808.935000", "155810.935000", "155812.935000", "155814.935000", "155816.935000", "155818.935000", "155820.935000", "155822.935000", "155824.935000", "155826.935000", "155828.935000", "155830.935000", "155832.935000", "155834.935000", "155836.935000", "155838.935000", "155840.935000", "155842.935000", "155844.935000", "155846.935000", "155848.935000", "155850.935000", "155852.935000", "155854.935000", "155856.935000", "155858.935000", "155900.935000", "155902.935000", "155904.935000", "155906.935000", "155908.935000", "155910.935000", "155912.935000", "155914.935000", "155916.935000", "155918.935000", "155920.935000", "155922.935000", "155924.935000", "155926.935000", "155928.935000", "155930.935000", "155932.935000", "155934.935000", "155936.935000", "155938.935000", "155940.935000", "155942.935000", "155944.935000", "155946.935000", "155948.935000", "155950.935000", "155952.935000", "155954.935000", "155956.935000", "155958.935000", "160000.935000", "160002.935000", "160004.935000", "160006.935000", "160008.935000", "160010.935000", "160012.935000", "160014.935000", "160016.935000", "160018.935000", "160020.935000", "160022.935000", "160024.935000", "160026.935000", "160028.935000", "160030.935000", "160032.935000", "160034.935000", "160036.935000", "160038.935000", "160040.935000", "160042.935000", "160044.935000", "160046.935000", "160048.935000", "160050.935000", "160052.935000", "160054.935000", "160056.935000", "160058.935000", "160100.935000", "160102.935000", "160104.935000", "160106.935000", "160108.935000"],
      "ContentTime": ["155600.919000", "155602.415000", "155604.414000", "155606.415000", "155608.414000", "155610.415000", "155612.414000", "155614.414000", "155616.414000", "155618.414000", "155620.415000", "155622.414000", "155624.415000", "155626.414000", "155628.414000", "155630.415000", "155632.415000", "155634.415000", "155636.414000", "155638.414000", "155640.914000", "155642.415000", "155644.414000", "155646.915000", "155648.414000", "155650.414000", "155652.414000", "155654.414000", "155656.415000", "155658.415000", "155700.414000", "155702.414000", "155704.415000", "155706.414000", "155708.414000", "155710.413000", "155712.414000", "155714.415000", "155716.415000", "155718.415000", "155720.414000", "155722.414000", "155724.414000", "155726.415000", "155728.414000", "155730.414000", "155732.414000", "155734.414000", "155736.414000", "155738.415000", "155740.414000", "155742.414000", "155744.415000", "155746.414000", "155748.415000", "155750.414000", "155752.415000", "155754.914000", "155756.414000", "155758.415000", "155800.414000", "155802.414000", "155804.415000", "155806.415000", "155808.914000", "155810.414000", "155812.415000", "155814.915000", "155816.414000", "155818.414000", "155820.413000", "155822.415000", "155824.415000", "155826.414000", "155828.415000", "155830.414000", "155832.415000", "155834.415000", "155836.414000", "155838.414000", "155840.414000", "155842.915000", "155844.415000", "155846.414000", "155848.914000", "155850.414000", "155852.415000", "155854.414000", "155856.414000", "155858.414000", "155900.415000", "155902.434000", "155904.414000", "155906.415000", "155908.414000", "155910.914000", "155912.415000", "155914.415000", "155916.414000", "155918.415000", "155920.414000", "155922.415000", "155924.416000", "155926.415000", "155928.414000", "155930.413000", "155932.414000", "155934.914000", "155936.414000", "155938.414000", "155940.914000", "155942.415000", "155944.415000", "155946.414000", "155948.414000", "155950.414000", "155952.414000", "155954.415000", "155956.414000", "155958.415000", "160000.414000", "160002.415000", "160004.415000", "160006.414000", "160008.414000", "160010.415000", "160012.414000", "160014.414000", "160016.415000", "160018.414000", "160020.415000", "160022.415000", "160024.415000", "160026.415000", "160028.414000", "160030.415000", "160032.414000", "160034.415000", "160036.414000", "160038.414000", "160040.414000", "160042.415000", "160044.414000", "160046.414000", "160048.415000", "160050.415000", "160052.915000", "160054.915000", "160056.415000", "160058.415000", "160100.415000", "160102.415000", "160104.415000", "160106.414000", "160108.414000", "160110.301000"],
      "InstanceCreationTime": ["155600.919000", "155602.415000", "155604.414000", "155606.415000", "155608.414000", "155610.415000", "155612.414000", "155614.414000", "155616.414000", "155618.414000", "155620.415000", "155622.414000", "155624.415000", "155626.414000", "155628.414000", "155630.415000", "155632.415000", "155634.415000", "155636.414000", "155638.414000", "155640.914000", "155642.415000", "155644.414000", "155646.915000", "155648.414000", "155650.414000", "155652.414000", "155654.414000", "155656.415000", "155658.415000", "155700.414000", "155702.414000", "155704.415000", "155706.414000", "155708.414000", "155710.413000", "155712.414000", "155714.415000", "155716.415000", "155718.415000", "155720.414000", "155722.414000", "155724.414000", "155726.415000", "155728.414000", "155730.414000", "155732.414000", "155734.414000", "155736.414000", "155738.415000", "155740.414000", "155742.414000", "155744.415000", "155746.414000", "155748.415000", "155750.414000", "155752.415000", "155754.914000", "155756.414000", "155758.415000", "155800.414000", "155802.414000", "155804.415000", "155806.415000", "155808.914000", "155810.414000", "155812.415000", "155814.915000", "155816.414000", "155818.414000", "155820.413000", "155822.415000", "155824.415000", "155826.414000", "155828.415000", "155830.414000", "155832.415000", "155834.415000", "155836.414000", "155838.414000", "155840.414000", "155842.915000", "155844.415000", "155846.414000", "155848.914000", "155850.414000", "155852.415000", "155854.414000", "155856.414000", "155858.414000", "155900.415000", "155902.434000", "155904.414000", "155906.415000", "155908.414000", "155910.914000", "155912.415000", "155914.415000", "155916.414000", "155918.415000", "155920.414000", "155922.415000", "155924.416000", "155926.415000", "155928.414000", "155930.413000", "155932.414000", "155934.914000", "155936.414000", "155938.414000", "155940.914000", "155942.415000", "155944.415000", "155946.414000", "155948.414000", "155950.414000", "155952.414000", "155954.415000", "155956.414000", "155958.415000", "160000.414000", "160002.415000", "160004.415000", "160006.414000", "160008.414000", "160010.415000", "160012.414000", "160014.414000", "160016.415000", "160018.414000", "160020.415000", "160022.415000", "160024.415000", "160026.415000", "160028.414000", "160030.415000", "160032.414000", "160034.415000", "160036.414000", "160038.414000", "160040.414000", "160042.415000", "160044.414000", "160046.414000", "160048.415000", "160050.415000", "160052.915000", "160054.915000", "160056.415000", "160058.415000", "160100.415000", "160102.415000", "160104.415000", "160106.414000", "160108.414000", "160110.301000"],
      "InstanceNumber": [1, 2, 3, 4, 5, 6, 7, 8, 9, 10, 11, 12, 13, 14, 15, 16, 17, 18, 19, 20, 21, 22, 23, 24, 25, 26, 27, 28, 29, 30, 31, 32, 33, 34, 35, 36, 37, 38, 39, 40, 41, 42, 43, 44, 45, 46, 47, 48, 49, 50, 51, 52, 53, 54, 55, 56, 57, 58, 59, 60, 61, 62, 63, 64, 65, 66, 67, 68, 69, 70, 71, 72, 73, 74, 75, 76, 77, 78, 79, 80, 81, 82, 83, 84, 85, 86, 87, 88, 89, 90, 91, 92, 93, 94, 95, 96, 97, 98, 99, 100, 101, 102, 103, 104, 105, 106, 107, 108, 109, 110, 111, 112, 113, 114, 115, 116, 117, 118, 119, 120, 121, 122, 123, 124, 125, 126, 127, 128, 129, 130, 131, 132, 133, 134, 135, 136, 137, 138, 139, 140, 141, 142, 143, 144, 145, 146, 147, 148, 149, 150, 151, 152, 153, 154, 155, 156],
      "LargestImagePixelValue": [2604, 2596, 2561, 2536, 2561, 2573, 2549, 2541, 2496, 2532, 2540, 2583, 2595, 2528, 2545, 2550, 2532, 2488, 2547, 2509, 2566, 2552, 2559, 2528, 2507, 2525, 2569, 2540, 2542, 2536, 2540, 2515, 2533, 2529, 2553, 2527, 2540, 2522, 2544, 2486, 2507, 2495, 2545, 2486, 2527, 2526, 2518, 2486, 2512, 2518, 2512, 2489, 2510, 2476, 2497, 2495, 2487, 2502, 2478, 2494, 2473, 2507, 2529, 2549, 2513, 2491, 2521, 2495, 2565, 2471, 2536, 2503, 2553, 2565, 2474, 2463, 2523, 2506, 2464, 2516, 2524, 2492, 2477, 2495, 2495, 2543, 2562, 2491, 2482, 2487, 2538, 2485, 2520, 2541, 2543, 2512, 2557, 2562, 2492, 2548, 2581, 2503, 2498, 2534, 2534, 2499, 2546, 2595, 2521, 2522, 2528, 2589, 2511, 2517, 2575, 2597, 2528, 2527, 2563, 2484, 2506, 2548, 2528, 2530, 2538, 2534, 2468, 2515, 2567, 2485, 2519, 2550, 2566, 2495, 2542, 2577, 2519, 2533, 2536, 2471, 2510, 2573, 2555, 2490, 2547, 2472, 2493, 2568, 2572, 2478, 2559, 2560, 2449, 2489, 2513, 2559],
      "WindowCenter": [725.0, 724.0, 724.0, 724.0, 724.0, 724.0, 724.0, 724.0, 725.0, 725.0, 725.0, 724.0, 725.0, 724.0, 723.0, 724.0, 724.0, 723.0, 722.0, 722.0, 723.0, 723.0, 726.0, 725.0, 723.0, 722.0, 724.0, 724.0, 725.0, 724.0, 724.0, 724.0, 724.0, 723.0, 724.0, 724.0, 724.0, 724.0, 725.0, 724.0, 724.0, 724.0, 724.0, 724.0, 725.0, 724.0, 723.0, 722.0, 724.0, 725.0, 725.0, 723.0, 723.0, 722.0, 722.0, 722.0, 723.0, 723.0, 723.0, 724.0, 723.0, 724.0, 724.0, 723.0, 723.0, 720.0, 723.0, 725.0, 724.0, 723.0, 723.0, 722.0, 724.0, 725.0, 724.0, 723.0, 724.0, 724.0, 722.0, 722.0, 723.0, 726.0, 726.0, 724.0, 723.0, 723.0, 724.0, 723.0, 722.0, 722.0, 723.0, 723.0, 723.0, 723.0, 723.0, 723.0, 724.0, 725.0, 724.0, 724.0, 724.0, 723.0, 722.0, 723.0, 723.0, 724.0, 725.0, 726.0, 725.0, 725.0, 726.0, 726.0, 725.0, 724.0, 725.0, 725.0, 724.0, 724.0, 725.0, 724.0, 724.0, 725.0, 725.0, 724.0, 724.0, 724.0, 724.0, 724.0, 725.0, 724.0, 725.0, 725.0, 726.0, 725.0, 726.0, 726.0, 724.0, 724.0, 723.0, 723.0, 723.0, 724.0, 723.0, 723.0, 727.0, 726.0, 725.0, 725.0, 725.0, 723.0, 724.0, 724.0, 723.0, 723.0, 723.0, 724.0],
      "WindowWidth": [1536.0, 1533.0, 1534.0, 1533.0, 1534.0, 1533.0, 1534.0, 1535.0, 1537.0, 1537.0, 1537.0, 1535.0, 1536.0, 1533.0, 1533.0, 1534.0, 1534.0, 1532.0, 1529.0, 1530.0, 1531.0, 1532.0, 1539.0, 1537.0, 1532.0, 1530.0, 1533.0, 1533.0, 1536.0, 1535.0, 1534.0, 1534.0, 1534.0, 1532.0, 1535.0, 1534.0, 1535.0, 1534.0, 1537.0, 1534.0, 1535.0, 1533.0, 1534.0, 1535.0, 1537.0, 1534.0, 1532.0, 1530.0, 1534.0, 1537.0, 1536.0, 1533.0, 1533.0, 1529.0, 1530.0, 1530.0, 1532.0, 1533.0, 1533.0, 1534.0, 1532.0, 1534.0, 1534.0, 1533.0, 1532.0, 1525.0, 1531.0, 1536.0, 1534.0, 1531.0, 1531.0, 1530.0, 1535.0, 1537.0, 1534.0, 1533.0, 1535.0, 1535.0, 1531.0, 1530.0, 1532.0, 1541.0, 1540.0, 1533.0, 1532.0, 1532.0, 1534.0, 1532.0, 1530.0, 1529.0, 1532.0, 1531.0, 1532.0, 1532.0, 1532.0, 1533.0, 1535.0, 1537.0, 1534.0, 1534.0, 1534.0, 1531.0, 1530.0, 1532.0, 1532.0, 1534.0, 1537.0, 1538.0, 1536.0, 1537.0, 1541.0, 1540.0, 1537.0, 1534.0, 1536.0, 1536.0, 1534.0, 1536.0, 1536.0, 1534.0, 1535.0, 1537.0, 1536.0, 1534.0, 1534.0, 1534.0, 1534.0, 1534.0, 1537.0, 1535.0, 1536.0, 1537.0, 1539.0, 1538.0, 1538.0, 1538.0, 1534.0, 1536.0, 1532.0, 1533.0, 1533.0, 1535.0, 1532.0, 1531.0, 1541.0, 1540.0, 1537.0, 1536.0, 1537.0, 1533.0, 1534.0, 1535.0, 1532.0, 1532.0, 1533.0, 1535.0]
    },
    "slices": {}
  }
}