{
  "AcquisitionMatrixPE": 100,
  "AcquisitionNumber": 1,
  "AcquisitionTime": "16:41:18.805000",
  "BandwidthPerPixelPhaseEncode": 18.519,
  "BaseResolution": 100,
  "BodyPartExamined": "BRAIN",
  "CoilCombinationMethod": "Sum of Squares",
  "ConsistencyInfo": "N4_VE11C_LATEST_20160120",
  "ConversionSoftware": "dcm2niix",
  "ConversionSoftwareVersion": "v1.0.20211006",
  "DerivedVendorReportedEchoSpacing": 0.000539986,
  "DeviceSerialNumber": "166078",
  "DwellTime": 2.1e-06,
  "EchoTime": 0.034,
  "EchoTrainLength": 100,
  "EffectiveEchoSpacing": 0.000539986,
  "FlipAngle": 90,
  "ImageOrientationPatientDICOM": [1, 0, 0, 0, 0.999903, -0.0139622],
  "ImageOrientationText": "Tra>Cor(-0.8)",
  "ImageType": [
    "ORIGINAL",
    "PRIMARY",
    "M",
    "ND",
    "MOSAIC"
],
  "ImagingFrequency": 123.258,
  "InPlanePhaseEncodingDirectionDICOM": "COL",
  "InstitutionAddress": "Street StreetNo,Bei Jing,District,CN,ZIP",
  "InstitutionName": "BeiJing Normal University",
  "InstitutionalDepartmentName": "Department",
  "MRAcquisitionType": "2D",
  "MagneticFieldStrength": 3,
  "Manufacturer": "Siemens",
  "ManufacturersModelName": "Prisma",
  "Modality": "MR",
  "MultibandAccelerationFactor": 3,
  "PartialFourier": 1,
  "PatientPosition": "HFS",
  "PercentPhaseFOV": 100,
  "PercentSampling": 100,
  "PhaseEncodingDirection": "j-",
  "PhaseEncodingSteps": 100,
  "PhaseResolution": 1,
  "PixelBandwidth": 2380,
  "ProcedureStepDescription": "BNU_P2018_64CH^Zhen.ZongLei",
  "ProtocolName": "bold_100x100_s3_2x2x2_static_156",
  "PulseSequenceDetails": "%SiemensSeq%\\ep2d_bold",
  "ReceiveCoilActiveElements": "HC1-7;NC1",
  "ReceiveCoilName": "HeadNeck_64",
  "ReconMatrixPE": 100,
  "RefLinesPE": 32,
  "RepetitionTime": 2,
  "SAR": 0.0796453,
  "ScanOptions": "FS",
  "ScanningSequence": "EP",
  "SequenceName": "*epfid2d1_100",
  "SequenceVariant": "SK",
  "SeriesDescription": "bold_100x100_s3_2x2x2_static_156",
  "SeriesNumber": 14,
  "ShimSetting": [-5469, -11543, -1272, 291, -62, -194, -9, 63],
  "SliceThickness": 2,
  "SliceTiming": [1.485, 0, 0.99, 0.0825, 1.0725, 0.165, 1.155, 0.2475, 1.2375, 0.33, 1.32, 0.4125, 1.4025, 0.5775, 1.5675, 0.66, 1.65, 0.7425, 1.7325, 0.825, 1.815, 0.9075, 1.8975, 0.495, 1.485, 0, 0.99, 0.0825, 1.0725, 0.165, 1.155, 0.2475, 1.2375, 0.33, 1.32, 0.4125, 1.4025, 0.5775, 1.5675, 0.66, 1.65, 0.7425, 1.7325, 0.825, 1.815, 0.9075, 1.8975, 0.495, 1.485, 0, 0.99, 0.0825, 1.0725, 0.165, 1.155, 0.2475, 1.2375, 0.33, 1.32, 0.4125, 1.4025, 0.5775, 1.5675, 0.66, 1.65, 0.7425, 1.7325, 0.825, 1.815, 0.9075, 1.8975, 0.495],
  "SoftwareVersions": "syngo MR E11",
  "SpacingBetweenSlices": 2,
  "StationName": "AWP166078",
  "TaskName": "action",
  "TotalReadoutTime": 0.0534586,
  "TxRefAmp": 213.971,
  "dcmmeta_affine": [
    [-2.0, 0.0, 0.0, 101.3559341430664],
    [0.0, 1.9998050928115845, -0.02792436257004738, -89.20736694335938],
    [0.0, 0.02792436257004738, 1.9998050928115845, -51.13134765625],
    [0.0, 0.0, 0.0, 1.0]
],
  "dcmmeta_reorient_transform": [
    [0.0, -1.0, 0.0, 99.0],
    [1.0, 0.0, 0.0, 0.0],
    [0.0, 0.0, 1.0, 0.0],
    [0.0, 0.0, 0.0, 1.0]
],
  "dcmmeta_shape": [100, 100, 72, 156],
  "dcmmeta_slice_dim": 2,
  "dcmmeta_version": 0.6,
  "global": {
    "const": {
      "AcquisitionMatrix": [100, 0, 0, 100],
      "AngioFlag": "N",
      "BitsAllocated": 16,
      "BitsStored": 12,
      "BodyPartExamined": "BRAIN",
      "Columns": 900,
      "EchoNumbers": 1,
      "EchoTime": 34.0,
      "EchoTrainLength": 100,
      "FlipAngle": 90.0,
      "HighBit": 11,
      "ImageOrientationPatient": [1.0, 0.0, 0.0, 0.0, 0.99990252399856, -0.0139621811089],
      "ImagePositionPatient": [-901.35593223572, -908.69535360707, -37.197090896012],
      "ImageType": [
        "ORIGINAL",
        "PRIMARY",
        "M",
        "ND",
        "MOSAIC"
],
      "ImagedNucleus": "1H",
      "ImagingFrequency": 123.257722,
      "InPlanePhaseEncodingDirection": "COL",
      "MRAcquisitionType": "2D",
      "MagneticFieldStrength": 3.0,
      "Manufacturer": "SIEMENS",
      "ManufacturerModelName": "Prisma",
      "Modality": "MR",
      "NumberOfAverages": 1.0,
      "NumberOfPhaseEncodingSteps": 100,
      "PercentPhaseFieldOfView": 100.0,
      "PercentSampling": 100.0,
      "PerformedProcedureStepStartTime": "153942.174000",
      "PhotometricInterpretation": "MONOCHROME2",
      "PixelBandwidth": 2380.0,
      "PixelRepresentation": 0,
      "PixelSpacing": [2.0, 2.0],
      "ProtocolName": "bold_100x100_s3_2x2x2_static_156",
      "RepetitionTime": 2000.0,
      "Rows": 900,
      "SAR": 0.07964531459085,
      "SamplesPerPixel": 1,
      "ScanOptions": "FS",
      "ScanningSequence": "EP",
      "SequenceName": "*epfid2d1_100",
      "SequenceVariant": "SK",
      "SeriesDescription": "bold_100x100_s3_2x2x2_static_156",
      "SeriesNumber": 14,
      "SeriesTime": "164121.071000",
      "SliceLocation": -49.880834172225,
      "SliceThickness": 2.0,
      "SmallestImagePixelValue": 0,
      "SoftwareVersions": "syngo MR E11",
      "SpacingBetweenSlices": 2.0000000262606,
      "SpecificCharacterSet": "ISO_IR 100",
      "StudyID": "1",
      "StudyTime": "153942.074000",
      "TransmitCoilName": "Body",
      "VariableFlipAngleFlag": "N",
      "WindowCenterWidthExplanation": "Algo1",
      "dBdt": 0.0},
    "slices": {}
  },
  "time": {
    "samples": {
      "AcquisitionNumber": [1, 2, 3, 4, 5, 6, 7, 8, 9, 10, 11, 12, 13, 14, 15, 16, 17, 18, 19, 20, 21, 22, 23, 24, 25, 26, 27, 28, 29, 30, 31, 32, 33, 34, 35, 36, 37, 38, 39, 40, 41, 42, 43, 44, 45, 46, 47, 48, 49, 50, 51, 52, 53, 54, 55, 56, 57, 58, 59, 60, 61, 62, 63, 64, 65, 66, 67, 68, 69, 70, 71, 72, 73, 74, 75, 76, 77, 78, 79, 80, 81, 82, 83, 84, 85, 86, 87, 88, 89, 90, 91, 92, 93, 94, 95, 96, 97, 98, 99, 100, 101, 102, 103, 104, 105, 106, 107, 108, 109, 110, 111, 112, 113, 114, 115, 116, 117, 118, 119, 120, 121, 122, 123, 124, 125, 126, 127, 128, 129, 130, 131, 132, 133, 134, 135, 136, 137, 138, 139, 140, 141, 142, 143, 144, 145, 146, 147, 148, 149, 150, 151, 152, 153, 154, 155, 156],
      "AcquisitionTime": ["164118.805000", "164120.805000", "164122.805000", "164124.805000", "164126.805000", "164128.805000", "164130.805000", "164132.805000", "164134.805000", "164136.805000", "164138.805000", "164140.805000", "164142.805000", "164144.805000", "164146.805000", "164148.805000", "164150.805000", "164152.805000", "164154.805000", "164156.805000", "164158.805000", "164200.805000", "164202.805000", "164204.805000", "164206.805000", "164208.805000", "164210.805000", "164212.805000", "164214.805000", "164216.805000", "164218.805000", "164220.805000", "164222.805000", "164224.805000", "164226.805000", "164228.805000", "164230.805000", "164232.805000", "164234.805000", "164236.805000", "164238.805000", "164240.805000", "164242.805000", "164244.805000", "164246.805000", "164248.805000", "164250.805000", "164252.805000", "164254.805000", "164256.805000", "164258.805000", "164300.805000", "164302.805000", "164304.805000", "164306.805000", "164308.805000", "164310.805000", "164312.805000", "164314.805000", "164316.805000", "164318.805000", "164320.805000", "164322.805000", "164324.805000", "164326.805000", "164328.805000", "164330.805000", "164332.805000", "164334.805000", "164336.805000", "164338.805000", "164340.805000", "164342.805000", "164344.805000", "164346.805000", "164348.805000", "164350.805000", "164352.805000", "164354.805000", "164356.805000", "164358.805000", "164400.805000", "164402.805000", "164404.805000", "164406.805000", "164408.805000", "164410.805000", "164412.805000", "164414.805000", "164416.805000", "164418.805000", "164420.805000", "164422.805000", "164424.805000", "164426.805000", "164428.805000", "164430.805000", "164432.805000", "164434.805000", "164436.805000", "164438.805000", "164440.805000", "164442.805000", "164444.805000", "164446.805000", "164448.805000", "164450.805000", "164452.805000", "164454.805000", "164456.805000", "164458.805000", "164500.805000", "164502.805000", "164504.805000", "164506.805000", "164508.805000", "164510.805000", "164512.805000", "164514.805000", "164516.805000", "164518.805000", "164520.805000", "164522.805000", "164524.805000", "164526.805000", "164528.805000", "164530.805000", "164532.805000", "164534.805000", "164536.805000", "164538.805000", "164540.805000", "164542.805000", "164544.805000", "164546.805000", "164548.805000", "164550.805000", "164552.805000", "164554.805000", "164556.805000", "164558.805000", "164600.805000", "164602.805000", "164604.805000", "164606.805000", "164608.805000", "164610.805000", "164612.805000", "164614.805000", "164616.805000", "164618.805000", "164620.805000", "164622.805000", "164624.805000", "164626.805000", "164628.805000"],
      "ContentTime": ["164121.075000", "164122.570000", "164124.570000", "164126.571000", "164128.570000", "164130.570000", "164132.570000", "164134.571000", "164136.570000", "164138.570000", "164140.571000", "164142.570000", "164144.569000", "164146.570000", "164148.570000", "164150.570000", "164152.571000", "164154.570000", "164156.571000", "164158.570000", "164200.571000", "164202.569000", "164204.570000", "164206.570000", "164208.571000", "164210.570000", "164212.570000", "164214.570000", "164216.571000", "164218.571000", "164220.569000", "164222.571000", "164224.570000", "164226.570000", "164228.571000", "164230.570000", "164232.570000", "164234.570000", "164236.570000", "164238.570000", "164240.570000", "164242.571000", "164244.571000", "164246.570000", "164248.571000", "164250.571000", "164252.570000", "164254.569000", "164256.570000", "164258.571000", "164300.571000", "164302.571000", "164304.571000", "164306.571000", "164308.570000", "164310.571000", "164312.570000", "164314.570000", "164316.570000", "164318.570000", "164320.570000", "164322.570000", "164324.571000", "164326.571000", "164328.571000", "164330.569000", "164332.570000", "164334.571000", "164336.571000", "164338.571000", "164340.571000", "164342.570000", "164344.571000", "164346.571000", "164348.570000", "164350.570000", "164352.570000", "164354.571000", "164356.571000", "164358.570000", "164400.570000", "164402.570000", "164404.570000", "164406.571000", "164408.571000", "164410.571000", "164412.571000", "164414.570000", "164416.571000", "164418.571000", "164420.571000", "164422.569000", "164424.571000", "164426.570000", "164428.571000", "164430.570000", "164432.571000", "164434.570000", "164436.571000", "164438.570000", "164440.570000", "164442.571000", "164444.570000", "164446.571000", "164448.571000", "164450.570000", "164452.571000", "164454.571000", "164456.571000", "164458.570000", "164500.571000", "164502.570000", "164504.571000", "164506.570000", "164508.571000", "164510.571000", "164512.570000", "164514.569000", "164516.571000", "164518.571000", "164520.571000", "164522.571000", "164524.570000", "164526.571000", "164528.571000", "164530.570000", "164532.569000", "164534.570000", "164536.570000", "164538.571000", "164540.571000", "164542.571000", "164544.570000", "164546.571000", "164548.571000", "164550.570000", "164552.570000", "164554.570000", "164556.571000", "164558.571000", "164600.570000", "164602.571000", "164604.571000", "164606.571000", "164608.571000", "164610.571000", "164612.571000", "164614.570000", "164616.570000", "164618.571000", "164620.571000", "164622.571000", "164624.569000", "164626.571000", "164628.587000", "164630.342000"],
      "InstanceCreationTime": ["164121.075000", "164122.570000", "164124.570000", "164126.571000", "164128.570000", "164130.570000", "164132.570000", "164134.571000", "164136.570000", "164138.570000", "164140.571000", "164142.570000", "164144.569000", "164146.570000", "164148.570000", "164150.570000", "164152.571000", "164154.570000", "164156.571000", "164158.570000", "164200.571000", "164202.569000", "164204.570000", "164206.570000", "164208.571000", "164210.570000", "164212.570000", "164214.570000", "164216.571000", "164218.571000", "164220.569000", "164222.571000", "164224.570000", "164226.570000", "164228.571000", "164230.570000", "164232.570000", "164234.570000", "164236.570000", "164238.570000", "164240.570000", "164242.571000", "164244.571000", "164246.570000", "164248.571000", "164250.571000", "164252.570000", "164254.569000", "164256.570000", "164258.571000", "164300.571000", "164302.571000", "164304.571000", "164306.571000", "164308.570000", "164310.571000", "164312.570000", "164314.570000", "164316.570000", "164318.570000", "164320.570000", "164322.570000", "164324.571000", "164326.571000", "164328.571000", "164330.569000", "164332.570000", "164334.571000", "164336.571000", "164338.571000", "164340.571000", "164342.570000", "164344.571000", "164346.571000", "164348.570000", "164350.570000", "164352.570000", "164354.571000", "164356.571000", "164358.570000", "164400.570000", "164402.570000", "164404.570000", "164406.571000", "164408.571000", "164410.571000", "164412.571000", "164414.570000", "164416.571000", "164418.571000", "164420.571000", "164422.569000", "164424.571000", "164426.570000", "164428.571000", "164430.570000", "164432.571000", "164434.570000", "164436.571000", "164438.570000", "164440.570000", "164442.571000", "164444.570000", "164446.571000", "164448.571000", "164450.570000", "164452.571000", "164454.571000", "164456.571000", "164458.570000", "164500.571000", "164502.570000", "164504.571000", "164506.570000", "164508.571000", "164510.571000", "164512.570000", "164514.569000", "164516.571000", "164518.571000", "164520.571000", "164522.571000", "164524.570000", "164526.571000", "164528.571000", "164530.570000", "164532.569000", "164534.570000", "164536.570000", "164538.571000", "164540.571000", "164542.571000", "164544.570000", "164546.571000", "164548.571000", "164550.570000", "164552.570000", "164554.570000", "164556.571000", "164558.571000", "164600.570000", "164602.571000", "164604.571000", "164606.571000", "164608.571000", "164610.571000", "164612.571000", "164614.570000", "164616.570000", "164618.571000", "164620.571000", "164622.571000", "164624.569000", "164626.571000", "164628.587000", "164630.342000"],
      "InstanceNumber": [1, 2, 3, 4, 5, 6, 7, 8, 9, 10, 11, 12, 13, 14, 15, 16, 17, 18, 19, 20, 21, 22, 23, 24, 25, 26, 27, 28, 29, 30, 31, 32, 33, 34, 35, 36, 37, 38, 39, 40, 41, 42, 43, 44, 45, 46, 47, 48, 49, 50, 51, 52, 53, 54, 55, 56, 57, 58, 59, 60, 61, 62, 63, 64, 65, 66, 67, 68, 69, 70, 71, 72, 73, 74, 75, 76, 77, 78, 79, 80, 81, 82, 83, 84, 85, 86, 87, 88, 89, 90, 91, 92, 93, 94, 95, 96, 97, 98, 99, 100, 101, 102, 103, 104, 105, 106, 107, 108, 109, 110, 111, 112, 113, 114, 115, 116, 117, 118, 119, 120, 121, 122, 123, 124, 125, 126, 127, 128, 129, 130, 131, 132, 133, 134, 135, 136, 137, 138, 139, 140, 141, 142, 143, 144, 145, 146, 147, 148, 149, 150, 151, 152, 153, 154, 155, 156],
      "LargestImagePixelValue": [2661, 2585, 2599, 2573, 2570, 2566, 2588, 2552, 2621, 2542, 2541, 2573, 2571, 2549, 2555, 2521, 2567, 2590, 2548, 2594, 2496, 2563, 2615, 2577, 2574, 2539, 2568, 2544, 2535, 2504, 2515, 2539, 2501, 2522, 2503, 2544, 2551, 2533, 2525, 2554, 2546, 2540, 2571, 2507, 2578, 2553, 2554, 2543, 2484, 2571, 2587, 2559, 2579, 2583, 2554, 2556, 2513, 2555, 2627, 2581, 2556, 2579, 2608, 2530, 2548, 2548, 2503, 2524, 2599, 2529, 2597, 2620, 2593, 2552, 2620, 2528, 2553, 2499, 2582, 2572, 2551, 2574, 2483, 2548, 2516, 2581, 2561, 2532, 2545, 2509, 2535, 2600, 2509, 2584, 2576, 2466, 2571, 2583, 2497, 2494, 2620, 2537, 2563, 2538, 2566, 2547, 2512, 2477, 2534, 2497, 2582, 2533, 2528, 2580, 2506, 2590, 2564, 2594, 2502, 2552, 2587, 2529, 2554, 2605, 2515, 2538, 2464, 2498, 2555, 2604, 2480, 2535, 2558, 2490, 2523, 2450, 2483, 2497, 2526, 2462, 2495, 2540, 2473, 2531, 2528, 2497, 2508, 2546, 2473, 2523, 2449, 2445, 2520, 2535, 2444, 2484],
      "WindowCenter": [729.0, 726.0, 725.0, 726.0, 726.0, 726.0, 725.0, 726.0, 727.0, 725.0, 726.0, 726.0, 728.0, 728.0, 729.0, 728.0, 727.0, 727.0, 727.0, 728.0, 727.0, 726.0, 726.0, 725.0, 725.0, 725.0, 725.0, 727.0, 727.0, 726.0, 725.0, 729.0, 730.0, 727.0, 725.0, 725.0, 727.0, 726.0, 725.0, 724.0, 724.0, 725.0, 725.0, 724.0, 725.0, 726.0, 726.0, 726.0, 726.0, 728.0, 727.0, 726.0, 726.0, 725.0, 726.0, 727.0, 726.0, 724.0, 723.0, 725.0, 724.0, 726.0, 727.0, 727.0, 726.0, 728.0, 726.0, 725.0, 725.0, 724.0, 726.0, 727.0, 727.0, 727.0, 728.0, 727.0, 727.0, 727.0, 727.0, 728.0, 729.0, 728.0, 727.0, 727.0, 727.0, 727.0, 728.0, 728.0, 727.0, 727.0, 728.0, 727.0, 725.0, 726.0, 726.0, 723.0, 725.0, 727.0, 726.0, 725.0, 724.0, 724.0, 724.0, 725.0, 727.0, 726.0, 725.0, 726.0, 727.0, 728.0, 729.0, 726.0, 725.0, 725.0, 725.0, 726.0, 728.0, 729.0, 728.0, 727.0, 728.0, 727.0, 728.0, 728.0, 727.0, 727.0, 727.0, 726.0, 726.0, 726.0, 725.0, 726.0, 728.0, 728.0, 728.0, 727.0, 726.0, 727.0, 727.0, 726.0, 727.0, 728.0, 728.0, 727.0, 727.0, 726.0, 726.0, 726.0, 725.0, 727.0, 727.0, 727.0, 726.0, 726.0, 724.0, 724.0],
      "WindowWidth": [1547.0, 1540.0, 1537.0, 1539.0, 1538.0, 1538.0, 1537.0, 1539.0, 1540.0, 1538.0, 1540.0, 1541.0, 1545.0, 1544.0, 1546.0, 1543.0, 1541.0, 1543.0, 1542.0, 1544.0, 1542.0, 1539.0, 1540.0, 1536.0, 1537.0, 1535.0, 1538.0, 1541.0, 1542.0, 1539.0, 1538.0, 1547.0, 1548.0, 1541.0, 1536.0, 1537.0, 1541.0, 1538.0, 1536.0, 1534.0, 1533.0, 1536.0, 1537.0, 1534.0, 1537.0, 1538.0, 1538.0, 1539.0, 1540.0, 1543.0, 1542.0, 1538.0, 1539.0, 1536.0, 1539.0, 1540.0, 1539.0, 1533.0, 1532.0, 1536.0, 1535.0, 1539.0, 1540.0, 1541.0, 1539.0, 1544.0, 1538.0, 1535.0, 1535.0, 1534.0, 1537.0, 1541.0, 1541.0, 1542.0, 1542.0, 1541.0, 1542.0, 1541.0, 1540.0, 1544.0, 1546.0, 1544.0, 1542.0, 1542.0, 1542.0, 1542.0, 1545.0, 1543.0, 1542.0, 1542.0, 1543.0, 1540.0, 1536.0, 1538.0, 1538.0, 1532.0, 1537.0, 1542.0, 1539.0, 1537.0, 1534.0, 1533.0, 1533.0, 1536.0, 1540.0, 1539.0, 1537.0, 1538.0, 1542.0, 1543.0, 1545.0, 1539.0, 1537.0, 1537.0, 1536.0, 1539.0, 1543.0, 1545.0, 1544.0, 1540.0, 1543.0, 1542.0, 1545.0, 1544.0, 1542.0, 1540.0, 1541.0, 1538.0, 1539.0, 1538.0, 1537.0, 1538.0, 1543.0, 1546.0, 1545.0, 1541.0, 1539.0, 1542.0, 1541.0, 1540.0, 1542.0, 1545.0, 1544.0, 1543.0, 1542.0, 1538.0, 1539.0, 1538.0, 1537.0, 1541.0, 1542.0, 1543.0, 1538.0, 1538.0, 1533.0, 1535.0]
    },
    "slices": {}
  }
}