{
  "AcquisitionMatrixPE": 100,
  "AcquisitionNumber": 1,
  "AcquisitionTime": "16:35:20.027500",
  "BandwidthPerPixelPhaseEncode": 18.519,
  "BaseResolution": 100,
  "BodyPartExamined": "BRAIN",
  "CoilCombinationMethod": "Sum of Squares",
  "ConsistencyInfo": "N4_VE11C_LATEST_20160120",
  "ConversionSoftware": "dcm2niix",
  "ConversionSoftwareVersion": "v1.0.20211006",
  "DerivedVendorReportedEchoSpacing": 0.000539986,
  "DeviceSerialNumber": "166078",
  "DwellTime": 2.1e-06,
  "EchoTime": 0.034,
  "EchoTrainLength": 100,
  "EffectiveEchoSpacing": 0.000539986,
  "FlipAngle": 90,
  "ImageOrientationPatientDICOM": [1, 0, 0, 0, 0.999903, -0.0139622],
  "ImageOrientationText": "Tra>Cor(-0.8)",
  "ImageType": [
    "ORIGINAL",
    "PRIMARY",
    "M",
    "ND",
    "MOSAIC"
],
  "ImagingFrequency": 123.258,
  "InPlanePhaseEncodingDirectionDICOM": "COL",
  "InstitutionAddress": "Street StreetNo,Bei Jing,District,CN,ZIP",
  "InstitutionName": "BeiJing Normal University",
  "InstitutionalDepartmentName": "Department",
  "MRAcquisitionType": "2D",
  "MagneticFieldStrength": 3,
  "Manufacturer": "Siemens",
  "ManufacturersModelName": "Prisma",
  "Modality": "MR",
  "MultibandAccelerationFactor": 3,
  "PartialFourier": 1,
  "PatientPosition": "HFS",
  "PercentPhaseFOV": 100,
  "PercentSampling": 100,
  "PhaseEncodingDirection": "j-",
  "PhaseEncodingSteps": 100,
  "PhaseResolution": 1,
  "PixelBandwidth": 2380,
  "ProcedureStepDescription": "BNU_P2018_64CH^Zhen.ZongLei",
  "ProtocolName": "bold_100x100_s3_2x2x2_static_156",
  "PulseSequenceDetails": "%SiemensSeq%\\ep2d_bold",
  "ReceiveCoilActiveElements": "HC1-7;NC1",
  "ReceiveCoilName": "HeadNeck_64",
  "ReconMatrixPE": 100,
  "RefLinesPE": 32,
  "RepetitionTime": 2,
  "SAR": 0.0796453,
  "ScanOptions": "FS",
  "ScanningSequence": "EP",
  "SequenceName": "*epfid2d1_100",
  "SequenceVariant": "SK",
  "SeriesDescription": "bold_100x100_s3_2x2x2_static_156",
  "SeriesNumber": 13,
  "ShimSetting": [-5469, -11543, -1272, 291, -62, -194, -9, 63],
  "SliceThickness": 2,
  "SliceTiming": [1.485, 0, 0.99, 0.0825, 1.0725, 0.165, 1.155, 0.2475, 1.2375, 0.33, 1.32, 0.4125, 1.4025, 0.5775, 1.5675, 0.66, 1.65, 0.7425, 1.7325, 0.825, 1.815, 0.9075, 1.8975, 0.495, 1.485, 0, 0.99, 0.0825, 1.0725, 0.165, 1.155, 0.2475, 1.2375, 0.33, 1.32, 0.4125, 1.4025, 0.5775, 1.5675, 0.66, 1.65, 0.7425, 1.7325, 0.825, 1.815, 0.9075, 1.8975, 0.495, 1.485, 0, 0.99, 0.0825, 1.0725, 0.165, 1.155, 0.2475, 1.2375, 0.33, 1.32, 0.4125, 1.4025, 0.5775, 1.5675, 0.66, 1.65, 0.7425, 1.7325, 0.825, 1.815, 0.9075, 1.8975, 0.495],
  "SoftwareVersions": "syngo MR E11",
  "SpacingBetweenSlices": 2,
  "StationName": "AWP166078",
  "TaskName": "action",
  "TotalReadoutTime": 0.0534586,
  "TxRefAmp": 213.971,
  "dcmmeta_affine": [
    [-2.0, 0.0, 0.0, 101.3559341430664],
    [0.0, 1.9998050928115845, -0.02792436257004738, -89.20736694335938],
    [0.0, 0.02792436257004738, 1.9998050928115845, -51.13134765625],
    [0.0, 0.0, 0.0, 1.0]
],
  "dcmmeta_reorient_transform": [
    [0.0, -1.0, 0.0, 99.0],
    [1.0, 0.0, 0.0, 0.0],
    [0.0, 0.0, 1.0, 0.0],
    [0.0, 0.0, 0.0, 1.0]
],
  "dcmmeta_shape": [100, 100, 72, 156],
  "dcmmeta_slice_dim": 2,
  "dcmmeta_version": 0.6,
  "global": {
    "const": {
      "AcquisitionMatrix": [100, 0, 0, 100],
      "AngioFlag": "N",
      "BitsAllocated": 16,
      "BitsStored": 12,
      "BodyPartExamined": "BRAIN",
      "Columns": 900,
      "EchoNumbers": 1,
      "EchoTime": 34.0,
      "EchoTrainLength": 100,
      "FlipAngle": 90.0,
      "HighBit": 11,
      "ImageOrientationPatient": [1.0, 0.0, 0.0, 0.0, 0.99990252399856, -0.0139621811089],
      "ImagePositionPatient": [-901.35593223572, -908.69535360707, -37.197090896012],
      "ImageType": [
        "ORIGINAL",
        "PRIMARY",
        "M",
        "ND",
        "MOSAIC"
],
      "ImagedNucleus": "1H",
      "ImagingFrequency": 123.25772,
      "InPlanePhaseEncodingDirection": "COL",
      "MRAcquisitionType": "2D",
      "MagneticFieldStrength": 3.0,
      "Manufacturer": "SIEMENS",
      "ManufacturerModelName": "Prisma",
      "Modality": "MR",
      "NumberOfAverages": 1.0,
      "NumberOfPhaseEncodingSteps": 100,
      "PercentPhaseFieldOfView": 100.0,
      "PercentSampling": 100.0,
      "PerformedProcedureStepStartTime": "153942.174000",
      "PhotometricInterpretation": "MONOCHROME2",
      "PixelBandwidth": 2380.0,
      "PixelRepresentation": 0,
      "PixelSpacing": [2.0, 2.0],
      "ProtocolName": "bold_100x100_s3_2x2x2_static_156",
      "RepetitionTime": 2000.0,
      "Rows": 900,
      "SAR": 0.07964531459085,
      "SamplesPerPixel": 1,
      "ScanOptions": "FS",
      "ScanningSequence": "EP",
      "SequenceName": "*epfid2d1_100",
      "SequenceVariant": "SK",
      "SeriesDescription": "bold_100x100_s3_2x2x2_static_156",
      "SeriesNumber": 13,
      "SeriesTime": "163523.268000",
      "SliceLocation": -49.880834172225,
      "SliceThickness": 2.0,
      "SmallestImagePixelValue": 0,
      "SoftwareVersions": "syngo MR E11",
      "SpacingBetweenSlices": 2.0000000262606,
      "SpecificCharacterSet": "ISO_IR 100",
      "StudyID": "1",
      "StudyTime": "153942.074000",
      "TransmitCoilName": "Body",
      "VariableFlipAngleFlag": "N",
      "WindowCenterWidthExplanation": "Algo1",
      "dBdt": 0.0},
    "slices": {}
  },
  "time": {
    "samples": {
      "AcquisitionNumber": [1, 2, 3, 4, 5, 6, 7, 8, 9, 10, 11, 12, 13, 14, 15, 16, 17, 18, 19, 20, 21, 22, 23, 24, 25, 26, 27, 28, 29, 30, 31, 32, 33, 34, 35, 36, 37, 38, 39, 40, 41, 42, 43, 44, 45, 46, 47, 48, 49, 50, 51, 52, 53, 54, 55, 56, 57, 58, 59, 60, 61, 62, 63, 64, 65, 66, 67, 68, 69, 70, 71, 72, 73, 74, 75, 76, 77, 78, 79, 80, 81, 82, 83, 84, 85, 86, 87, 88, 89, 90, 91, 92, 93, 94, 95, 96, 97, 98, 99, 100, 101, 102, 103, 104, 105, 106, 107, 108, 109, 110, 111, 112, 113, 114, 115, 116, 117, 118, 119, 120, 121, 122, 123, 124, 125, 126, 127, 128, 129, 130, 131, 132, 133, 134, 135, 136, 137, 138, 139, 140, 141, 142, 143, 144, 145, 146, 147, 148, 149, 150, 151, 152, 153, 154, 155, 156],
      "AcquisitionTime": ["163520.027500", "163522.027500", "163524.027500", "163526.027500", "163528.027500", "163530.027500", "163532.027500", "163534.027500", "163536.027500", "163538.027500", "163540.027500", "163542.027500", "163544.027500", "163546.027500", "163548.027500", "163550.027500", "163552.027500", "163554.027500", "163556.027500", "163558.027500", "163600.027500", "163602.027500", "163604.027500", "163606.027500", "163608.027500", "163610.027500", "163612.027500", "163614.027500", "163616.027500", "163618.027500", "163620.027500", "163622.027500", "163624.027500", "163626.027500", "163628.027500", "163630.027500", "163632.027500", "163634.027500", "163636.027500", "163638.027500", "163640.027500", "163642.027500", "163644.027500", "163646.027500", "163648.027500", "163650.027500", "163652.027500", "163654.027500", "163656.027500", "163658.027500", "163700.027500", "163702.027500", "163704.027500", "163706.027500", "163708.027500", "163710.027500", "163712.027500", "163714.027500", "163716.027500", "163718.027500", "163720.027500", "163722.027500", "163724.027500", "163726.027500", "163728.027500", "163730.027500", "163732.027500", "163734.027500", "163736.027500", "163738.027500", "163740.027500", "163742.027500", "163744.027500", "163746.027500", "163748.027500", "163750.027500", "163752.027500", "163754.027500", "163756.027500", "163758.027500", "163800.027500", "163802.027500", "163804.027500", "163806.027500", "163808.027500", "163810.027500", "163812.027500", "163814.027500", "163816.027500", "163818.027500", "163820.027500", "163822.027500", "163824.027500", "163826.027500", "163828.027500", "163830.027500", "163832.027500", "163834.027500", "163836.027500", "163838.027500", "163840.027500", "163842.027500", "163844.027500", "163846.027500", "163848.027500", "163850.027500", "163852.027500", "163854.027500", "163856.027500", "163858.027500", "163900.027500", "163902.027500", "163904.027500", "163906.027500", "163908.027500", "163910.027500", "163912.027500", "163914.027500", "163916.027500", "163918.027500", "163920.027500", "163922.027500", "163924.027500", "163926.027500", "163928.027500", "163930.027500", "163932.027500", "163934.027500", "163936.027500", "163938.027500", "163940.027500", "163942.027500", "163944.027500", "163946.027500", "163948.027500", "163950.027500", "163952.027500", "163954.027500", "163956.027500", "163958.027500", "164000.027500", "164002.027500", "164004.027500", "164006.027500", "164008.027500", "164010.027500", "164012.027500", "164014.027500", "164016.027500", "164018.027500", "164020.027500", "164022.027500", "164024.027500", "164026.027500", "164028.027500", "164030.027500"],
      "ContentTime": ["163523.271000", "163524.765000", "163526.766000", "163528.765000", "163530.765000", "163532.765000", "163534.766000", "163536.766000", "163538.767000", "163540.766000", "163542.765000", "163544.766000", "163546.765000", "163548.766000", "163550.765000", "163552.766000", "163554.765000", "163556.766000", "163558.767000", "163600.765000", "163602.765000", "163604.765000", "163606.766000", "163608.766000", "163610.266000", "163612.766000", "163614.767000", "163616.765000", "163618.766000", "163620.766000", "163622.766000", "163624.766000", "163626.765000", "163628.766000", "163630.766000", "163632.767000", "163634.766000", "163636.766000", "163638.766000", "163640.266000", "163642.766000", "163644.766000", "163646.766000", "163648.766000", "163650.767000", "163652.766000", "163654.766000", "163656.765000", "163658.766000", "163700.766000", "163702.765000", "163704.766000", "163706.767000", "163708.767000", "163710.765000", "163712.766000", "163714.765000", "163716.766000", "163718.766000", "163720.765000", "163722.766000", "163724.767000", "163726.766000", "163728.766000", "163730.766000", "163732.766000", "163734.766000", "163736.765000", "163738.765000", "163740.766000", "163742.767000", "163744.766000", "163746.765000", "163748.766000", "163750.766000", "163752.766000", "163754.766000", "163756.765000", "163758.766000", "163800.767000", "163802.766000", "163804.766000", "163806.765000", "163808.766000", "163810.766000", "163812.765000", "163814.766000", "163816.767000", "163818.766000", "163820.766000", "163822.766000", "163824.766000", "163826.766000", "163828.765000", "163830.765000", "163832.765000", "163834.767000", "163836.765000", "163838.766000", "163840.766000", "163842.766000", "163844.766000", "163846.766000", "163848.766000", "163850.766000", "163852.767000", "163854.766000", "163856.766000", "163858.766000", "163900.766000", "163902.766000", "163904.766000", "163906.265000", "163908.766000", "163910.266000", "163912.766000", "163914.766000", "163916.765000", "163918.766000", "163920.766000", "163922.766000", "163924.766000", "163926.767000", "163928.767000", "163930.765000", "163932.766000", "163934.766000", "163936.766000", "163938.766000", "163940.765000", "163942.766000", "163944.767000", "163946.766000", "163948.766000", "163950.765000", "163952.765000", "163954.765000", "163956.765000", "163958.766000", "164000.766000", "164002.766000", "164004.766000", "164006.766000", "164008.766000", "164010.766000", "164012.765000", "164014.766000", "164016.766000", "164018.766000", "164020.767000", "164022.766000", "164024.765000", "164026.766000", "164028.766000", "164030.765000", "164032.282000"],
      "InstanceCreationTime": ["163523.271000", "163524.765000", "163526.766000", "163528.765000", "163530.765000", "163532.765000", "163534.766000", "163536.766000", "163538.767000", "163540.766000", "163542.765000", "163544.766000", "163546.765000", "163548.766000", "163550.765000", "163552.766000", "163554.765000", "163556.766000", "163558.767000", "163600.765000", "163602.765000", "163604.765000", "163606.766000", "163608.766000", "163610.266000", "163612.766000", "163614.767000", "163616.765000", "163618.766000", "163620.766000", "163622.766000", "163624.766000", "163626.765000", "163628.766000", "163630.766000", "163632.767000", "163634.766000", "163636.766000", "163638.766000", "163640.266000", "163642.766000", "163644.766000", "163646.766000", "163648.766000", "163650.767000", "163652.766000", "163654.766000", "163656.765000", "163658.766000", "163700.766000", "163702.765000", "163704.766000", "163706.767000", "163708.767000", "163710.765000", "163712.766000", "163714.765000", "163716.766000", "163718.766000", "163720.765000", "163722.766000", "163724.767000", "163726.766000", "163728.766000", "163730.766000", "163732.766000", "163734.766000", "163736.765000", "163738.765000", "163740.766000", "163742.767000", "163744.766000", "163746.765000", "163748.766000", "163750.766000", "163752.766000", "163754.766000", "163756.765000", "163758.766000", "163800.767000", "163802.766000", "163804.766000", "163806.765000", "163808.766000", "163810.766000", "163812.765000", "163814.766000", "163816.767000", "163818.766000", "163820.766000", "163822.766000", "163824.766000", "163826.766000", "163828.765000", "163830.765000", "163832.765000", "163834.767000", "163836.765000", "163838.766000", "163840.766000", "163842.766000", "163844.766000", "163846.766000", "163848.766000", "163850.766000", "163852.767000", "163854.766000", "163856.766000", "163858.766000", "163900.766000", "163902.766000", "163904.766000", "163906.265000", "163908.766000", "163910.266000", "163912.766000", "163914.766000", "163916.765000", "163918.766000", "163920.766000", "163922.766000", "163924.766000", "163926.767000", "163928.767000", "163930.765000", "163932.766000", "163934.766000", "163936.766000", "163938.766000", "163940.765000", "163942.766000", "163944.767000", "163946.766000", "163948.766000", "163950.765000", "163952.765000", "163954.765000", "163956.765000", "163958.766000", "164000.766000", "164002.766000", "164004.766000", "164006.766000", "164008.766000", "164010.766000", "164012.765000", "164014.766000", "164016.766000", "164018.766000", "164020.767000", "164022.766000", "164024.765000", "164026.766000", "164028.766000", "164030.765000", "164032.282000"],
      "InstanceNumber": [1, 2, 3, 4, 5, 6, 7, 8, 9, 10, 11, 12, 13, 14, 15, 16, 17, 18, 19, 20, 21, 22, 23, 24, 25, 26, 27, 28, 29, 30, 31, 32, 33, 34, 35, 36, 37, 38, 39, 40, 41, 42, 43, 44, 45, 46, 47, 48, 49, 50, 51, 52, 53, 54, 55, 56, 57, 58, 59, 60, 61, 62, 63, 64, 65, 66, 67, 68, 69, 70, 71, 72, 73, 74, 75, 76, 77, 78, 79, 80, 81, 82, 83, 84, 85, 86, 87, 88, 89, 90, 91, 92, 93, 94, 95, 96, 97, 98, 99, 100, 101, 102, 103, 104, 105, 106, 107, 108, 109, 110, 111, 112, 113, 114, 115, 116, 117, 118, 119, 120, 121, 122, 123, 124, 125, 126, 127, 128, 129, 130, 131, 132, 133, 134, 135, 136, 137, 138, 139, 140, 141, 142, 143, 144, 145, 146, 147, 148, 149, 150, 151, 152, 153, 154, 155, 156],
      "LargestImagePixelValue": [2648, 2540, 2551, 2519, 2523, 2523, 2503, 2540, 2505, 2508, 2526, 2493, 2519, 2497, 2540, 2533, 2541, 2500, 2579, 2573, 2546, 2567, 2577, 2543, 2529, 2552, 2490, 2527, 2499, 2497, 2469, 2520, 2477, 2505, 2508, 2469, 2505, 2531, 2532, 2496, 2488, 2486, 2498, 2541, 2503, 2489, 2511, 2497, 2492, 2495, 2482, 2507, 2505, 2495, 2513, 2518, 2501, 2503, 2503, 2492, 2514, 2511, 2534, 2510, 2524, 2516, 2523, 2510, 2516, 2508, 2535, 2494, 2514, 2553, 2533, 2515, 2538, 2511, 2524, 2509, 2532, 2531, 2569, 2522, 2581, 2544, 2532, 2530, 2521, 2534, 2522, 2517, 2548, 2593, 2509, 2522, 2536, 2524, 2562, 2561, 2540, 2568, 2528, 2609, 2569, 2543, 2571, 2561, 2550, 2582, 2576, 2564, 2578, 2584, 2561, 2559, 2547, 2544, 2574, 2529, 2552, 2556, 2500, 2505, 2509, 2523, 2563, 2546, 2504, 2543, 2544, 2484, 2525, 2579, 2536, 2543, 2497, 2512, 2571, 2534, 2543, 2534, 2528, 2555, 2518, 2568, 2516, 2537, 2565, 2492, 2578, 2595, 2509, 2540, 2584, 2554],
      "WindowCenter": [728.0, 726.0, 725.0, 725.0, 726.0, 725.0, 725.0, 725.0, 726.0, 727.0, 727.0, 727.0, 726.0, 726.0, 725.0, 725.0, 726.0, 725.0, 725.0, 725.0, 724.0, 725.0, 725.0, 725.0, 725.0, 726.0, 725.0, 724.0, 724.0, 724.0, 724.0, 725.0, 725.0, 725.0, 724.0, 724.0, 724.0, 722.0, 723.0, 726.0, 726.0, 724.0, 722.0, 723.0, 723.0, 723.0, 724.0, 724.0, 723.0, 723.0, 722.0, 723.0, 723.0, 723.0, 724.0, 723.0, 723.0, 723.0, 723.0, 723.0, 724.0, 724.0, 725.0, 724.0, 724.0, 723.0, 723.0, 723.0, 723.0, 723.0, 724.0, 724.0, 724.0, 725.0, 724.0, 723.0, 724.0, 723.0, 724.0, 723.0, 723.0, 723.0, 724.0, 724.0, 725.0, 724.0, 725.0, 725.0, 725.0, 725.0, 724.0, 725.0, 726.0, 725.0, 723.0, 722.0, 724.0, 724.0, 725.0, 725.0, 725.0, 725.0, 724.0, 725.0, 726.0, 726.0, 726.0, 727.0, 726.0, 725.0, 724.0, 724.0, 725.0, 725.0, 725.0, 725.0, 726.0, 727.0, 727.0, 725.0, 725.0, 724.0, 724.0, 725.0, 727.0, 725.0, 724.0, 723.0, 723.0, 725.0, 727.0, 726.0, 726.0, 725.0, 725.0, 726.0, 725.0, 724.0, 724.0, 723.0, 724.0, 725.0, 725.0, 725.0, 725.0, 725.0, 725.0, 725.0, 726.0, 726.0, 727.0, 726.0, 724.0, 725.0, 725.0, 726.0],
      "WindowWidth": [1544.0, 1540.0, 1537.0, 1537.0, 1538.0, 1537.0, 1537.0, 1536.0, 1538.0, 1541.0, 1542.0, 1541.0, 1540.0, 1538.0, 1537.0, 1538.0, 1538.0, 1537.0, 1535.0, 1536.0, 1534.0, 1536.0, 1535.0, 1536.0, 1538.0, 1539.0, 1536.0, 1534.0, 1534.0, 1534.0, 1534.0, 1537.0, 1538.0, 1537.0, 1535.0, 1534.0, 1534.0, 1529.0, 1531.0, 1538.0, 1538.0, 1533.0, 1530.0, 1530.0, 1532.0, 1531.0, 1534.0, 1533.0, 1530.0, 1531.0, 1530.0, 1530.0, 1533.0, 1532.0, 1532.0, 1530.0, 1531.0, 1532.0, 1531.0, 1531.0, 1533.0, 1534.0, 1535.0, 1534.0, 1533.0, 1532.0, 1532.0, 1532.0, 1532.0, 1531.0, 1533.0, 1534.0, 1535.0, 1536.0, 1534.0, 1531.0, 1533.0, 1532.0, 1533.0, 1531.0, 1532.0, 1530.0, 1534.0, 1535.0, 1536.0, 1534.0, 1536.0, 1537.0, 1537.0, 1536.0, 1534.0, 1537.0, 1538.0, 1536.0, 1532.0, 1530.0, 1534.0, 1535.0, 1536.0, 1536.0, 1536.0, 1537.0, 1534.0, 1537.0, 1538.0, 1538.0, 1539.0, 1541.0, 1539.0, 1536.0, 1535.0, 1534.0, 1536.0, 1537.0, 1536.0, 1537.0, 1539.0, 1541.0, 1540.0, 1535.0, 1536.0, 1534.0, 1533.0, 1537.0, 1540.0, 1536.0, 1533.0, 1530.0, 1532.0, 1536.0, 1542.0, 1539.0, 1538.0, 1537.0, 1535.0, 1538.0, 1537.0, 1534.0, 1534.0, 1532.0, 1534.0, 1535.0, 1535.0, 1536.0, 1535.0, 1537.0, 1537.0, 1537.0, 1540.0, 1540.0, 1541.0, 1539.0, 1534.0, 1536.0, 1536.0, 1539.0]
    },
    "slices": {}
  }
}