{
  "AcquisitionMatrixPE": 100,
  "AcquisitionNumber": 1,
  "AcquisitionTime": "16:39:43.385000",
  "BandwidthPerPixelPhaseEncode": 18.519,
  "BaseResolution": 100,
  "BodyPartExamined": "BRAIN",
  "CoilCombinationMethod": "Sum of Squares",
  "ConsistencyInfo": "N4_VE11C_LATEST_20160120",
  "ConversionSoftware": "dcm2niix",
  "ConversionSoftwareVersion": "v1.0.20211006",
  "DerivedVendorReportedEchoSpacing": 0.000539986,
  "DeviceSerialNumber": "166078",
  "DwellTime": 2.1e-06,
  "EchoTime": 0.034,
  "EchoTrainLength": 100,
  "EffectiveEchoSpacing": 0.000539986,
  "FlipAngle": 90,
  "ImageOrientationPatientDICOM": [1, 0, 0, 0, 0.997053, -0.076719],
  "ImageOrientationText": "Tra>Cor(-4.4)",
  "ImageType": [
    "ORIGINAL",
    "PRIMARY",
    "M",
    "ND",
    "MOSAIC"
],
  "ImagingFrequency": 123.258,
  "InPlanePhaseEncodingDirectionDICOM": "COL",
  "InstitutionAddress": "Street StreetNo,Bei Jing,District,CN,ZIP",
  "InstitutionName": "BeiJing Normal University",
  "InstitutionalDepartmentName": "Department",
  "MRAcquisitionType": "2D",
  "MagneticFieldStrength": 3,
  "Manufacturer": "Siemens",
  "ManufacturersModelName": "Prisma",
  "Modality": "MR",
  "MultibandAccelerationFactor": 3,
  "PartialFourier": 1,
  "PatientPosition": "HFS",
  "PercentPhaseFOV": 100,
  "PercentSampling": 100,
  "PhaseEncodingDirection": "j-",
  "PhaseEncodingSteps": 100,
  "PhaseResolution": 1,
  "PixelBandwidth": 2380,
  "ProcedureStepDescription": "BNU_P2018_64CH^Zhen.ZongLei",
  "ProtocolName": "bold_100x100_s3_2x2x2_static_156",
  "PulseSequenceDetails": "%SiemensSeq%\\ep2d_bold",
  "ReceiveCoilActiveElements": "HC1-7;NC1",
  "ReceiveCoilName": "HeadNeck_64",
  "ReconMatrixPE": 100,
  "RefLinesPE": 32,
  "RepetitionTime": 2,
  "SAR": 0.0676145,
  "ScanOptions": "FS",
  "ScanningSequence": "EP",
  "SequenceName": "*epfid2d1_100",
  "SequenceVariant": "SK",
  "SeriesDescription": "bold_100x100_s3_2x2x2_static_156",
  "SeriesNumber": 12,
  "ShimSetting": [-5440, -11517, -1244, 505, 102, -237, -185, 8],
  "SliceThickness": 2,
  "SliceTiming": [1.485, 0, 0.99, 0.0825, 1.0725, 0.165, 1.155, 0.2475, 1.2375, 0.33, 1.32, 0.4125, 1.4025, 0.5775, 1.5675, 0.66, 1.65, 0.7425, 1.7325, 0.825, 1.815, 0.9075, 1.8975, 0.495, 1.485, 0, 0.99, 0.0825, 1.0725, 0.165, 1.155, 0.2475, 1.2375, 0.33, 1.32, 0.4125, 1.4025, 0.5775, 1.5675, 0.66, 1.65, 0.7425, 1.7325, 0.825, 1.815, 0.9075, 1.8975, 0.495, 1.485, 0, 0.99, 0.0825, 1.0725, 0.165, 1.155, 0.2475, 1.2375, 0.33, 1.32, 0.4125, 1.4025, 0.5775, 1.5675, 0.66, 1.65, 0.7425, 1.7325, 0.825, 1.815, 0.9075, 1.8975, 0.495],
  "SoftwareVersions": "syngo MR E11",
  "SpacingBetweenSlices": 2,
  "StationName": "AWP166078",
  "TaskName": "action",
  "TotalReadoutTime": 0.0534586,
  "TxRefAmp": 205.285,
  "dcmmeta_affine": [
    [-2.0, 0.0, 0.0, 100.0],
    [0.0, 1.9941054582595825, -0.1534380465745926, -90.78712463378906],
    [0.0, 0.1534380465745926, 1.9941054582595825, -63.29710388183594],
    [0.0, 0.0, 0.0, 1.0]
],
  "dcmmeta_reorient_transform": [
    [0.0, -1.0, 0.0, 99.0],
    [1.0, 0.0, 0.0, 0.0],
    [0.0, 0.0, 1.0, 0.0],
    [0.0, 0.0, 0.0, 1.0]
],
  "dcmmeta_shape": [100, 100, 72, 156],
  "dcmmeta_slice_dim": 2,
  "dcmmeta_version": 0.6,
  "global": {
    "const": {
      "AcquisitionMatrix": [100, 0, 0, 100],
      "AngioFlag": "N",
      "BitsAllocated": 16,
      "BitsStored": 12,
      "BodyPartExamined": "BRAIN",
      "Columns": 900,
      "EchoNumbers": 1,
      "EchoTime": 34.0,
      "EchoTrainLength": 100,
      "FlipAngle": 90.0,
      "HighBit": 11,
      "ImageOrientationPatient": [1.0, 0.0, 0.0, 0.0, 0.99705275241223, -0.0767190257186],
      "ImagePositionPatient": [-900.0, -904.27152559477, 13.268482399648],
      "ImageType": [
        "ORIGINAL",
        "PRIMARY",
        "M",
        "ND",
        "MOSAIC"
],
      "ImagedNucleus": "1H",
      "ImagingFrequency": 123.257714,
      "InPlanePhaseEncodingDirection": "COL",
      "MRAcquisitionType": "2D",
      "MagneticFieldStrength": 3.0,
      "Manufacturer": "SIEMENS",
      "ManufacturerModelName": "Prisma",
      "Modality": "MR",
      "NumberOfAverages": 1.0,
      "NumberOfPhaseEncodingSteps": 100,
      "PercentPhaseFieldOfView": 100.0,
      "PercentSampling": 100.0,
      "PerformedProcedureStepStartTime": "153748.728000",
      "PhotometricInterpretation": "MONOCHROME2",
      "PixelBandwidth": 2380.0,
      "PixelRepresentation": 0,
      "PixelSpacing": [2.0, 2.0],
      "ProtocolName": "bold_100x100_s3_2x2x2_static_156",
      "RepetitionTime": 2000.0,
      "Rows": 900,
      "SAR": 0.06761446202849,
      "SamplesPerPixel": 1,
      "ScanOptions": "FS",
      "ScanningSequence": "EP",
      "SequenceName": "*epfid2d1_100",
      "SequenceVariant": "SK",
      "SeriesDescription": "bold_100x100_s3_2x2x2_static_156",
      "SeriesNumber": 12,
      "SeriesTime": "163945.342000",
      "SliceLocation": -56.145453531779,
      "SliceThickness": 2.0,
      "SmallestImagePixelValue": 0,
      "SoftwareVersions": "syngo MR E11",
      "SpacingBetweenSlices": 1.999999982254,
      "SpecificCharacterSet": "ISO_IR 100",
      "StudyID": "1",
      "StudyTime": "153748.609000",
      "TransmitCoilName": "Body",
      "VariableFlipAngleFlag": "N",
      "WindowCenterWidthExplanation": "Algo1",
      "dBdt": 0.0},
    "slices": {}
  },
  "time": {
    "samples": {
      "AcquisitionNumber": [1, 2, 3, 4, 5, 6, 7, 8, 9, 10, 11, 12, 13, 14, 15, 16, 17, 18, 19, 20, 21, 22, 23, 24, 25, 26, 27, 28, 29, 30, 31, 32, 33, 34, 35, 36, 37, 38, 39, 40, 41, 42, 43, 44, 45, 46, 47, 48, 49, 50, 51, 52, 53, 54, 55, 56, 57, 58, 59, 60, 61, 62, 63, 64, 65, 66, 67, 68, 69, 70, 71, 72, 73, 74, 75, 76, 77, 78, 79, 80, 81, 82, 83, 84, 85, 86, 87, 88, 89, 90, 91, 92, 93, 94, 95, 96, 97, 98, 99, 100, 101, 102, 103, 104, 105, 106, 107, 108, 109, 110, 111, 112, 113, 114, 115, 116, 117, 118, 119, 120, 121, 122, 123, 124, 125, 126, 127, 128, 129, 130, 131, 132, 133, 134, 135, 136, 137, 138, 139, 140, 141, 142, 143, 144, 145, 146, 147, 148, 149, 150, 151, 152, 153, 154, 155, 156],
      "AcquisitionTime": ["163943.385000", "163945.385000", "163947.385000", "163949.385000", "163951.385000", "163953.385000", "163955.385000", "163957.385000", "163959.385000", "164001.385000", "164003.385000", "164005.385000", "164007.385000", "164009.385000", "164011.385000", "164013.385000", "164015.385000", "164017.385000", "164019.385000", "164021.385000", "164023.385000", "164025.385000", "164027.385000", "164029.385000", "164031.385000", "164033.385000", "164035.385000", "164037.385000", "164039.385000", "164041.385000", "164043.385000", "164045.385000", "164047.385000", "164049.385000", "164051.385000", "164053.385000", "164055.385000", "164057.385000", "164059.385000", "164101.385000", "164103.385000", "164105.385000", "164107.385000", "164109.385000", "164111.385000", "164113.385000", "164115.385000", "164117.385000", "164119.385000", "164121.385000", "164123.385000", "164125.385000", "164127.385000", "164129.385000", "164131.385000", "164133.385000", "164135.385000", "164137.385000", "164139.385000", "164141.385000", "164143.385000", "164145.385000", "164147.385000", "164149.385000", "164151.385000", "164153.385000", "164155.385000", "164157.385000", "164159.385000", "164201.385000", "164203.385000", "164205.385000", "164207.385000", "164209.385000", "164211.385000", "164213.385000", "164215.385000", "164217.385000", "164219.385000", "164221.385000", "164223.385000", "164225.385000", "164227.385000", "164229.385000", "164231.385000", "164233.385000", "164235.385000", "164237.385000", "164239.385000", "164241.385000", "164243.385000", "164245.385000", "164247.385000", "164249.385000", "164251.385000", "164253.385000", "164255.385000", "164257.385000", "164259.385000", "164301.385000", "164303.385000", "164305.385000", "164307.385000", "164309.385000", "164311.385000", "164313.385000", "164315.385000", "164317.385000", "164319.385000", "164321.385000", "164323.385000", "164325.385000", "164327.385000", "164329.385000", "164331.385000", "164333.385000", "164335.385000", "164337.385000", "164339.385000", "164341.385000", "164343.385000", "164345.385000", "164347.385000", "164349.385000", "164351.385000", "164353.385000", "164355.385000", "164357.385000", "164359.385000", "164401.385000", "164403.385000", "164405.385000", "164407.385000", "164409.385000", "164411.385000", "164413.385000", "164415.385000", "164417.385000", "164419.385000", "164421.385000", "164423.385000", "164425.385000", "164427.385000", "164429.385000", "164431.385000", "164433.385000", "164435.385000", "164437.385000", "164439.385000", "164441.385000", "164443.385000", "164445.385000", "164447.385000", "164449.385000", "164451.385000", "164453.385000"],
      "ContentTime": ["163945.345000", "163946.840000", "163948.839000", "163950.840000", "163952.840000", "163954.839000", "163956.839000", "163958.840000", "164000.841000", "164002.840000", "164004.840000", "164006.840000", "164008.839000", "164010.840000", "164012.839000", "164014.840000", "164016.840000", "164018.841000", "164020.840000", "164022.840000", "164024.840000", "164026.839000", "164028.840000", "164030.840000", "164032.840000", "164034.841000", "164036.840000", "164038.841000", "164040.840000", "164042.839000", "164044.839000", "164046.840000", "164048.840000", "164050.840000", "164052.840000", "164054.840000", "164057.340000", "164058.839000", "164100.839000", "164102.840000", "164104.840000", "164106.840000", "164108.840000", "164110.840000", "164112.840000", "164114.841000", "164117.340000", "164118.839000", "164120.840000", "164122.840000", "164124.839000", "164126.841000", "164128.840000", "164130.841000", "164132.840000", "164134.840000", "164136.839000", "164138.840000", "164140.839000", "164142.839000", "164144.841000", "164146.840000", "164148.840000", "164150.840000", "164152.840000", "164154.839000", "164156.839000", "164158.839000", "164200.841000", "164203.340000", "164204.841000", "164206.840000", "164208.840000", "164210.839000", "164212.839000", "164214.839000", "164216.839000", "164218.841000", "164220.840000", "164222.840000", "164224.840000", "164226.840000", "164228.840000", "164230.840000", "164232.839000", "164234.840000", "164236.841000", "164238.841000", "164240.840000", "164242.840000", "164244.839000", "164246.839000", "164248.839000", "164250.860000", "164252.839000", "164254.841000", "164256.841000", "164258.841000", "164300.839000", "164302.840000", "164304.839000", "164306.839000", "164308.839000", "164310.840000", "164312.840000", "164314.841000", "164316.840000", "164319.340000", "164320.840000", "164322.840000", "164324.839000", "164326.840000", "164328.841000", "164330.841000", "164332.840000", "164334.841000", "164336.840000", "164338.840000", "164340.840000", "164342.839000", "164344.839000", "164346.840000", "164348.841000", "164350.840000", "164352.840000", "164354.839000", "164356.840000", "164358.840000", "164400.839000", "164402.841000", "164404.840000", "164406.841000", "164408.840000", "164410.840000", "164412.840000", "164414.839000", "164416.840000", "164418.840000", "164420.840000", "164422.841000", "164424.840000", "164426.841000", "164428.839000", "164430.840000", "164432.839000", "164434.839000", "164436.839000", "164438.841000", "164440.840000", "164442.840000", "164444.840000", "164446.840000", "164448.839000", "164451.340000", "164452.840000", "164454.733000"],
      "InstanceCreationTime": ["163945.345000", "163946.840000", "163948.839000", "163950.840000", "163952.840000", "163954.839000", "163956.839000", "163958.840000", "164000.841000", "164002.840000", "164004.840000", "164006.840000", "164008.839000", "164010.840000", "164012.839000", "164014.840000", "164016.840000", "164018.841000", "164020.840000", "164022.840000", "164024.840000", "164026.839000", "164028.840000", "164030.840000", "164032.840000", "164034.841000", "164036.840000", "164038.841000", "164040.840000", "164042.839000", "164044.839000", "164046.840000", "164048.840000", "164050.840000", "164052.840000", "164054.840000", "164057.340000", "164058.839000", "164100.839000", "164102.840000", "164104.840000", "164106.840000", "164108.840000", "164110.840000", "164112.840000", "164114.841000", "164117.340000", "164118.839000", "164120.840000", "164122.840000", "164124.839000", "164126.841000", "164128.840000", "164130.841000", "164132.840000", "164134.840000", "164136.839000", "164138.840000", "164140.839000", "164142.839000", "164144.841000", "164146.840000", "164148.840000", "164150.840000", "164152.840000", "164154.839000", "164156.839000", "164158.839000", "164200.841000", "164203.340000", "164204.841000", "164206.840000", "164208.840000", "164210.839000", "164212.839000", "164214.839000", "164216.839000", "164218.841000", "164220.840000", "164222.840000", "164224.840000", "164226.840000", "164228.840000", "164230.840000", "164232.839000", "164234.840000", "164236.841000", "164238.841000", "164240.840000", "164242.840000", "164244.839000", "164246.839000", "164248.839000", "164250.860000", "164252.839000", "164254.841000", "164256.841000", "164258.841000", "164300.839000", "164302.840000", "164304.839000", "164306.839000", "164308.839000", "164310.840000", "164312.840000", "164314.841000", "164316.840000", "164319.340000", "164320.840000", "164322.840000", "164324.839000", "164326.840000", "164328.841000", "164330.841000", "164332.840000", "164334.841000", "164336.840000", "164338.840000", "164340.840000", "164342.839000", "164344.839000", "164346.840000", "164348.841000", "164350.840000", "164352.840000", "164354.839000", "164356.840000", "164358.840000", "164400.839000", "164402.841000", "164404.840000", "164406.841000", "164408.840000", "164410.840000", "164412.840000", "164414.839000", "164416.840000", "164418.840000", "164420.840000", "164422.841000", "164424.840000", "164426.841000", "164428.839000", "164430.840000", "164432.839000", "164434.839000", "164436.839000", "164438.841000", "164440.840000", "164442.840000", "164444.840000", "164446.840000", "164448.839000", "164451.340000", "164452.840000", "164454.733000"],
      "InstanceNumber": [1, 2, 3, 4, 5, 6, 7, 8, 9, 10, 11, 12, 13, 14, 15, 16, 17, 18, 19, 20, 21, 22, 23, 24, 25, 26, 27, 28, 29, 30, 31, 32, 33, 34, 35, 36, 37, 38, 39, 40, 41, 42, 43, 44, 45, 46, 47, 48, 49, 50, 51, 52, 53, 54, 55, 56, 57, 58, 59, 60, 61, 62, 63, 64, 65, 66, 67, 68, 69, 70, 71, 72, 73, 74, 75, 76, 77, 78, 79, 80, 81, 82, 83, 84, 85, 86, 87, 88, 89, 90, 91, 92, 93, 94, 95, 96, 97, 98, 99, 100, 101, 102, 103, 104, 105, 106, 107, 108, 109, 110, 111, 112, 113, 114, 115, 116, 117, 118, 119, 120, 121, 122, 123, 124, 125, 126, 127, 128, 129, 130, 131, 132, 133, 134, 135, 136, 137, 138, 139, 140, 141, 142, 143, 144, 145, 146, 147, 148, 149, 150, 151, 152, 153, 154, 155, 156],
      "LargestImagePixelValue": [3331, 3296, 3277, 3293, 3267, 3315, 3287, 3297, 3310, 3284, 3266, 3320, 3261, 3271, 3271, 3303, 3289, 3311, 3331, 3292, 3273, 3323, 3297, 3333, 3296, 3306, 3286, 3305, 3243, 3275, 3273, 3294, 3295, 3266, 3292, 3313, 3301, 3305, 3293, 3281, 3294, 3302, 3304, 3239, 3282, 3326, 3299, 3310, 3293, 3249, 3286, 3279, 3258, 3279, 3279, 3287, 3304, 3281, 3260, 3288, 3240, 3243, 3281, 3268, 3258, 3270, 3288, 3285, 3294, 3255, 3283, 3267, 3265, 3254, 3260, 3258, 3231, 3261, 3265, 3283, 3277, 3268, 3240, 3243, 3302, 3280, 3232, 3219, 3258, 3241, 3229, 3246, 3269, 3279, 3259, 3225, 3244, 3249, 3333, 3279, 3331, 3346, 3334, 3309, 3338, 3343, 3330, 3304, 3335, 3322, 3307, 3283, 3295, 3307, 3335, 3350, 3291, 3303, 3330, 3245, 3218, 3230, 3182, 3199, 3162, 3172, 3165, 3143, 3156, 3165, 3149, 3174, 3184, 3146, 3168, 3175, 3114, 3141, 3135, 3119, 3108, 3110, 3099, 3102, 3129, 3109, 3123, 3103, 3138, 3100, 3134, 3121, 3099, 3107, 3105, 3090],
      "WindowCenter": [723.0, 722.0, 723.0, 724.0, 724.0, 723.0, 722.0, 722.0, 723.0, 724.0, 724.0, 724.0, 723.0, 723.0, 722.0, 722.0, 721.0, 721.0, 721.0, 722.0, 722.0, 723.0, 723.0, 724.0, 722.0, 722.0, 721.0, 722.0, 722.0, 722.0, 721.0, 720.0, 719.0, 720.0, 721.0, 722.0, 721.0, 721.0, 723.0, 722.0, 721.0, 721.0, 721.0, 722.0, 722.0, 721.0, 721.0, 721.0, 721.0, 722.0, 722.0, 723.0, 721.0, 720.0, 721.0, 721.0, 722.0, 721.0, 720.0, 721.0, 721.0, 721.0, 721.0, 721.0, 722.0, 722.0, 721.0, 721.0, 721.0, 721.0, 721.0, 721.0, 720.0, 720.0, 721.0, 722.0, 723.0, 722.0, 721.0, 721.0, 720.0, 720.0, 720.0, 721.0, 722.0, 723.0, 723.0, 722.0, 722.0, 722.0, 721.0, 721.0, 720.0, 721.0, 721.0, 721.0, 721.0, 721.0, 722.0, 722.0, 724.0, 725.0, 724.0, 722.0, 722.0, 723.0, 724.0, 724.0, 724.0, 724.0, 725.0, 725.0, 725.0, 723.0, 722.0, 722.0, 722.0, 723.0, 721.0, 721.0, 721.0, 722.0, 721.0, 721.0, 721.0, 720.0, 719.0, 720.0, 720.0, 720.0, 719.0, 719.0, 719.0, 720.0, 720.0, 720.0, 720.0, 719.0, 720.0, 720.0, 719.0, 718.0, 718.0, 719.0, 720.0, 721.0, 720.0, 719.0, 720.0, 719.0, 719.0, 719.0, 719.0, 720.0, 721.0, 719.0],
      "WindowWidth": [1578.0, 1575.0, 1576.0, 1580.0, 1579.0, 1578.0, 1575.0, 1576.0, 1579.0, 1581.0, 1581.0, 1580.0, 1577.0, 1577.0, 1576.0, 1575.0, 1572.0, 1572.0, 1571.0, 1574.0, 1575.0, 1578.0, 1578.0, 1579.0, 1575.0, 1574.0, 1572.0, 1575.0, 1575.0, 1574.0, 1571.0, 1569.0, 1568.0, 1569.0, 1574.0, 1574.0, 1572.0, 1573.0, 1577.0, 1575.0, 1572.0, 1573.0, 1573.0, 1574.0, 1574.0, 1572.0, 1571.0, 1571.0, 1573.0, 1576.0, 1575.0, 1576.0, 1572.0, 1570.0, 1571.0, 1571.0, 1574.0, 1571.0, 1570.0, 1572.0, 1572.0, 1571.0, 1573.0, 1573.0, 1574.0, 1574.0, 1571.0, 1571.0, 1573.0, 1572.0, 1572.0, 1571.0, 1570.0, 1570.0, 1572.0, 1576.0, 1578.0, 1576.0, 1572.0, 1572.0, 1570.0, 1569.0, 1569.0, 1571.0, 1575.0, 1576.0, 1577.0, 1575.0, 1575.0, 1573.0, 1571.0, 1571.0, 1569.0, 1571.0, 1571.0, 1572.0, 1572.0, 1572.0, 1576.0, 1576.0, 1582.0, 1582.0, 1578.0, 1575.0, 1575.0, 1578.0, 1580.0, 1581.0, 1580.0, 1580.0, 1582.0, 1583.0, 1582.0, 1577.0, 1575.0, 1574.0, 1574.0, 1578.0, 1572.0, 1573.0, 1572.0, 1573.0, 1572.0, 1571.0, 1571.0, 1569.0, 1567.0, 1568.0, 1570.0, 1570.0, 1566.0, 1566.0, 1566.0, 1568.0, 1569.0, 1570.0, 1569.0, 1568.0, 1570.0, 1568.0, 1565.0, 1564.0, 1563.0, 1565.0, 1570.0, 1572.0, 1570.0, 1567.0, 1568.0, 1565.0, 1565.0, 1565.0, 1566.0, 1568.0, 1571.0, 1566.0]
    },
    "slices": {}
  }
}