{
  "AcquisitionMatrixPE": 100,
  "AcquisitionNumber": 1,
  "AcquisitionTime": "16:00:21.292500",
  "BandwidthPerPixelPhaseEncode": 18.519,
  "BaseResolution": 100,
  "BodyPartExamined": "BRAIN",
  "CoilCombinationMethod": "Sum of Squares",
  "ConsistencyInfo": "N4_VE11C_LATEST_20160120",
  "ConversionSoftware": "dcm2niix",
  "ConversionSoftwareVersion": "v1.0.20211006",
  "DerivedVendorReportedEchoSpacing": 0.000539986,
  "DeviceSerialNumber": "166078",
  "DwellTime": 2.1e-06,
  "EchoTime": 0.034,
  "EchoTrainLength": 100,
  "EffectiveEchoSpacing": 0.000539986,
  "FlipAngle": 90,
  "ImageOrientationPatientDICOM": [1, 0, 0, 0, 0.997053, -0.076719],
  "ImageOrientationText": "Tra>Cor(-4.4)",
  "ImageType": [
    "ORIGINAL",
    "PRIMARY",
    "M",
    "ND",
    "MOSAIC"
],
  "ImagingFrequency": 123.258,
  "InPlanePhaseEncodingDirectionDICOM": "COL",
  "InstitutionAddress": "Street StreetNo,Bei Jing,District,CN,ZIP",
  "InstitutionName": "BeiJing Normal University",
  "InstitutionalDepartmentName": "Department",
  "MRAcquisitionType": "2D",
  "MagneticFieldStrength": 3,
  "Manufacturer": "Siemens",
  "ManufacturersModelName": "Prisma",
  "Modality": "MR",
  "MultibandAccelerationFactor": 3,
  "PartialFourier": 1,
  "PatientPosition": "HFS",
  "PercentPhaseFOV": 100,
  "PercentSampling": 100,
  "PhaseEncodingDirection": "j-",
  "PhaseEncodingSteps": 100,
  "PhaseResolution": 1,
  "PixelBandwidth": 2380,
  "ProcedureStepDescription": "BNU_P2018_64CH^Zhen.ZongLei",
  "ProtocolName": "bold_100x100_s3_2x2x2_static_156",
  "PulseSequenceDetails": "%SiemensSeq%\\ep2d_bold",
  "ReceiveCoilActiveElements": "HC1-7;NC1",
  "ReceiveCoilName": "HeadNeck_64",
  "ReconMatrixPE": 100,
  "RefLinesPE": 32,
  "RepetitionTime": 2,
  "SAR": 0.0676145,
  "ScanOptions": "FS",
  "ScanningSequence": "EP",
  "SequenceName": "*epfid2d1_100",
  "SequenceVariant": "SK",
  "SeriesDescription": "bold_100x100_s3_2x2x2_static_156",
  "SeriesNumber": 5,
  "ShimSetting": [-5440, -11517, -1244, 505, 102, -237, -185, 8],
  "SliceThickness": 2,
  "SliceTiming": [1.485, 0, 0.99, 0.0825, 1.0725, 0.165, 1.155, 0.2475, 1.2375, 0.33, 1.32, 0.4125, 1.4025, 0.5775, 1.5675, 0.66, 1.65, 0.7425, 1.7325, 0.825, 1.815, 0.9075, 1.8975, 0.495, 1.485, 0, 0.99, 0.0825, 1.0725, 0.165, 1.155, 0.2475, 1.2375, 0.33, 1.32, 0.4125, 1.4025, 0.5775, 1.5675, 0.66, 1.65, 0.7425, 1.7325, 0.825, 1.815, 0.9075, 1.8975, 0.495, 1.485, 0, 0.99, 0.0825, 1.0725, 0.165, 1.155, 0.2475, 1.2375, 0.33, 1.32, 0.4125, 1.4025, 0.5775, 1.5675, 0.66, 1.65, 0.7425, 1.7325, 0.825, 1.815, 0.9075, 1.8975, 0.495],
  "SoftwareVersions": "syngo MR E11",
  "SpacingBetweenSlices": 2,
  "StationName": "AWP166078",
  "TaskName": "action",
  "TotalReadoutTime": 0.0534586,
  "TxRefAmp": 205.285,
  "dcmmeta_affine": [
    [-2.0, 0.0, 0.0, 100.0],
    [0.0, 1.9941054582595825, -0.1534380465745926, -90.78712463378906],
    [0.0, 0.1534380465745926, 1.9941054582595825, -63.29710388183594],
    [0.0, 0.0, 0.0, 1.0]
],
  "dcmmeta_reorient_transform": [
    [0.0, -1.0, 0.0, 99.0],
    [1.0, 0.0, 0.0, 0.0],
    [0.0, 0.0, 1.0, 0.0],
    [0.0, 0.0, 0.0, 1.0]
],
  "dcmmeta_shape": [100, 100, 72, 156],
  "dcmmeta_slice_dim": 2,
  "dcmmeta_version": 0.6,
  "global": {
    "const": {
      "AcquisitionMatrix": [100, 0, 0, 100],
      "AngioFlag": "N",
      "BitsAllocated": 16,
      "BitsStored": 12,
      "BodyPartExamined": "BRAIN",
      "Columns": 900,
      "EchoNumbers": 1,
      "EchoTime": 34.0,
      "EchoTrainLength": 100,
      "FlipAngle": 90.0,
      "HighBit": 11,
      "ImageOrientationPatient": [1.0, 0.0, 0.0, 0.0, 0.99705275241223, -0.0767190257186],
      "ImagePositionPatient": [-900.0, -904.27152559477, 13.268482399648],
      "ImageType": [
        "ORIGINAL",
        "PRIMARY",
        "M",
        "ND",
        "MOSAIC"
],
      "ImagedNucleus": "1H",
      "ImagingFrequency": 123.257712,
      "InPlanePhaseEncodingDirection": "COL",
      "MRAcquisitionType": "2D",
      "MagneticFieldStrength": 3.0,
      "Manufacturer": "SIEMENS",
      "ManufacturerModelName": "Prisma",
      "Modality": "MR",
      "NumberOfAverages": 1.0,
      "NumberOfPhaseEncodingSteps": 100,
      "PercentPhaseFieldOfView": 100.0,
      "PercentSampling": 100.0,
      "PerformedProcedureStepStartTime": "153748.728000",
      "PhotometricInterpretation": "MONOCHROME2",
      "PixelBandwidth": 2380.0,
      "PixelRepresentation": 0,
      "PixelSpacing": [2.0, 2.0],
      "ProtocolName": "bold_100x100_s3_2x2x2_static_156",
      "RepetitionTime": 2000.0,
      "Rows": 900,
      "SAR": 0.06761446202849,
      "SamplesPerPixel": 1,
      "ScanOptions": "FS",
      "ScanningSequence": "EP",
      "SequenceName": "*epfid2d1_100",
      "SequenceVariant": "SK",
      "SeriesDescription": "bold_100x100_s3_2x2x2_static_156",
      "SeriesNumber": 5,
      "SeriesTime": "160024.286000",
      "SliceLocation": -56.145453531779,
      "SliceThickness": 2.0,
      "SmallestImagePixelValue": 0,
      "SoftwareVersions": "syngo MR E11",
      "SpacingBetweenSlices": 1.999999982254,
      "SpecificCharacterSet": "ISO_IR 100",
      "StudyID": "1",
      "StudyTime": "153748.609000",
      "TransmitCoilName": "Body",
      "VariableFlipAngleFlag": "N",
      "WindowCenterWidthExplanation": "Algo1",
      "dBdt": 0.0},
    "slices": {}
  },
  "time": {
    "samples": {
      "AcquisitionNumber": [1, 2, 3, 4, 5, 6, 7, 8, 9, 10, 11, 12, 13, 14, 15, 16, 17, 18, 19, 20, 21, 22, 23, 24, 25, 26, 27, 28, 29, 30, 31, 32, 33, 34, 35, 36, 37, 38, 39, 40, 41, 42, 43, 44, 45, 46, 47, 48, 49, 50, 51, 52, 53, 54, 55, 56, 57, 58, 59, 60, 61, 62, 63, 64, 65, 66, 67, 68, 69, 70, 71, 72, 73, 74, 75, 76, 77, 78, 79, 80, 81, 82, 83, 84, 85, 86, 87, 88, 89, 90, 91, 92, 93, 94, 95, 96, 97, 98, 99, 100, 101, 102, 103, 104, 105, 106, 107, 108, 109, 110, 111, 112, 113, 114, 115, 116, 117, 118, 119, 120, 121, 122, 123, 124, 125, 126, 127, 128, 129, 130, 131, 132, 133, 134, 135, 136, 137, 138, 139, 140, 141, 142, 143, 144, 145, 146, 147, 148, 149, 150, 151, 152, 153, 154, 155, 156],
      "AcquisitionTime": ["160021.292500", "160023.292500", "160025.292500", "160027.292500", "160029.292500", "160031.292500", "160033.292500", "160035.292500", "160037.292500", "160039.292500", "160041.292500", "160043.292500", "160045.292500", "160047.292500", "160049.292500", "160051.292500", "160053.292500", "160055.292500", "160057.292500", "160059.292500", "160101.292500", "160103.292500", "160105.292500", "160107.292500", "160109.292500", "160111.292500", "160113.292500", "160115.292500", "160117.292500", "160119.292500", "160121.292500", "160123.292500", "160125.292500", "160127.292500", "160129.292500", "160131.292500", "160133.292500", "160135.292500", "160137.292500", "160139.292500", "160141.292500", "160143.292500", "160145.292500", "160147.292500", "160149.292500", "160151.292500", "160153.292500", "160155.292500", "160157.292500", "160159.292500", "160201.292500", "160203.292500", "160205.292500", "160207.292500", "160209.292500", "160211.292500", "160213.292500", "160215.292500", "160217.292500", "160219.292500", "160221.292500", "160223.292500", "160225.292500", "160227.292500", "160229.292500", "160231.292500", "160233.292500", "160235.292500", "160237.292500", "160239.292500", "160241.292500", "160243.292500", "160245.292500", "160247.292500", "160249.292500", "160251.292500", "160253.292500", "160255.292500", "160257.292500", "160259.292500", "160301.292500", "160303.292500", "160305.292500", "160307.292500", "160309.292500", "160311.292500", "160313.292500", "160315.292500", "160317.292500", "160319.292500", "160321.292500", "160323.292500", "160325.292500", "160327.292500", "160329.292500", "160331.292500", "160333.292500", "160335.292500", "160337.292500", "160339.292500", "160341.292500", "160343.292500", "160345.292500", "160347.292500", "160349.292500", "160351.292500", "160353.292500", "160355.292500", "160357.292500", "160359.292500", "160401.292500", "160403.292500", "160405.292500", "160407.292500", "160409.292500", "160411.292500", "160413.292500", "160415.292500", "160417.292500", "160419.292500", "160421.292500", "160423.292500", "160425.292500", "160427.292500", "160429.292500", "160431.292500", "160433.292500", "160435.292500", "160437.292500", "160439.292500", "160441.292500", "160443.292500", "160445.292500", "160447.292500", "160449.292500", "160451.292500", "160453.292500", "160455.292500", "160457.292500", "160459.292500", "160501.292500", "160503.292500", "160505.292500", "160507.292500", "160509.292500", "160511.292500", "160513.292500", "160515.292500", "160517.292500", "160519.292500", "160521.292500", "160523.292500", "160525.292500", "160527.292500", "160529.292500", "160531.292500"],
      "ContentTime": ["160024.289000", "160025.785000", "160027.785000", "160029.784000", "160031.784000", "160033.784000", "160035.785000", "160037.785000", "160039.786000", "160041.784000", "160043.784000", "160045.784000", "160047.784000", "160049.784000", "160051.784000", "160053.785000", "160055.786000", "160057.785000", "160059.784000", "160101.784000", "160103.784000", "160105.784000", "160107.784000", "160109.784000", "160111.784000", "160113.786000", "160115.785000", "160117.784000", "160119.784000", "160121.785000", "160123.785000", "160125.785000", "160127.784000", "160129.784000", "160131.786000", "160133.785000", "160135.784000", "160137.784000", "160139.785000", "160141.784000", "160143.785000", "160145.784000", "160147.786000", "160149.785000", "160151.785000", "160153.785000", "160155.785000", "160157.784000", "160159.784000", "160201.785000", "160203.784000", "160205.786000", "160207.785000", "160209.784000", "160211.784000", "160213.784000", "160215.785000", "160217.785000", "160219.784000", "160221.784000", "160223.786000", "160225.785000", "160227.785000", "160229.784000", "160231.785000", "160233.784000", "160235.785000", "160237.784000", "160239.784000", "160241.786000", "160243.785000", "160245.785000", "160247.785000", "160249.785000", "160251.784000", "160253.784000", "160255.785000", "160257.785000", "160259.785000", "160301.784000", "160303.784000", "160305.784000", "160307.784000", "160309.785000", "160311.784000", "160313.785000", "160315.785000", "160317.785000", "160319.785000", "160321.784000", "160323.784000", "160325.784000", "160327.785000", "160329.784000", "160331.785000", "160333.786000", "160335.785000", "160337.784000", "160339.785000", "160341.784000", "160343.784000", "160345.785000", "160347.785000", "160349.785000", "160351.786000", "160353.784000", "160355.784000", "160357.784000", "160359.784000", "160401.784000", "160403.784000", "160405.784000", "160407.785000", "160409.785000", "160411.785000", "160413.785000", "160415.785000", "160417.784000", "160419.784000", "160421.784000", "160423.785000", "160425.785000", "160427.786000", "160429.785000", "160431.785000", "160433.785000", "160435.784000", "160437.785000", "160439.784000", "160441.785000", "160443.785000", "160445.784000", "160447.784000", "160449.785000", "160451.785000", "160453.785000", "160455.785000", "160457.784000", "160459.784000", "160501.785000", "160503.784000", "160505.784000", "160507.785000", "160509.784000", "160511.785000", "160513.784000", "160515.784000", "160517.786000", "160519.786000", "160521.785000", "160523.784000", "160525.785000", "160527.785000", "160529.784000", "160531.785000", "160533.660000"],
      "InstanceCreationTime": ["160024.289000", "160025.785000", "160027.785000", "160029.784000", "160031.784000", "160033.784000", "160035.785000", "160037.785000", "160039.786000", "160041.784000", "160043.784000", "160045.784000", "160047.784000", "160049.784000", "160051.784000", "160053.785000", "160055.786000", "160057.785000", "160059.784000", "160101.784000", "160103.784000", "160105.784000", "160107.784000", "160109.784000", "160111.784000", "160113.786000", "160115.785000", "160117.784000", "160119.784000", "160121.785000", "160123.785000", "160125.785000", "160127.784000", "160129.784000", "160131.786000", "160133.785000", "160135.784000", "160137.784000", "160139.785000", "160141.784000", "160143.785000", "160145.784000", "160147.786000", "160149.785000", "160151.785000", "160153.785000", "160155.785000", "160157.784000", "160159.784000", "160201.785000", "160203.784000", "160205.786000", "160207.785000", "160209.784000", "160211.784000", "160213.784000", "160215.785000", "160217.785000", "160219.784000", "160221.784000", "160223.786000", "160225.785000", "160227.785000", "160229.784000", "160231.785000", "160233.784000", "160235.785000", "160237.784000", "160239.784000", "160241.786000", "160243.785000", "160245.785000", "160247.785000", "160249.785000", "160251.784000", "160253.784000", "160255.785000", "160257.785000", "160259.785000", "160301.784000", "160303.784000", "160305.784000", "160307.784000", "160309.785000", "160311.784000", "160313.785000", "160315.785000", "160317.785000", "160319.785000", "160321.784000", "160323.784000", "160325.784000", "160327.785000", "160329.784000", "160331.785000", "160333.786000", "160335.785000", "160337.784000", "160339.785000", "160341.784000", "160343.784000", "160345.785000", "160347.785000", "160349.785000", "160351.786000", "160353.784000", "160355.784000", "160357.784000", "160359.784000", "160401.784000", "160403.784000", "160405.784000", "160407.785000", "160409.785000", "160411.785000", "160413.785000", "160415.785000", "160417.784000", "160419.784000", "160421.784000", "160423.785000", "160425.785000", "160427.786000", "160429.785000", "160431.785000", "160433.785000", "160435.784000", "160437.785000", "160439.784000", "160441.785000", "160443.785000", "160445.784000", "160447.784000", "160449.785000", "160451.785000", "160453.785000", "160455.785000", "160457.784000", "160459.784000", "160501.785000", "160503.784000", "160505.784000", "160507.785000", "160509.784000", "160511.785000", "160513.784000", "160515.784000", "160517.786000", "160519.786000", "160521.785000", "160523.784000", "160525.785000", "160527.785000", "160529.784000", "160531.785000", "160533.660000"],
      "InstanceNumber": [1, 2, 3, 4, 5, 6, 7, 8, 9, 10, 11, 12, 13, 14, 15, 16, 17, 18, 19, 20, 21, 22, 23, 24, 25, 26, 27, 28, 29, 30, 31, 32, 33, 34, 35, 36, 37, 38, 39, 40, 41, 42, 43, 44, 45, 46, 47, 48, 49, 50, 51, 52, 53, 54, 55, 56, 57, 58, 59, 60, 61, 62, 63, 64, 65, 66, 67, 68, 69, 70, 71, 72, 73, 74, 75, 76, 77, 78, 79, 80, 81, 82, 83, 84, 85, 86, 87, 88, 89, 90, 91, 92, 93, 94, 95, 96, 97, 98, 99, 100, 101, 102, 103, 104, 105, 106, 107, 108, 109, 110, 111, 112, 113, 114, 115, 116, 117, 118, 119, 120, 121, 122, 123, 124, 125, 126, 127, 128, 129, 130, 131, 132, 133, 134, 135, 136, 137, 138, 139, 140, 141, 142, 143, 144, 145, 146, 147, 148, 149, 150, 151, 152, 153, 154, 155, 156],
      "LargestImagePixelValue": [3430, 3343, 3327, 3333, 3330, 3310, 3325, 3311, 3325, 3296, 3306, 3308, 3342, 3309, 3286, 3324, 3331, 3270, 3318, 3310, 3315, 3299, 3257, 3311, 3328, 3296, 3310, 3297, 3277, 3301, 3295, 3302, 3291, 3257, 3309, 3308, 3298, 3291, 3294, 3310, 3328, 3298, 3312, 3325, 3278, 3304, 3308, 3303, 3316, 3286, 3296, 3293, 3290, 3319, 3314, 3315, 3286, 3280, 3317, 3271, 3292, 3299, 3294, 3310, 3295, 3294, 3297, 3279, 3275, 3286, 3283, 3266, 3275, 3275, 3287, 3295, 3284, 3281, 3247, 3285, 3251, 3256, 3304, 3268, 3276, 3265, 3287, 3311, 3289, 3267, 3256, 3291, 3258, 3254, 3258, 3268, 3314, 3232, 3243, 3233, 3256, 3286, 3233, 3223, 3254, 3222, 3252, 3265, 3262, 3253, 3240, 3269, 3254, 3229, 3265, 3240, 3281, 3218, 3218, 3255, 3239, 3258, 3214, 3247, 3255, 3245, 3255, 3250, 3245, 3249, 3226, 3220, 3278, 3271, 3272, 3215, 3258, 3248, 3253, 3246, 3238, 3259, 3254, 3268, 3224, 3221, 3255, 3259, 3248, 3259, 3228, 3277, 3220, 3223, 3242, 3240],
      "WindowCenter": [716.0, 714.0, 713.0, 713.0, 712.0, 712.0, 712.0, 712.0, 712.0, 713.0, 713.0, 712.0, 713.0, 713.0, 711.0, 712.0, 711.0, 711.0, 711.0, 712.0, 711.0, 711.0, 710.0, 711.0, 711.0, 712.0, 712.0, 713.0, 712.0, 712.0, 712.0, 712.0, 712.0, 713.0, 712.0, 712.0, 711.0, 713.0, 713.0, 713.0, 712.0, 711.0, 711.0, 712.0, 711.0, 711.0, 712.0, 712.0, 712.0, 713.0, 713.0, 713.0, 712.0, 711.0, 710.0, 711.0, 712.0, 712.0, 713.0, 712.0, 712.0, 712.0, 712.0, 712.0, 712.0, 712.0, 712.0, 712.0, 712.0, 712.0, 712.0, 713.0, 714.0, 712.0, 712.0, 712.0, 713.0, 714.0, 712.0, 712.0, 713.0, 714.0, 713.0, 712.0, 713.0, 713.0, 714.0, 714.0, 712.0, 711.0, 710.0, 712.0, 713.0, 714.0, 712.0, 712.0, 713.0, 711.0, 711.0, 713.0, 713.0, 713.0, 711.0, 711.0, 712.0, 713.0, 713.0, 713.0, 712.0, 713.0, 713.0, 714.0, 714.0, 713.0, 713.0, 713.0, 713.0, 713.0, 713.0, 713.0, 712.0, 713.0, 713.0, 713.0, 713.0, 713.0, 713.0, 713.0, 713.0, 714.0, 713.0, 712.0, 712.0, 711.0, 712.0, 712.0, 713.0, 713.0, 712.0, 712.0, 712.0, 712.0, 712.0, 712.0, 712.0, 712.0, 713.0, 713.0, 713.0, 714.0, 714.0, 714.0, 712.0, 712.0, 713.0, 713.0],
      "WindowWidth": [1556.0, 1549.0, 1548.0, 1546.0, 1546.0, 1545.0, 1545.0, 1545.0, 1546.0, 1549.0, 1549.0, 1546.0, 1547.0, 1547.0, 1543.0, 1544.0, 1543.0, 1541.0, 1543.0, 1545.0, 1542.0, 1542.0, 1541.0, 1543.0, 1543.0, 1545.0, 1546.0, 1546.0, 1545.0, 1545.0, 1544.0, 1545.0, 1546.0, 1546.0, 1545.0, 1544.0, 1543.0, 1546.0, 1548.0, 1548.0, 1545.0, 1543.0, 1542.0, 1544.0, 1543.0, 1542.0, 1544.0, 1545.0, 1546.0, 1547.0, 1547.0, 1547.0, 1544.0, 1542.0, 1541.0, 1543.0, 1544.0, 1545.0, 1546.0, 1546.0, 1545.0, 1546.0, 1546.0, 1546.0, 1546.0, 1545.0, 1545.0, 1545.0, 1545.0, 1545.0, 1544.0, 1547.0, 1550.0, 1546.0, 1544.0, 1545.0, 1548.0, 1549.0, 1545.0, 1545.0, 1547.0, 1549.0, 1549.0, 1546.0, 1546.0, 1548.0, 1549.0, 1550.0, 1545.0, 1542.0, 1540.0, 1544.0, 1548.0, 1550.0, 1546.0, 1545.0, 1547.0, 1543.0, 1543.0, 1548.0, 1549.0, 1547.0, 1543.0, 1542.0, 1545.0, 1547.0, 1548.0, 1547.0, 1546.0, 1548.0, 1547.0, 1549.0, 1549.0, 1546.0, 1547.0, 1546.0, 1547.0, 1548.0, 1547.0, 1549.0, 1546.0, 1548.0, 1547.0, 1547.0, 1547.0, 1547.0, 1547.0, 1547.0, 1547.0, 1549.0, 1548.0, 1546.0, 1544.0, 1542.0, 1544.0, 1545.0, 1548.0, 1547.0, 1545.0, 1544.0, 1544.0, 1546.0, 1545.0, 1545.0, 1545.0, 1544.0, 1547.0, 1546.0, 1546.0, 1549.0, 1550.0, 1549.0, 1545.0, 1545.0, 1547.0, 1547.0]
    },
    "slices": {}
  }
}