{
  "AcquisitionMatrixPE": 100,
  "AcquisitionNumber": 1,
  "AcquisitionTime": "16:14:37.540000",
  "BandwidthPerPixelPhaseEncode": 18.519,
  "BaseResolution": 100,
  "BodyPartExamined": "BRAIN",
  "CoilCombinationMethod": "Sum of Squares",
  "ConsistencyInfo": "N4_VE11C_LATEST_20160120",
  "ConversionSoftware": "dcm2niix",
  "ConversionSoftwareVersion": "v1.0.20211006",
  "DerivedVendorReportedEchoSpacing": 0.000539986,
  "DeviceSerialNumber": "166078",
  "DwellTime": 2.1e-06,
  "EchoTime": 0.034,
  "EchoTrainLength": 100,
  "EffectiveEchoSpacing": 0.000539986,
  "FlipAngle": 90,
  "ImageOrientationPatientDICOM": [1, 0, 0, 0, 0.997053, -0.076719],
  "ImageOrientationText": "Tra>Cor(-4.4)",
  "ImageType": [
    "ORIGINAL",
    "PRIMARY",
    "M",
    "ND",
    "MOSAIC"
],
  "ImagingFrequency": 123.258,
  "InPlanePhaseEncodingDirectionDICOM": "COL",
  "InstitutionAddress": "Street StreetNo,Bei Jing,District,CN,ZIP",
  "InstitutionName": "BeiJing Normal University",
  "InstitutionalDepartmentName": "Department",
  "MRAcquisitionType": "2D",
  "MagneticFieldStrength": 3,
  "Manufacturer": "Siemens",
  "ManufacturersModelName": "Prisma",
  "Modality": "MR",
  "MultibandAccelerationFactor": 3,
  "PartialFourier": 1,
  "PatientPosition": "HFS",
  "PercentPhaseFOV": 100,
  "PercentSampling": 100,
  "PhaseEncodingDirection": "j-",
  "PhaseEncodingSteps": 100,
  "PhaseResolution": 1,
  "PixelBandwidth": 2380,
  "ProcedureStepDescription": "BNU_P2018_64CH^Zhen.ZongLei",
  "ProtocolName": "bold_100x100_s3_2x2x2_static_156",
  "PulseSequenceDetails": "%SiemensSeq%\\ep2d_bold",
  "ReceiveCoilActiveElements": "HC1-7;NC1",
  "ReceiveCoilName": "HeadNeck_64",
  "ReconMatrixPE": 100,
  "RefLinesPE": 32,
  "RepetitionTime": 2,
  "SAR": 0.0676145,
  "ScanOptions": "FS",
  "ScanningSequence": "EP",
  "SequenceName": "*epfid2d1_100",
  "SequenceVariant": "SK",
  "SeriesDescription": "bold_100x100_s3_2x2x2_static_156",
  "SeriesNumber": 7,
  "ShimSetting": [-5440, -11517, -1244, 505, 102, -237, -185, 8],
  "SliceThickness": 2,
  "SliceTiming": [1.485, 0, 0.99, 0.0825, 1.0725, 0.165, 1.155, 0.2475, 1.2375, 0.33, 1.32, 0.4125, 1.4025, 0.5775, 1.5675, 0.66, 1.65, 0.7425, 1.7325, 0.825, 1.815, 0.9075, 1.8975, 0.495, 1.485, 0, 0.99, 0.0825, 1.0725, 0.165, 1.155, 0.2475, 1.2375, 0.33, 1.32, 0.4125, 1.4025, 0.5775, 1.5675, 0.66, 1.65, 0.7425, 1.7325, 0.825, 1.815, 0.9075, 1.8975, 0.495, 1.485, 0, 0.99, 0.0825, 1.0725, 0.165, 1.155, 0.2475, 1.2375, 0.33, 1.32, 0.4125, 1.4025, 0.5775, 1.5675, 0.66, 1.65, 0.7425, 1.7325, 0.825, 1.815, 0.9075, 1.8975, 0.495],
  "SoftwareVersions": "syngo MR E11",
  "SpacingBetweenSlices": 2,
  "StationName": "AWP166078",
  "TaskName": "action",
  "TotalReadoutTime": 0.0534586,
  "TxRefAmp": 205.285,
  "dcmmeta_affine": [
    [-2.0, 0.0, 0.0, 100.0],
    [0.0, 1.9941054582595825, -0.1534380465745926, -90.78712463378906],
    [0.0, 0.1534380465745926, 1.9941054582595825, -63.29710388183594],
    [0.0, 0.0, 0.0, 1.0]
],
  "dcmmeta_reorient_transform": [
    [0.0, -1.0, 0.0, 99.0],
    [1.0, 0.0, 0.0, 0.0],
    [0.0, 0.0, 1.0, 0.0],
    [0.0, 0.0, 0.0, 1.0]
],
  "dcmmeta_shape": [100, 100, 72, 156],
  "dcmmeta_slice_dim": 2,
  "dcmmeta_version": 0.6,
  "global": {
    "const": {
      "AcquisitionMatrix": [100, 0, 0, 100],
      "AngioFlag": "N",
      "BitsAllocated": 16,
      "BitsStored": 12,
      "BodyPartExamined": "BRAIN",
      "Columns": 900,
      "EchoNumbers": 1,
      "EchoTime": 34.0,
      "EchoTrainLength": 100,
      "FlipAngle": 90.0,
      "HighBit": 11,
      "ImageOrientationPatient": [1.0, 0.0, 0.0, 0.0, 0.99705275241223, -0.0767190257186],
      "ImagePositionPatient": [-900.0, -904.27152559477, 13.268482399648],
      "ImageType": [
        "ORIGINAL",
        "PRIMARY",
        "M",
        "ND",
        "MOSAIC"
],
      "ImagedNucleus": "1H",
      "ImagingFrequency": 123.257712,
      "InPlanePhaseEncodingDirection": "COL",
      "MRAcquisitionType": "2D",
      "MagneticFieldStrength": 3.0,
      "Manufacturer": "SIEMENS",
      "ManufacturerModelName": "Prisma",
      "Modality": "MR",
      "NumberOfAverages": 1.0,
      "NumberOfPhaseEncodingSteps": 100,
      "PercentPhaseFieldOfView": 100.0,
      "PercentSampling": 100.0,
      "PerformedProcedureStepStartTime": "153748.728000",
      "PhotometricInterpretation": "MONOCHROME2",
      "PixelBandwidth": 2380.0,
      "PixelRepresentation": 0,
      "PixelSpacing": [2.0, 2.0],
      "ProtocolName": "bold_100x100_s3_2x2x2_static_156",
      "RepetitionTime": 2000.0,
      "Rows": 900,
      "SAR": 0.06761446202849,
      "SamplesPerPixel": 1,
      "ScanOptions": "FS",
      "ScanningSequence": "EP",
      "SequenceName": "*epfid2d1_100",
      "SequenceVariant": "SK",
      "SeriesDescription": "bold_100x100_s3_2x2x2_static_156",
      "SeriesNumber": 7,
      "SeriesTime": "161440.574000",
      "SliceLocation": -56.145453531779,
      "SliceThickness": 2.0,
      "SmallestImagePixelValue": 0,
      "SoftwareVersions": "syngo MR E11",
      "SpacingBetweenSlices": 1.999999982254,
      "SpecificCharacterSet": "ISO_IR 100",
      "StudyID": "1",
      "StudyTime": "153748.609000",
      "TransmitCoilName": "Body",
      "VariableFlipAngleFlag": "N",
      "WindowCenterWidthExplanation": "Algo1",
      "dBdt": 0.0},
    "slices": {}
  },
  "time": {
    "samples": {
      "AcquisitionNumber": [1, 2, 3, 4, 5, 6, 7, 8, 9, 10, 11, 12, 13, 14, 15, 16, 17, 18, 19, 20, 21, 22, 23, 24, 25, 26, 27, 28, 29, 30, 31, 32, 33, 34, 35, 36, 37, 38, 39, 40, 41, 42, 43, 44, 45, 46, 47, 48, 49, 50, 51, 52, 53, 54, 55, 56, 57, 58, 59, 60, 61, 62, 63, 64, 65, 66, 67, 68, 69, 70, 71, 72, 73, 74, 75, 76, 77, 78, 79, 80, 81, 82, 83, 84, 85, 86, 87, 88, 89, 90, 91, 92, 93, 94, 95, 96, 97, 98, 99, 100, 101, 102, 103, 104, 105, 106, 107, 108, 109, 110, 111, 112, 113, 114, 115, 116, 117, 118, 119, 120, 121, 122, 123, 124, 125, 126, 127, 128, 129, 130, 131, 132, 133, 134, 135, 136, 137, 138, 139, 140, 141, 142, 143, 144, 145, 146, 147, 148, 149, 150, 151, 152, 153, 154, 155, 156],
      "AcquisitionTime": ["161437.540000", "161439.540000", "161441.540000", "161443.540000", "161445.540000", "161447.540000", "161449.540000", "161451.540000", "161453.540000", "161455.540000", "161457.540000", "161459.540000", "161501.540000", "161503.540000", "161505.540000", "161507.540000", "161509.540000", "161511.540000", "161513.540000", "161515.540000", "161517.540000", "161519.540000", "161521.540000", "161523.540000", "161525.540000", "161527.540000", "161529.540000", "161531.540000", "161533.540000", "161535.540000", "161537.540000", "161539.540000", "161541.540000", "161543.540000", "161545.540000", "161547.540000", "161549.540000", "161551.540000", "161553.540000", "161555.540000", "161557.540000", "161559.540000", "161601.540000", "161603.540000", "161605.540000", "161607.540000", "161609.540000", "161611.540000", "161613.540000", "161615.540000", "161617.540000", "161619.540000", "161621.540000", "161623.540000", "161625.540000", "161627.540000", "161629.540000", "161631.540000", "161633.540000", "161635.540000", "161637.540000", "161639.540000", "161641.540000", "161643.540000", "161645.540000", "161647.540000", "161649.540000", "161651.540000", "161653.540000", "161655.540000", "161657.540000", "161659.540000", "161701.540000", "161703.540000", "161705.540000", "161707.540000", "161709.540000", "161711.540000", "161713.540000", "161715.540000", "161717.540000", "161719.540000", "161721.540000", "161723.540000", "161725.540000", "161727.540000", "161729.540000", "161731.540000", "161733.540000", "161735.540000", "161737.540000", "161739.540000", "161741.540000", "161743.540000", "161745.540000", "161747.540000", "161749.540000", "161751.540000", "161753.540000", "161755.540000", "161757.540000", "161759.540000", "161801.540000", "161803.540000", "161805.540000", "161807.540000", "161809.540000", "161811.540000", "161813.540000", "161815.540000", "161817.540000", "161819.540000", "161821.540000", "161823.540000", "161825.540000", "161827.540000", "161829.540000", "161831.540000", "161833.540000", "161835.540000", "161837.540000", "161839.540000", "161841.540000", "161843.540000", "161845.540000", "161847.540000", "161849.540000", "161851.540000", "161853.540000", "161855.540000", "161857.540000", "161859.540000", "161901.540000", "161903.540000", "161905.540000", "161907.540000", "161909.540000", "161911.540000", "161913.540000", "161915.540000", "161917.540000", "161919.540000", "161921.540000", "161923.540000", "161925.540000", "161927.540000", "161929.540000", "161931.540000", "161933.540000", "161935.540000", "161937.540000", "161939.540000", "161941.540000", "161943.540000", "161945.540000", "161947.540000"],
      "ContentTime": ["161440.578000", "161442.073000", "161444.073000", "161446.072000", "161448.072000", "161450.073000", "161452.072000", "161454.073000", "161456.073000", "161458.074000", "161500.073000", "161502.073000", "161504.073000", "161506.073000", "161508.073000", "161509.573000", "161512.073000", "161514.073000", "161516.074000", "161518.073000", "161519.574000", "161521.572000", "161524.073000", "161526.073000", "161528.072000", "161530.073000", "161532.073000", "161534.074000", "161536.074000", "161538.073000", "161540.072000", "161542.073000", "161544.072000", "161545.572000", "161547.574000", "161550.073000", "161552.074000", "161554.074000", "161556.072000", "161558.072000", "161600.073000", "161602.072000", "161604.072000", "161606.073000", "161607.574000", "161610.074000", "161612.073000", "161614.072000", "161616.073000", "161618.072000", "161620.073000", "161621.573000", "161624.074000", "161626.074000", "161628.073000", "161630.074000", "161632.073000", "161634.072000", "161635.572000", "161638.073000", "161640.074000", "161642.073000", "161644.073000", "161646.074000", "161648.073000", "161649.572000", "161651.573000", "161654.072000", "161655.573000", "161658.074000", "161700.074000", "161702.074000", "161703.574000", "161706.073000", "161708.073000", "161710.072000", "161711.573000", "161714.073000", "161715.573000", "161718.074000", "161720.074000", "161722.074000", "161724.072000", "161726.072000", "161727.572000", "161729.572000", "161732.073000", "161734.074000", "161736.074000", "161738.074000", "161740.073000", "161741.572000", "161743.572000", "161746.072000", "161748.073000", "161749.573000", "161752.073000", "161753.574000", "161756.073000", "161757.574000", "161800.073000", "161802.072000", "161804.072000", "161806.072000", "161808.073000", "161810.073000", "161812.073000", "161814.073000", "161816.073000", "161818.072000", "161820.072000", "161822.072000", "161824.072000", "161826.073000", "161828.074000", "161830.074000", "161832.073000", "161833.572000", "161836.073000", "161838.072000", "161840.073000", "161842.074000", "161844.074000", "161846.074000", "161848.073000", "161850.074000", "161852.072000", "161854.072000", "161856.073000", "161857.573000", "161859.573000", "161902.073000", "161904.073000", "161906.074000", "161908.073000", "161910.072000", "161912.073000", "161914.072000", "161916.073000", "161918.073000", "161920.074000", "161922.073000", "161924.073000", "161926.073000", "161928.072000", "161930.073000", "161932.073000", "161934.072000", "161935.574000", "161938.073000", "161940.073000", "161942.073000", "161944.073000", "161946.073000", "161948.073000", "161949.612000"],
      "InstanceCreationTime": ["161440.578000", "161442.073000", "161444.073000", "161446.072000", "161448.072000", "161450.073000", "161452.072000", "161454.073000", "161456.073000", "161458.074000", "161500.073000", "161502.073000", "161504.073000", "161506.073000", "161508.073000", "161509.573000", "161512.073000", "161514.073000", "161516.074000", "161518.073000", "161519.574000", "161521.572000", "161524.073000", "161526.073000", "161528.072000", "161530.073000", "161532.073000", "161534.074000", "161536.074000", "161538.073000", "161540.072000", "161542.073000", "161544.072000", "161545.572000", "161547.574000", "161550.073000", "161552.074000", "161554.074000", "161556.072000", "161558.072000", "161600.073000", "161602.072000", "161604.072000", "161606.073000", "161607.574000", "161610.074000", "161612.073000", "161614.072000", "161616.073000", "161618.072000", "161620.073000", "161621.573000", "161624.074000", "161626.074000", "161628.073000", "161630.074000", "161632.073000", "161634.072000", "161635.572000", "161638.073000", "161640.074000", "161642.073000", "161644.073000", "161646.074000", "161648.073000", "161649.572000", "161651.573000", "161654.072000", "161655.573000", "161658.074000", "161700.074000", "161702.074000", "161703.574000", "161706.073000", "161708.073000", "161710.072000", "161711.573000", "161714.073000", "161715.573000", "161718.074000", "161720.074000", "161722.074000", "161724.072000", "161726.072000", "161727.572000", "161729.572000", "161732.073000", "161734.074000", "161736.074000", "161738.074000", "161740.073000", "161741.572000", "161743.572000", "161746.072000", "161748.073000", "161749.573000", "161752.073000", "161753.574000", "161756.073000", "161757.574000", "161800.073000", "161802.072000", "161804.072000", "161806.072000", "161808.073000", "161810.073000", "161812.073000", "161814.073000", "161816.073000", "161818.072000", "161820.072000", "161822.072000", "161824.072000", "161826.073000", "161828.074000", "161830.074000", "161832.073000", "161833.572000", "161836.073000", "161838.072000", "161840.073000", "161842.074000", "161844.074000", "161846.074000", "161848.073000", "161850.074000", "161852.072000", "161854.072000", "161856.073000", "161857.573000", "161859.573000", "161902.073000", "161904.073000", "161906.074000", "161908.073000", "161910.072000", "161912.073000", "161914.072000", "161916.073000", "161918.073000", "161920.074000", "161922.073000", "161924.073000", "161926.073000", "161928.072000", "161930.073000", "161932.073000", "161934.072000", "161935.574000", "161938.073000", "161940.073000", "161942.073000", "161944.073000", "161946.073000", "161948.073000", "161949.612000"],
      "InstanceNumber": [1, 2, 3, 4, 5, 6, 7, 8, 9, 10, 11, 12, 13, 14, 15, 16, 17, 18, 19, 20, 21, 22, 23, 24, 25, 26, 27, 28, 29, 30, 31, 32, 33, 34, 35, 36, 37, 38, 39, 40, 41, 42, 43, 44, 45, 46, 47, 48, 49, 50, 51, 52, 53, 54, 55, 56, 57, 58, 59, 60, 61, 62, 63, 64, 65, 66, 67, 68, 69, 70, 71, 72, 73, 74, 75, 76, 77, 78, 79, 80, 81, 82, 83, 84, 85, 86, 87, 88, 89, 90, 91, 92, 93, 94, 95, 96, 97, 98, 99, 100, 101, 102, 103, 104, 105, 106, 107, 108, 109, 110, 111, 112, 113, 114, 115, 116, 117, 118, 119, 120, 121, 122, 123, 124, 125, 126, 127, 128, 129, 130, 131, 132, 133, 134, 135, 136, 137, 138, 139, 140, 141, 142, 143, 144, 145, 146, 147, 148, 149, 150, 151, 152, 153, 154, 155, 156],
      "LargestImagePixelValue": [3404, 3338, 3282, 3301, 3296, 3337, 3326, 3286, 3308, 3296, 3307, 3279, 3276, 3295, 3283, 3287, 3295, 3319, 3318, 3288, 3268, 3199, 3268, 3289, 3286, 3265, 3285, 3280, 3220, 3230, 3277, 3121, 3131, 3134, 3078, 3090, 3076, 3060, 3117, 3051, 3087, 3091, 3054, 3058, 3030, 3062, 3071, 3064, 3057, 3053, 3045, 3098, 3067, 3050, 3079, 3040, 3068, 3034, 3053, 3071, 3078, 3071, 3066, 3085, 3069, 3089, 3060, 3061, 3078, 3059, 3065, 3073, 3037, 3057, 3065, 3070, 3036, 3045, 3047, 3038, 3062, 3073, 3069, 3032, 3046, 3058, 2997, 3120, 3221, 3164, 3169, 3159, 3149, 3137, 3125, 3178, 3133, 3151, 3106, 3130, 3136, 3138, 3118, 3094, 3100, 3115, 3122, 3130, 3137, 3106, 3112, 3132, 3095, 3083, 3101, 3103, 3145, 3086, 3092, 3134, 3130, 3082, 3066, 3047, 3076, 3085, 3061, 3077, 3069, 3077, 3078, 3063, 3060, 3065, 3081, 3086, 3076, 3084, 3074, 3112, 3080, 3090, 3085, 3080, 3110, 3073, 3073, 3112, 3074, 3102, 3181, 3200, 3255, 3235, 3227, 3217],
      "WindowCenter": [713.0, 712.0, 712.0, 712.0, 712.0, 713.0, 712.0, 711.0, 712.0, 714.0, 713.0, 713.0, 712.0, 712.0, 711.0, 712.0, 712.0, 713.0, 713.0, 713.0, 712.0, 711.0, 711.0, 711.0, 711.0, 711.0, 713.0, 713.0, 711.0, 711.0, 710.0, 710.0, 710.0, 709.0, 709.0, 709.0, 709.0, 709.0, 710.0, 709.0, 708.0, 708.0, 708.0, 708.0, 708.0, 708.0, 708.0, 708.0, 708.0, 708.0, 708.0, 708.0, 707.0, 706.0, 707.0, 708.0, 707.0, 707.0, 707.0, 708.0, 708.0, 709.0, 708.0, 708.0, 707.0, 708.0, 708.0, 708.0, 708.0, 707.0, 708.0, 709.0, 708.0, 709.0, 708.0, 709.0, 708.0, 707.0, 707.0, 707.0, 708.0, 708.0, 707.0, 708.0, 708.0, 709.0, 706.0, 709.0, 710.0, 709.0, 709.0, 709.0, 708.0, 708.0, 709.0, 710.0, 710.0, 710.0, 710.0, 709.0, 709.0, 710.0, 709.0, 710.0, 709.0, 709.0, 709.0, 709.0, 709.0, 709.0, 709.0, 711.0, 712.0, 711.0, 708.0, 708.0, 709.0, 709.0, 708.0, 708.0, 709.0, 708.0, 708.0, 708.0, 709.0, 709.0, 708.0, 707.0, 707.0, 709.0, 709.0, 708.0, 709.0, 710.0, 711.0, 710.0, 709.0, 708.0, 708.0, 709.0, 708.0, 708.0, 709.0, 709.0, 708.0, 708.0, 708.0, 709.0, 708.0, 711.0, 712.0, 712.0, 711.0, 711.0, 710.0, 711.0],
      "WindowWidth": [1547.0, 1545.0, 1544.0, 1543.0, 1544.0, 1545.0, 1545.0, 1543.0, 1545.0, 1549.0, 1548.0, 1546.0, 1544.0, 1544.0, 1542.0, 1542.0, 1543.0, 1545.0, 1545.0, 1546.0, 1543.0, 1542.0, 1542.0, 1539.0, 1540.0, 1542.0, 1545.0, 1546.0, 1542.0, 1542.0, 1538.0, 1538.0, 1538.0, 1536.0, 1535.0, 1536.0, 1535.0, 1537.0, 1539.0, 1535.0, 1535.0, 1533.0, 1534.0, 1534.0, 1532.0, 1533.0, 1533.0, 1532.0, 1532.0, 1533.0, 1533.0, 1533.0, 1530.0, 1529.0, 1531.0, 1532.0, 1531.0, 1531.0, 1530.0, 1532.0, 1534.0, 1536.0, 1534.0, 1532.0, 1530.0, 1533.0, 1533.0, 1534.0, 1534.0, 1531.0, 1533.0, 1535.0, 1533.0, 1534.0, 1533.0, 1534.0, 1533.0, 1530.0, 1531.0, 1531.0, 1533.0, 1533.0, 1530.0, 1532.0, 1533.0, 1535.0, 1528.0, 1534.0, 1537.0, 1536.0, 1535.0, 1534.0, 1533.0, 1533.0, 1534.0, 1537.0, 1538.0, 1538.0, 1537.0, 1536.0, 1536.0, 1537.0, 1535.0, 1536.0, 1536.0, 1535.0, 1536.0, 1536.0, 1537.0, 1536.0, 1536.0, 1540.0, 1544.0, 1541.0, 1534.0, 1533.0, 1536.0, 1536.0, 1534.0, 1534.0, 1534.0, 1533.0, 1532.0, 1532.0, 1535.0, 1535.0, 1532.0, 1531.0, 1531.0, 1534.0, 1535.0, 1534.0, 1535.0, 1537.0, 1540.0, 1539.0, 1535.0, 1532.0, 1533.0, 1535.0, 1532.0, 1533.0, 1535.0, 1534.0, 1533.0, 1532.0, 1532.0, 1535.0, 1534.0, 1542.0, 1542.0, 1543.0, 1541.0, 1539.0, 1539.0, 1539.0]
    },
    "slices": {}
  }
}