{
  "AcquisitionMatrixPE": 100,
  "AcquisitionNumber": 1,
  "AcquisitionTime": "15:47:7.912500",
  "BandwidthPerPixelPhaseEncode": 18.519,
  "BaseResolution": 100,
  "BodyPartExamined": "BRAIN",
  "CoilCombinationMethod": "Sum of Squares",
  "ConsistencyInfo": "N4_VE11C_LATEST_20160120",
  "ConversionSoftware": "dcm2niix",
  "ConversionSoftwareVersion": "v1.0.20211006",
  "DerivedVendorReportedEchoSpacing": 0.000539986,
  "DeviceSerialNumber": "166078",
  "DwellTime": 2.1e-06,
  "EchoTime": 0.034,
  "EchoTrainLength": 100,
  "EffectiveEchoSpacing": 0.000539986,
  "FlipAngle": 90,
  "ImageOrientationPatientDICOM": [1, 0, 0, 0, 0.997053, -0.076719],
  "ImageOrientationText": "Tra>Cor(-4.4)",
  "ImageType": [
    "ORIGINAL",
    "PRIMARY",
    "M",
    "ND",
    "MOSAIC"
],
  "ImagingFrequency": 123.258,
  "InPlanePhaseEncodingDirectionDICOM": "COL",
  "InstitutionAddress": "Street StreetNo,Bei Jing,District,CN,ZIP",
  "InstitutionName": "BeiJing Normal University",
  "InstitutionalDepartmentName": "Department",
  "MRAcquisitionType": "2D",
  "MagneticFieldStrength": 3,
  "Manufacturer": "Siemens",
  "ManufacturersModelName": "Prisma",
  "Modality": "MR",
  "MultibandAccelerationFactor": 3,
  "PartialFourier": 1,
  "PatientPosition": "HFS",
  "PercentPhaseFOV": 100,
  "PercentSampling": 100,
  "PhaseEncodingDirection": "j-",
  "PhaseEncodingSteps": 100,
  "PhaseResolution": 1,
  "PixelBandwidth": 2380,
  "ProcedureStepDescription": "BNU_P2018_64CH^Zhen.ZongLei",
  "ProtocolName": "bold_100x100_s3_2x2x2_static_156",
  "PulseSequenceDetails": "%SiemensSeq%\\ep2d_bold",
  "ReceiveCoilActiveElements": "HC1-7;NC1",
  "ReceiveCoilName": "HeadNeck_64",
  "ReconMatrixPE": 100,
  "RefLinesPE": 32,
  "RepetitionTime": 2,
  "SAR": 0.0676145,
  "ScanOptions": "FS",
  "ScanningSequence": "EP",
  "SequenceName": "*epfid2d1_100",
  "SequenceVariant": "SK",
  "SeriesDescription": "bold_100x100_s3_2x2x2_static_156",
  "SeriesNumber": 3,
  "ShimSetting": [-5440, -11517, -1244, 505, 102, -237, -185, 8],
  "SliceThickness": 2,
  "SliceTiming": [1.485, 0, 0.99, 0.0825, 1.0725, 0.165, 1.155, 0.2475, 1.2375, 0.33, 1.32, 0.4125, 1.4025, 0.5775, 1.5675, 0.66, 1.65, 0.7425, 1.7325, 0.825, 1.815, 0.9075, 1.8975, 0.495, 1.485, 0, 0.99, 0.0825, 1.0725, 0.165, 1.155, 0.2475, 1.2375, 0.33, 1.32, 0.4125, 1.4025, 0.5775, 1.5675, 0.66, 1.65, 0.7425, 1.7325, 0.825, 1.815, 0.9075, 1.8975, 0.495, 1.485, 0, 0.99, 0.0825, 1.0725, 0.165, 1.155, 0.2475, 1.2375, 0.33, 1.32, 0.4125, 1.4025, 0.5775, 1.5675, 0.66, 1.65, 0.7425, 1.7325, 0.825, 1.815, 0.9075, 1.8975, 0.495],
  "SoftwareVersions": "syngo MR E11",
  "SpacingBetweenSlices": 2,
  "StationName": "AWP166078",
  "TaskName": "action",
  "TotalReadoutTime": 0.0534586,
  "TxRefAmp": 205.285,
  "dcmmeta_affine": [
    [-2.0, 0.0, 0.0, 100.0],
    [0.0, 1.9941054582595825, -0.1534380465745926, -90.78712463378906],
    [0.0, 0.1534380465745926, 1.9941054582595825, -63.29710388183594],
    [0.0, 0.0, 0.0, 1.0]
],
  "dcmmeta_reorient_transform": [
    [0.0, -1.0, 0.0, 99.0],
    [1.0, 0.0, 0.0, 0.0],
    [0.0, 0.0, 1.0, 0.0],
    [0.0, 0.0, 0.0, 1.0]
],
  "dcmmeta_shape": [100, 100, 72, 156],
  "dcmmeta_slice_dim": 2,
  "dcmmeta_version": 0.6,
  "global": {
    "const": {
      "AcquisitionMatrix": [100, 0, 0, 100],
      "AngioFlag": "N",
      "BitsAllocated": 16,
      "BitsStored": 12,
      "BodyPartExamined": "BRAIN",
      "Columns": 900,
      "EchoNumbers": 1,
      "EchoTime": 34.0,
      "EchoTrainLength": 100,
      "FlipAngle": 90.0,
      "HighBit": 11,
      "ImageOrientationPatient": [1.0, 0.0, 0.0, 0.0, 0.99705275241223, -0.0767190257186],
      "ImagePositionPatient": [-900.0, -904.27152559477, 13.268482399648],
      "ImageType": [
        "ORIGINAL",
        "PRIMARY",
        "M",
        "ND",
        "MOSAIC"
],
      "ImagedNucleus": "1H",
      "ImagingFrequency": 123.257708,
      "InPlanePhaseEncodingDirection": "COL",
      "MRAcquisitionType": "2D",
      "MagneticFieldStrength": 3.0,
      "Manufacturer": "SIEMENS",
      "ManufacturerModelName": "Prisma",
      "Modality": "MR",
      "NumberOfAverages": 1.0,
      "NumberOfPhaseEncodingSteps": 100,
      "PercentPhaseFieldOfView": 100.0,
      "PercentSampling": 100.0,
      "PerformedProcedureStepStartTime": "153748.728000",
      "PhotometricInterpretation": "MONOCHROME2",
      "PixelBandwidth": 2380.0,
      "PixelRepresentation": 0,
      "PixelSpacing": [2.0, 2.0],
      "ProtocolName": "bold_100x100_s3_2x2x2_static_156",
      "RepetitionTime": 2000.0,
      "Rows": 900,
      "SAR": 0.06761446202849,
      "SamplesPerPixel": 1,
      "ScanOptions": "FS",
      "ScanningSequence": "EP",
      "SequenceName": "*epfid2d1_100",
      "SequenceVariant": "SK",
      "SeriesDescription": "bold_100x100_s3_2x2x2_static_156",
      "SeriesNumber": 3,
      "SeriesTime": "154710.233000",
      "SliceLocation": -56.145453531779,
      "SliceThickness": 2.0,
      "SmallestImagePixelValue": 0,
      "SoftwareVersions": "syngo MR E11",
      "SpacingBetweenSlices": 1.999999982254,
      "SpecificCharacterSet": "ISO_IR 100",
      "StudyID": "1",
      "StudyTime": "153748.609000",
      "TransmitCoilName": "Body",
      "VariableFlipAngleFlag": "N",
      "WindowCenterWidthExplanation": "Algo1",
      "dBdt": 0.0},
    "slices": {}
  },
  "time": {
    "samples": {
      "AcquisitionNumber": [1, 2, 3, 4, 5, 6, 7, 8, 9, 10, 11, 12, 13, 14, 15, 16, 17, 18, 19, 20, 21, 22, 23, 24, 25, 26, 27, 28, 29, 30, 31, 32, 33, 34, 35, 36, 37, 38, 39, 40, 41, 42, 43, 44, 45, 46, 47, 48, 49, 50, 51, 52, 53, 54, 55, 56, 57, 58, 59, 60, 61, 62, 63, 64, 65, 66, 67, 68, 69, 70, 71, 72, 73, 74, 75, 76, 77, 78, 79, 80, 81, 82, 83, 84, 85, 86, 87, 88, 89, 90, 91, 92, 93, 94, 95, 96, 97, 98, 99, 100, 101, 102, 103, 104, 105, 106, 107, 108, 109, 110, 111, 112, 113, 114, 115, 116, 117, 118, 119, 120, 121, 122, 123, 124, 125, 126, 127, 128, 129, 130, 131, 132, 133, 134, 135, 136, 137, 138, 139, 140, 141, 142, 143, 144, 145, 146, 147, 148, 149, 150, 151, 152, 153, 154, 155, 156],
      "AcquisitionTime": ["154707.912500", "154709.912500", "154711.912500", "154713.912500", "154715.912500", "154717.912500", "154719.912500", "154721.912500", "154723.912500", "154725.912500", "154727.912500", "154729.912500", "154731.912500", "154733.912500", "154735.912500", "154737.912500", "154739.912500", "154741.912500", "154743.912500", "154745.912500", "154747.912500", "154749.912500", "154751.912500", "154753.912500", "154755.912500", "154757.912500", "154759.912500", "154801.912500", "154803.912500", "154805.912500", "154807.912500", "154809.912500", "154811.912500", "154813.912500", "154815.912500", "154817.912500", "154819.912500", "154821.912500", "154823.912500", "154825.912500", "154827.912500", "154829.912500", "154831.912500", "154833.912500", "154835.912500", "154837.912500", "154839.912500", "154841.912500", "154843.912500", "154845.912500", "154847.912500", "154849.912500", "154851.912500", "154853.912500", "154855.912500", "154857.912500", "154859.912500", "154901.912500", "154903.912500", "154905.912500", "154907.912500", "154909.912500", "154911.912500", "154913.912500", "154915.912500", "154917.912500", "154919.912500", "154921.912500", "154923.912500", "154925.912500", "154927.912500", "154929.912500", "154931.912500", "154933.912500", "154935.912500", "154937.912500", "154939.912500", "154941.912500", "154943.912500", "154945.912500", "154947.912500", "154949.912500", "154951.912500", "154953.912500", "154955.912500", "154957.912500", "154959.912500", "155001.912500", "155003.912500", "155005.912500", "155007.912500", "155009.912500", "155011.912500", "155013.912500", "155015.912500", "155017.912500", "155019.912500", "155021.912500", "155023.912500", "155025.912500", "155027.912500", "155029.912500", "155031.912500", "155033.912500", "155035.912500", "155037.912500", "155039.912500", "155041.912500", "155043.912500", "155045.912500", "155047.912500", "155049.912500", "155051.912500", "155053.912500", "155055.912500", "155057.912500", "155059.912500", "155101.912500", "155103.912500", "155105.912500", "155107.912500", "155109.912500", "155111.912500", "155113.912500", "155115.912500", "155117.912500", "155119.912500", "155121.912500", "155123.912500", "155125.912500", "155127.912500", "155129.912500", "155131.912500", "155133.912500", "155135.912500", "155137.912500", "155139.912500", "155141.912500", "155143.912500", "155145.912500", "155147.912500", "155149.912500", "155151.912500", "155153.912500", "155155.912500", "155157.912500", "155159.912500", "155201.912500", "155203.912500", "155205.912500", "155207.912500", "155209.912500", "155211.912500", "155213.912500", "155215.912500", "155217.912500"],
      "ContentTime": ["154710.236000", "154711.732000", "154713.733000", "154715.732000", "154717.731000", "154719.731000", "154721.732000", "154723.732000", "154725.731000", "154727.732000", "154729.732000", "154731.733000", "154733.733000", "154735.732000", "154737.732000", "154739.732000", "154741.732000", "154743.731000", "154745.731000", "154747.732000", "154749.732000", "154751.732000", "154753.732000", "154755.731000", "154757.732000", "154759.732000", "154801.731000", "154803.732000", "154805.732000", "154807.734000", "154809.732000", "154811.733000", "154813.731000", "154815.731000", "154817.732000", "154819.732000", "154821.731000", "154823.733000", "154825.733000", "154827.733000", "154829.731000", "154831.733000", "154833.731000", "154835.731000", "154837.731000", "154839.732000", "154841.733000", "154843.733000", "154845.732000", "154847.731000", "154849.731000", "154851.732000", "154853.732000", "154855.731000", "154857.732000", "154859.733000", "154901.732000", "154903.732000", "154905.731000", "154907.731000", "154909.732000", "154911.731000", "154913.732000", "154915.732000", "154917.733000", "154919.731000", "154921.731000", "154923.731000", "154925.732000", "154927.732000", "154929.732000", "154931.731000", "154933.733000", "154935.733000", "154937.732000", "154939.732000", "154941.732000", "154943.732000", "154945.731000", "154947.732000", "154949.732000", "154951.733000", "154953.732000", "154955.732000", "154957.731000", "154959.731000", "155001.731000", "155003.732000", "155005.731000", "155007.732000", "155009.732000", "155011.732000", "155013.731000", "155015.732000", "155017.732000", "155019.732000", "155021.732000", "155023.732000", "155025.732000", "155027.733000", "155029.732000", "155031.731000", "155033.732000", "155035.732000", "155037.732000", "155039.732000", "155041.731000", "155043.733000", "155045.733000", "155047.732000", "155049.732000", "155051.732000", "155053.732000", "155055.732000", "155057.732000", "155059.732000", "155101.733000", "155103.733000", "155105.732000", "155107.732000", "155109.732000", "155111.732000", "155113.732000", "155115.732000", "155117.732000", "155119.732000", "155121.732000", "155123.731000", "155125.731000", "155127.732000", "155129.732000", "155131.732000", "155133.732000", "155135.731000", "155137.733000", "155139.731000", "155141.732000", "155143.732000", "155145.732000", "155147.731000", "155149.732000", "155151.732000", "155153.733000", "155155.733000", "155157.732000", "155159.732000", "155201.731000", "155203.731000", "155205.732000", "155207.732000", "155209.732000", "155211.732000", "155213.733000", "155215.732000", "155217.732000", "155219.427000"],
      "InstanceCreationTime": ["154710.236000", "154711.732000", "154713.733000", "154715.732000", "154717.731000", "154719.731000", "154721.732000", "154723.732000", "154725.731000", "154727.732000", "154729.732000", "154731.733000", "154733.733000", "154735.732000", "154737.732000", "154739.732000", "154741.732000", "154743.731000", "154745.731000", "154747.732000", "154749.732000", "154751.732000", "154753.732000", "154755.731000", "154757.732000", "154759.732000", "154801.731000", "154803.732000", "154805.732000", "154807.734000", "154809.732000", "154811.733000", "154813.731000", "154815.731000", "154817.732000", "154819.732000", "154821.731000", "154823.733000", "154825.733000", "154827.733000", "154829.731000", "154831.733000", "154833.731000", "154835.731000", "154837.731000", "154839.732000", "154841.733000", "154843.733000", "154845.732000", "154847.731000", "154849.731000", "154851.732000", "154853.732000", "154855.731000", "154857.732000", "154859.733000", "154901.732000", "154903.732000", "154905.731000", "154907.731000", "154909.732000", "154911.731000", "154913.732000", "154915.732000", "154917.733000", "154919.731000", "154921.731000", "154923.731000", "154925.732000", "154927.732000", "154929.732000", "154931.731000", "154933.733000", "154935.733000", "154937.732000", "154939.732000", "154941.732000", "154943.732000", "154945.731000", "154947.732000", "154949.732000", "154951.733000", "154953.732000", "154955.732000", "154957.731000", "154959.731000", "155001.731000", "155003.732000", "155005.731000", "155007.732000", "155009.732000", "155011.732000", "155013.731000", "155015.732000", "155017.732000", "155019.732000", "155021.732000", "155023.732000", "155025.732000", "155027.733000", "155029.732000", "155031.731000", "155033.732000", "155035.732000", "155037.732000", "155039.732000", "155041.731000", "155043.733000", "155045.733000", "155047.732000", "155049.732000", "155051.732000", "155053.732000", "155055.732000", "155057.732000", "155059.732000", "155101.733000", "155103.733000", "155105.732000", "155107.732000", "155109.732000", "155111.732000", "155113.732000", "155115.732000", "155117.732000", "155119.732000", "155121.732000", "155123.731000", "155125.731000", "155127.732000", "155129.732000", "155131.732000", "155133.732000", "155135.731000", "155137.733000", "155139.731000", "155141.732000", "155143.732000", "155145.732000", "155147.731000", "155149.732000", "155151.732000", "155153.733000", "155155.733000", "155157.732000", "155159.732000", "155201.731000", "155203.731000", "155205.732000", "155207.732000", "155209.732000", "155211.732000", "155213.733000", "155215.732000", "155217.732000", "155219.427000"],
      "InstanceNumber": [1, 2, 3, 4, 5, 6, 7, 8, 9, 10, 11, 12, 13, 14, 15, 16, 17, 18, 19, 20, 21, 22, 23, 24, 25, 26, 27, 28, 29, 30, 31, 32, 33, 34, 35, 36, 37, 38, 39, 40, 41, 42, 43, 44, 45, 46, 47, 48, 49, 50, 51, 52, 53, 54, 55, 56, 57, 58, 59, 60, 61, 62, 63, 64, 65, 66, 67, 68, 69, 70, 71, 72, 73, 74, 75, 76, 77, 78, 79, 80, 81, 82, 83, 84, 85, 86, 87, 88, 89, 90, 91, 92, 93, 94, 95, 96, 97, 98, 99, 100, 101, 102, 103, 104, 105, 106, 107, 108, 109, 110, 111, 112, 113, 114, 115, 116, 117, 118, 119, 120, 121, 122, 123, 124, 125, 126, 127, 128, 129, 130, 131, 132, 133, 134, 135, 136, 137, 138, 139, 140, 141, 142, 143, 144, 145, 146, 147, 148, 149, 150, 151, 152, 153, 154, 155, 156],
      "LargestImagePixelValue": [3288, 3221, 3219, 3200, 3212, 3228, 3218, 3212, 3213, 3218, 3225, 3217, 3213, 3201, 3221, 3212, 3211, 3225, 3233, 3251, 3236, 3231, 3222, 3228, 3231, 3252, 3243, 3212, 3237, 3213, 3210, 3239, 3243, 3232, 3226, 3207, 3226, 3234, 3224, 3212, 3242, 3224, 3246, 3227, 3237, 3222, 3230, 3221, 3239, 3244, 3214, 3215, 3238, 3242, 3228, 3233, 3229, 3239, 3222, 3227, 3235, 3243, 3255, 3247, 3211, 3219, 3227, 3225, 3260, 3224, 3236, 3242, 3223, 3255, 3224, 3231, 3221, 3215, 3219, 3221, 3232, 3232, 3227, 3216, 3240, 3225, 3228, 3213, 3227, 3218, 3213, 3239, 3237, 3243, 3234, 3235, 3237, 3231, 3228, 3230, 3224, 3260, 3241, 3246, 3215, 3253, 3239, 3212, 3243, 3241, 3208, 3245, 3227, 3231, 3230, 3207, 3221, 3237, 3199, 3224, 3214, 3226, 3222, 3212, 3233, 3205, 3199, 3226, 3229, 3269, 3229, 3204, 3218, 3214, 3239, 3231, 3205, 3236, 3220, 3219, 3234, 3217, 3223, 3217, 3236, 3229, 3224, 3224, 3217, 3233, 3224, 3222, 3230, 3238, 3248, 3229],
      "WindowCenter": [709.0, 707.0, 708.0, 708.0, 707.0, 706.0, 706.0, 707.0, 708.0, 708.0, 707.0, 707.0, 708.0, 708.0, 708.0, 708.0, 707.0, 707.0, 706.0, 706.0, 706.0, 708.0, 708.0, 707.0, 706.0, 706.0, 706.0, 707.0, 707.0, 707.0, 705.0, 705.0, 705.0, 706.0, 706.0, 705.0, 706.0, 706.0, 706.0, 707.0, 707.0, 706.0, 705.0, 705.0, 705.0, 705.0, 705.0, 706.0, 706.0, 707.0, 707.0, 706.0, 706.0, 706.0, 706.0, 705.0, 705.0, 706.0, 706.0, 706.0, 706.0, 706.0, 706.0, 707.0, 708.0, 708.0, 707.0, 707.0, 707.0, 707.0, 707.0, 708.0, 707.0, 707.0, 707.0, 709.0, 708.0, 708.0, 707.0, 707.0, 707.0, 708.0, 708.0, 708.0, 708.0, 708.0, 708.0, 707.0, 707.0, 707.0, 708.0, 708.0, 709.0, 709.0, 708.0, 709.0, 708.0, 708.0, 707.0, 707.0, 707.0, 707.0, 707.0, 707.0, 708.0, 709.0, 708.0, 708.0, 708.0, 708.0, 707.0, 707.0, 708.0, 708.0, 707.0, 708.0, 709.0, 708.0, 708.0, 708.0, 709.0, 709.0, 708.0, 708.0, 708.0, 708.0, 708.0, 708.0, 708.0, 709.0, 709.0, 709.0, 708.0, 707.0, 707.0, 708.0, 707.0, 707.0, 706.0, 707.0, 708.0, 708.0, 708.0, 708.0, 708.0, 709.0, 709.0, 709.0, 709.0, 709.0, 709.0, 709.0, 709.0, 710.0, 710.0, 710.0],
      "WindowWidth": [1537.0, 1533.0, 1534.0, 1534.0, 1531.0, 1530.0, 1530.0, 1533.0, 1534.0, 1535.0, 1533.0, 1533.0, 1534.0, 1535.0, 1535.0, 1535.0, 1532.0, 1531.0, 1529.0, 1528.0, 1530.0, 1534.0, 1536.0, 1531.0, 1529.0, 1529.0, 1530.0, 1532.0, 1532.0, 1531.0, 1528.0, 1527.0, 1528.0, 1531.0, 1530.0, 1528.0, 1529.0, 1529.0, 1530.0, 1531.0, 1531.0, 1529.0, 1527.0, 1527.0, 1527.0, 1525.0, 1527.0, 1528.0, 1530.0, 1532.0, 1532.0, 1529.0, 1530.0, 1529.0, 1528.0, 1527.0, 1528.0, 1528.0, 1529.0, 1528.0, 1529.0, 1531.0, 1530.0, 1532.0, 1534.0, 1533.0, 1531.0, 1531.0, 1531.0, 1532.0, 1533.0, 1533.0, 1531.0, 1533.0, 1533.0, 1536.0, 1536.0, 1536.0, 1532.0, 1531.0, 1531.0, 1534.0, 1534.0, 1535.0, 1535.0, 1536.0, 1535.0, 1533.0, 1532.0, 1532.0, 1533.0, 1536.0, 1537.0, 1537.0, 1535.0, 1536.0, 1535.0, 1533.0, 1532.0, 1532.0, 1531.0, 1532.0, 1531.0, 1532.0, 1534.0, 1536.0, 1535.0, 1534.0, 1534.0, 1533.0, 1532.0, 1533.0, 1534.0, 1534.0, 1533.0, 1534.0, 1536.0, 1535.0, 1534.0, 1536.0, 1537.0, 1537.0, 1535.0, 1536.0, 1536.0, 1534.0, 1533.0, 1533.0, 1533.0, 1536.0, 1537.0, 1536.0, 1535.0, 1532.0, 1532.0, 1533.0, 1533.0, 1533.0, 1530.0, 1531.0, 1534.0, 1536.0, 1535.0, 1535.0, 1535.0, 1536.0, 1536.0, 1536.0, 1538.0, 1537.0, 1536.0, 1536.0, 1537.0, 1539.0, 1540.0, 1538.0]
    },
    "slices": {}
  }
}