{
  "AcquisitionMatrixPE": 100,
  "AcquisitionNumber": 1,
  "AcquisitionTime": "16:33:23.705000",
  "BandwidthPerPixelPhaseEncode": 18.519,
  "BaseResolution": 100,
  "BodyPartExamined": "BRAIN",
  "CoilCombinationMethod": "Sum of Squares",
  "ConsistencyInfo": "N4_VE11C_LATEST_20160120",
  "ConversionSoftware": "dcm2niix",
  "ConversionSoftwareVersion": "v1.0.20211006",
  "DerivedVendorReportedEchoSpacing": 0.000539986,
  "DeviceSerialNumber": "166078",
  "DwellTime": 2.1e-06,
  "EchoTime": 0.034,
  "EchoTrainLength": 100,
  "EffectiveEchoSpacing": 0.000539986,
  "FlipAngle": 90,
  "ImageOrientationPatientDICOM": [1, 0, 0, 0, 0.997053, -0.076719],
  "ImageOrientationText": "Tra>Cor(-4.4)",
  "ImageType": [
    "ORIGINAL",
    "PRIMARY",
    "M",
    "ND",
    "MOSAIC"
],
  "ImagingFrequency": 123.258,
  "InPlanePhaseEncodingDirectionDICOM": "COL",
  "InstitutionAddress": "Street StreetNo,Bei Jing,District,CN,ZIP",
  "InstitutionName": "BeiJing Normal University",
  "InstitutionalDepartmentName": "Department",
  "MRAcquisitionType": "2D",
  "MagneticFieldStrength": 3,
  "Manufacturer": "Siemens",
  "ManufacturersModelName": "Prisma",
  "Modality": "MR",
  "MultibandAccelerationFactor": 3,
  "PartialFourier": 1,
  "PatientPosition": "HFS",
  "PercentPhaseFOV": 100,
  "PercentSampling": 100,
  "PhaseEncodingDirection": "j-",
  "PhaseEncodingSteps": 100,
  "PhaseResolution": 1,
  "PixelBandwidth": 2380,
  "ProcedureStepDescription": "BNU_P2018_64CH^Zhen.ZongLei",
  "ProtocolName": "bold_100x100_s3_2x2x2_static_156",
  "PulseSequenceDetails": "%SiemensSeq%\\ep2d_bold",
  "ReceiveCoilActiveElements": "HC1-7;NC1",
  "ReceiveCoilName": "HeadNeck_64",
  "ReconMatrixPE": 100,
  "RefLinesPE": 32,
  "RepetitionTime": 2,
  "SAR": 0.0676145,
  "ScanOptions": "FS",
  "ScanningSequence": "EP",
  "SequenceName": "*epfid2d1_100",
  "SequenceVariant": "SK",
  "SeriesDescription": "bold_100x100_s3_2x2x2_static_156",
  "SeriesNumber": 11,
  "ShimSetting": [-5440, -11517, -1244, 505, 102, -237, -185, 8],
  "SliceThickness": 2,
  "SliceTiming": [1.485, 0, 0.99, 0.0825, 1.0725, 0.165, 1.155, 0.2475, 1.2375, 0.33, 1.32, 0.4125, 1.4025, 0.5775, 1.5675, 0.66, 1.65, 0.7425, 1.7325, 0.825, 1.815, 0.9075, 1.8975, 0.495, 1.485, 0, 0.99, 0.0825, 1.0725, 0.165, 1.155, 0.2475, 1.2375, 0.33, 1.32, 0.4125, 1.4025, 0.5775, 1.5675, 0.66, 1.65, 0.7425, 1.7325, 0.825, 1.815, 0.9075, 1.8975, 0.495, 1.485, 0, 0.99, 0.0825, 1.0725, 0.165, 1.155, 0.2475, 1.2375, 0.33, 1.32, 0.4125, 1.4025, 0.5775, 1.5675, 0.66, 1.65, 0.7425, 1.7325, 0.825, 1.815, 0.9075, 1.8975, 0.495],
  "SoftwareVersions": "syngo MR E11",
  "SpacingBetweenSlices": 2,
  "StationName": "AWP166078",
  "TaskName": "action",
  "TotalReadoutTime": 0.0534586,
  "TxRefAmp": 205.285,
  "dcmmeta_affine": [
    [-2.0, 0.0, 0.0, 100.0],
    [0.0, 1.9941054582595825, -0.1534380465745926, -90.78712463378906],
    [0.0, 0.1534380465745926, 1.9941054582595825, -63.29710388183594],
    [0.0, 0.0, 0.0, 1.0]
],
  "dcmmeta_reorient_transform": [
    [0.0, -1.0, 0.0, 99.0],
    [1.0, 0.0, 0.0, 0.0],
    [0.0, 0.0, 1.0, 0.0],
    [0.0, 0.0, 0.0, 1.0]
],
  "dcmmeta_shape": [100, 100, 72, 156],
  "dcmmeta_slice_dim": 2,
  "dcmmeta_version": 0.6,
  "global": {
    "const": {
      "AcquisitionMatrix": [100, 0, 0, 100],
      "AngioFlag": "N",
      "BitsAllocated": 16,
      "BitsStored": 12,
      "BodyPartExamined": "BRAIN",
      "Columns": 900,
      "EchoNumbers": 1,
      "EchoTime": 34.0,
      "EchoTrainLength": 100,
      "FlipAngle": 90.0,
      "HighBit": 11,
      "ImageOrientationPatient": [1.0, 0.0, 0.0, 0.0, 0.99705275241223, -0.0767190257186],
      "ImagePositionPatient": [-900.0, -904.27152559477, 13.268482399648],
      "ImageType": [
        "ORIGINAL",
        "PRIMARY",
        "M",
        "ND",
        "MOSAIC"
],
      "ImagedNucleus": "1H",
      "ImagingFrequency": 123.257712,
      "InPlanePhaseEncodingDirection": "COL",
      "MRAcquisitionType": "2D",
      "MagneticFieldStrength": 3.0,
      "Manufacturer": "SIEMENS",
      "ManufacturerModelName": "Prisma",
      "Modality": "MR",
      "NumberOfAverages": 1.0,
      "NumberOfPhaseEncodingSteps": 100,
      "PercentPhaseFieldOfView": 100.0,
      "PercentSampling": 100.0,
      "PerformedProcedureStepStartTime": "153748.728000",
      "PhotometricInterpretation": "MONOCHROME2",
      "PixelBandwidth": 2380.0,
      "PixelRepresentation": 0,
      "PixelSpacing": [2.0, 2.0],
      "ProtocolName": "bold_100x100_s3_2x2x2_static_156",
      "RepetitionTime": 2000.0,
      "Rows": 900,
      "SAR": 0.06761446202849,
      "SamplesPerPixel": 1,
      "ScanOptions": "FS",
      "ScanningSequence": "EP",
      "SequenceName": "*epfid2d1_100",
      "SequenceVariant": "SK",
      "SeriesDescription": "bold_100x100_s3_2x2x2_static_156",
      "SeriesNumber": 11,
      "SeriesTime": "163326.763000",
      "SliceLocation": -56.145453531779,
      "SliceThickness": 2.0,
      "SmallestImagePixelValue": 0,
      "SoftwareVersions": "syngo MR E11",
      "SpacingBetweenSlices": 1.999999982254,
      "SpecificCharacterSet": "ISO_IR 100",
      "StudyID": "1",
      "StudyTime": "153748.609000",
      "TransmitCoilName": "Body",
      "VariableFlipAngleFlag": "N",
      "WindowCenterWidthExplanation": "Algo1",
      "dBdt": 0.0},
    "slices": {}
  },
  "time": {
    "samples": {
      "AcquisitionNumber": [1, 2, 3, 4, 5, 6, 7, 8, 9, 10, 11, 12, 13, 14, 15, 16, 17, 18, 19, 20, 21, 22, 23, 24, 25, 26, 27, 28, 29, 30, 31, 32, 33, 34, 35, 36, 37, 38, 39, 40, 41, 42, 43, 44, 45, 46, 47, 48, 49, 50, 51, 52, 53, 54, 55, 56, 57, 58, 59, 60, 61, 62, 63, 64, 65, 66, 67, 68, 69, 70, 71, 72, 73, 74, 75, 76, 77, 78, 79, 80, 81, 82, 83, 84, 85, 86, 87, 88, 89, 90, 91, 92, 93, 94, 95, 96, 97, 98, 99, 100, 101, 102, 103, 104, 105, 106, 107, 108, 109, 110, 111, 112, 113, 114, 115, 116, 117, 118, 119, 120, 121, 122, 123, 124, 125, 126, 127, 128, 129, 130, 131, 132, 133, 134, 135, 136, 137, 138, 139, 140, 141, 142, 143, 144, 145, 146, 147, 148, 149, 150, 151, 152, 153, 154, 155, 156],
      "AcquisitionTime": ["163323.705000", "163325.705000", "163327.705000", "163329.705000", "163331.705000", "163333.705000", "163335.705000", "163337.705000", "163339.705000", "163341.705000", "163343.705000", "163345.705000", "163347.705000", "163349.705000", "163351.705000", "163353.705000", "163355.705000", "163357.705000", "163359.705000", "163401.705000", "163403.705000", "163405.705000", "163407.705000", "163409.705000", "163411.705000", "163413.705000", "163415.705000", "163417.705000", "163419.705000", "163421.705000", "163423.705000", "163425.705000", "163427.705000", "163429.705000", "163431.705000", "163433.705000", "163435.705000", "163437.705000", "163439.705000", "163441.705000", "163443.705000", "163445.705000", "163447.705000", "163449.705000", "163451.705000", "163453.705000", "163455.705000", "163457.705000", "163459.705000", "163501.705000", "163503.705000", "163505.705000", "163507.705000", "163509.705000", "163511.705000", "163513.705000", "163515.705000", "163517.705000", "163519.705000", "163521.705000", "163523.705000", "163525.705000", "163527.705000", "163529.705000", "163531.705000", "163533.705000", "163535.705000", "163537.705000", "163539.705000", "163541.705000", "163543.705000", "163545.705000", "163547.705000", "163549.705000", "163551.705000", "163553.705000", "163555.705000", "163557.705000", "163559.705000", "163601.705000", "163603.705000", "163605.705000", "163607.705000", "163609.705000", "163611.705000", "163613.705000", "163615.705000", "163617.705000", "163619.705000", "163621.705000", "163623.705000", "163625.705000", "163627.705000", "163629.705000", "163631.705000", "163633.705000", "163635.705000", "163637.705000", "163639.705000", "163641.705000", "163643.705000", "163645.705000", "163647.705000", "163649.705000", "163651.705000", "163653.705000", "163655.705000", "163657.705000", "163659.705000", "163701.705000", "163703.705000", "163705.705000", "163707.705000", "163709.705000", "163711.705000", "163713.705000", "163715.705000", "163717.705000", "163719.705000", "163721.705000", "163723.705000", "163725.705000", "163727.705000", "163729.705000", "163731.705000", "163733.705000", "163735.705000", "163737.705000", "163739.705000", "163741.705000", "163743.705000", "163745.705000", "163747.705000", "163749.705000", "163751.705000", "163753.705000", "163755.705000", "163757.705000", "163759.705000", "163801.705000", "163803.705000", "163805.705000", "163807.705000", "163809.705000", "163811.705000", "163813.705000", "163815.705000", "163817.705000", "163819.705000", "163821.705000", "163823.705000", "163825.705000", "163827.705000", "163829.705000", "163831.705000", "163833.705000"],
      "ContentTime": ["163326.767000", "163328.247000", "163330.247000", "163332.247000", "163334.247000", "163336.247000", "163338.247000", "163340.248000", "163342.248000", "163344.247000", "163346.248000", "163348.247000", "163350.246000", "163352.248000", "163354.248000", "163356.247000", "163358.248000", "163400.248000", "163402.247000", "163404.247000", "163406.248000", "163408.246000", "163410.248000", "163412.248000", "163414.247000", "163416.248000", "163418.248000", "163420.247000", "163422.247000", "163424.248000", "163426.247000", "163428.247000", "163430.248000", "163432.248000", "163434.248000", "163436.248000", "163438.247000", "163440.247000", "163442.247000", "163444.247000", "163446.248000", "163448.248000", "163450.248000", "163452.247000", "163454.248000", "163456.247000", "163458.247000", "163500.246000", "163502.247000", "163504.248000", "163506.247000", "163508.247000", "163510.248000", "163512.248000", "163514.248000", "163516.247000", "163518.246000", "163520.248000", "163522.247000", "163524.247000", "163526.247000", "163528.248000", "163530.248000", "163532.247000", "163534.247000", "163536.248000", "163538.247000", "163540.248000", "163542.248000", "163544.247000", "163546.248000", "163548.247000", "163550.248000", "163552.247000", "163554.248000", "163556.248000", "163558.248000", "163600.248000", "163602.248000", "163604.247000", "163606.248000", "163608.247000", "163610.247000", "163612.247000", "163614.248000", "163616.248000", "163618.248000", "163620.247000", "163622.247000", "163624.248000", "163626.248000", "163628.248000", "163630.248000", "163632.248000", "163634.247000", "163636.248000", "163638.248000", "163640.248000", "163642.248000", "163644.248000", "163646.248000", "163648.248000", "163650.248000", "163652.248000", "163654.247000", "163656.248000", "163658.248000", "163700.248000", "163702.248000", "163704.248000", "163706.248000", "163708.247000", "163710.248000", "163712.248000", "163714.247000", "163716.248000", "163718.248000", "163720.246000", "163722.247000", "163724.248000", "163726.248000", "163728.248000", "163730.248000", "163732.247000", "163734.247000", "163736.248000", "163738.247000", "163740.248000", "163742.248000", "163744.248000", "163746.247000", "163748.248000", "163750.247000", "163752.248000", "163754.247000", "163756.248000", "163758.248000", "163800.248000", "163802.248000", "163804.247000", "163806.248000", "163808.248000", "163810.248000", "163812.247000", "163814.248000", "163816.248000", "163818.247000", "163820.247000", "163822.247000", "163824.248000", "163826.248000", "163828.248000", "163830.247000", "163832.247000", "163834.262000", "163835.862000"],
      "InstanceCreationTime": ["163326.767000", "163328.247000", "163330.247000", "163332.247000", "163334.247000", "163336.247000", "163338.247000", "163340.248000", "163342.248000", "163344.247000", "163346.248000", "163348.247000", "163350.246000", "163352.248000", "163354.248000", "163356.247000", "163358.248000", "163400.248000", "163402.247000", "163404.247000", "163406.248000", "163408.246000", "163410.248000", "163412.248000", "163414.247000", "163416.248000", "163418.248000", "163420.247000", "163422.247000", "163424.248000", "163426.247000", "163428.247000", "163430.248000", "163432.248000", "163434.248000", "163436.248000", "163438.247000", "163440.247000", "163442.247000", "163444.247000", "163446.248000", "163448.248000", "163450.248000", "163452.247000", "163454.248000", "163456.247000", "163458.247000", "163500.246000", "163502.247000", "163504.248000", "163506.247000", "163508.247000", "163510.248000", "163512.248000", "163514.248000", "163516.247000", "163518.246000", "163520.248000", "163522.247000", "163524.247000", "163526.247000", "163528.248000", "163530.248000", "163532.247000", "163534.247000", "163536.248000", "163538.247000", "163540.248000", "163542.248000", "163544.247000", "163546.248000", "163548.247000", "163550.248000", "163552.247000", "163554.248000", "163556.248000", "163558.248000", "163600.248000", "163602.248000", "163604.247000", "163606.248000", "163608.247000", "163610.247000", "163612.247000", "163614.248000", "163616.248000", "163618.248000", "163620.247000", "163622.247000", "163624.248000", "163626.248000", "163628.248000", "163630.248000", "163632.248000", "163634.247000", "163636.248000", "163638.248000", "163640.248000", "163642.248000", "163644.248000", "163646.248000", "163648.248000", "163650.248000", "163652.248000", "163654.247000", "163656.248000", "163658.248000", "163700.248000", "163702.248000", "163704.248000", "163706.248000", "163708.247000", "163710.248000", "163712.248000", "163714.247000", "163716.248000", "163718.248000", "163720.246000", "163722.247000", "163724.248000", "163726.248000", "163728.248000", "163730.248000", "163732.247000", "163734.247000", "163736.248000", "163738.247000", "163740.248000", "163742.248000", "163744.248000", "163746.247000", "163748.248000", "163750.247000", "163752.248000", "163754.247000", "163756.248000", "163758.248000", "163800.248000", "163802.248000", "163804.247000", "163806.248000", "163808.248000", "163810.248000", "163812.247000", "163814.248000", "163816.248000", "163818.247000", "163820.247000", "163822.247000", "163824.248000", "163826.248000", "163828.248000", "163830.247000", "163832.247000", "163834.262000", "163835.862000"],
      "InstanceNumber": [1, 2, 3, 4, 5, 6, 7, 8, 9, 10, 11, 12, 13, 14, 15, 16, 17, 18, 19, 20, 21, 22, 23, 24, 25, 26, 27, 28, 29, 30, 31, 32, 33, 34, 35, 36, 37, 38, 39, 40, 41, 42, 43, 44, 45, 46, 47, 48, 49, 50, 51, 52, 53, 54, 55, 56, 57, 58, 59, 60, 61, 62, 63, 64, 65, 66, 67, 68, 69, 70, 71, 72, 73, 74, 75, 76, 77, 78, 79, 80, 81, 82, 83, 84, 85, 86, 87, 88, 89, 90, 91, 92, 93, 94, 95, 96, 97, 98, 99, 100, 101, 102, 103, 104, 105, 106, 107, 108, 109, 110, 111, 112, 113, 114, 115, 116, 117, 118, 119, 120, 121, 122, 123, 124, 125, 126, 127, 128, 129, 130, 131, 132, 133, 134, 135, 136, 137, 138, 139, 140, 141, 142, 143, 144, 145, 146, 147, 148, 149, 150, 151, 152, 153, 154, 155, 156],
      "LargestImagePixelValue": [3412, 3330, 3319, 3285, 3275, 3295, 3292, 3262, 3275, 3266, 3276, 3256, 3257, 3279, 3300, 3259, 3291, 3282, 3263, 3253, 3262, 3260, 3241, 3258, 3252, 3267, 3253, 3257, 3241, 3258, 3256, 3252, 3272, 3246, 3213, 3231, 3232, 3240, 3254, 3234, 3268, 3261, 3247, 3272, 3241, 3239, 3278, 3225, 3241, 3265, 3226, 3245, 3253, 3255, 3210, 3244, 3251, 3236, 3247, 3252, 3262, 3254, 3230, 3239, 3262, 3252, 3264, 3241, 3221, 3245, 3233, 3262, 3241, 3252, 3268, 3246, 3259, 3254, 3257, 3274, 3260, 3252, 3267, 3247, 3249, 3268, 3253, 3236, 3285, 3272, 3274, 3272, 3257, 3264, 3282, 3229, 3242, 3271, 3276, 3254, 3277, 3253, 3302, 3270, 3272, 3266, 3284, 3278, 3274, 3249, 3261, 3261, 3268, 3264, 3257, 3273, 3282, 3296, 3296, 3263, 3300, 3253, 3260, 3268, 3273, 3188, 3293, 3276, 3236, 3250, 3251, 3226, 3212, 3232, 3208, 3217, 3193, 3221, 3276, 3228, 3247, 3262, 3198, 3227, 3238, 3236, 3234, 3236, 3227, 3224, 3244, 3227, 3255, 3234, 3226, 3200],
      "WindowCenter": [723.0, 721.0, 720.0, 720.0, 720.0, 721.0, 720.0, 720.0, 720.0, 720.0, 721.0, 719.0, 718.0, 718.0, 718.0, 719.0, 719.0, 718.0, 717.0, 717.0, 718.0, 719.0, 718.0, 718.0, 717.0, 717.0, 717.0, 718.0, 718.0, 717.0, 717.0, 716.0, 717.0, 718.0, 717.0, 718.0, 718.0, 718.0, 717.0, 718.0, 719.0, 719.0, 718.0, 717.0, 718.0, 719.0, 719.0, 719.0, 719.0, 718.0, 718.0, 718.0, 719.0, 718.0, 717.0, 718.0, 719.0, 719.0, 719.0, 719.0, 719.0, 719.0, 719.0, 718.0, 718.0, 718.0, 718.0, 718.0, 718.0, 718.0, 719.0, 720.0, 718.0, 718.0, 717.0, 717.0, 718.0, 718.0, 718.0, 718.0, 718.0, 719.0, 719.0, 718.0, 718.0, 717.0, 718.0, 719.0, 719.0, 719.0, 719.0, 719.0, 719.0, 719.0, 719.0, 718.0, 718.0, 719.0, 719.0, 718.0, 718.0, 719.0, 719.0, 719.0, 719.0, 720.0, 720.0, 719.0, 719.0, 719.0, 720.0, 719.0, 717.0, 718.0, 718.0, 719.0, 719.0, 719.0, 719.0, 718.0, 718.0, 718.0, 721.0, 721.0, 719.0, 718.0, 720.0, 720.0, 719.0, 719.0, 718.0, 718.0, 718.0, 718.0, 718.0, 718.0, 717.0, 717.0, 718.0, 718.0, 719.0, 719.0, 718.0, 718.0, 718.0, 719.0, 718.0, 718.0, 718.0, 718.0, 718.0, 718.0, 718.0, 717.0, 716.0, 717.0],
      "WindowWidth": [1576.0, 1570.0, 1569.0, 1569.0, 1570.0, 1571.0, 1570.0, 1568.0, 1568.0, 1569.0, 1572.0, 1567.0, 1564.0, 1563.0, 1564.0, 1565.0, 1567.0, 1564.0, 1561.0, 1562.0, 1565.0, 1566.0, 1563.0, 1563.0, 1561.0, 1561.0, 1561.0, 1563.0, 1562.0, 1561.0, 1559.0, 1559.0, 1561.0, 1562.0, 1562.0, 1563.0, 1563.0, 1562.0, 1562.0, 1563.0, 1566.0, 1566.0, 1562.0, 1561.0, 1563.0, 1565.0, 1566.0, 1565.0, 1565.0, 1564.0, 1563.0, 1564.0, 1565.0, 1564.0, 1560.0, 1561.0, 1565.0, 1567.0, 1567.0, 1566.0, 1566.0, 1567.0, 1565.0, 1563.0, 1562.0, 1564.0, 1564.0, 1564.0, 1564.0, 1565.0, 1566.0, 1567.0, 1564.0, 1562.0, 1559.0, 1561.0, 1562.0, 1564.0, 1563.0, 1563.0, 1563.0, 1566.0, 1565.0, 1563.0, 1562.0, 1561.0, 1563.0, 1565.0, 1566.0, 1567.0, 1565.0, 1565.0, 1566.0, 1566.0, 1565.0, 1563.0, 1564.0, 1566.0, 1565.0, 1562.0, 1564.0, 1565.0, 1566.0, 1564.0, 1565.0, 1567.0, 1567.0, 1566.0, 1565.0, 1566.0, 1568.0, 1565.0, 1561.0, 1562.0, 1563.0, 1566.0, 1565.0, 1565.0, 1565.0, 1563.0, 1563.0, 1564.0, 1570.0, 1571.0, 1567.0, 1562.0, 1568.0, 1568.0, 1565.0, 1564.0, 1562.0, 1563.0, 1562.0, 1562.0, 1562.0, 1563.0, 1561.0, 1561.0, 1563.0, 1563.0, 1566.0, 1566.0, 1562.0, 1562.0, 1563.0, 1564.0, 1563.0, 1562.0, 1562.0, 1562.0, 1563.0, 1561.0, 1561.0, 1559.0, 1558.0, 1558.0]
    },
    "slices": {}
  }
}