{
  "AcquisitionMatrixPE": 100,
  "AcquisitionNumber": 1,
  "AcquisitionTime": "14:10:46.810000",
  "BandwidthPerPixelPhaseEncode": 18.519,
  "BaseResolution": 100,
  "BodyPartExamined": "BRAIN",
  "CoilCombinationMethod": "Sum of Squares",
  "ConsistencyInfo": "N4_VE11C_LATEST_20160120",
  "ConversionSoftware": "dcm2niix",
  "ConversionSoftwareVersion": "v1.0.20211006",
  "DerivedVendorReportedEchoSpacing": 0.000539986,
  "DeviceSerialNumber": "166078",
  "DwellTime": 2.1e-06,
  "EchoTime": 0.034,
  "EchoTrainLength": 100,
  "EffectiveEchoSpacing": 0.000539986,
  "FlipAngle": 90,
  "ImageOrientationPatientDICOM": [0.992782, 0.0329896, 0.115305, -4.90892e-09, 0.961424, -0.275071],
  "ImageOrientationText": "Tra>Cor(-16.0)>Sag(6.9)",
  "ImageType": [
    "ORIGINAL",
    "PRIMARY",
    "M",
    "ND",
    "MOSAIC"
],
  "ImagingFrequency": 123.258,
  "InPlanePhaseEncodingDirectionDICOM": "COL",
  "InstitutionAddress": "Street StreetNo,Bei Jing,District,CN,ZIP",
  "InstitutionName": "BeiJing Normal University",
  "InstitutionalDepartmentName": "Department",
  "MRAcquisitionType": "2D",
  "MagneticFieldStrength": 3,
  "Manufacturer": "Siemens",
  "ManufacturersModelName": "Prisma",
  "Modality": "MR",
  "MultibandAccelerationFactor": 3,
  "PartialFourier": 1,
  "PatientPosition": "HFS",
  "PercentPhaseFOV": 100,
  "PercentSampling": 100,
  "PhaseEncodingDirection": "j-",
  "PhaseEncodingSteps": 100,
  "PhaseResolution": 1,
  "PixelBandwidth": 2380,
  "ProcedureStepDescription": "BNU_P2018_64CH^Zhen.ZongLei",
  "ProtocolName": "bold_100x100_s3_2x2x2_static_156",
  "PulseSequenceDetails": "%SiemensSeq%\\ep2d_bold",
  "ReceiveCoilActiveElements": "HC1-7;NC1",
  "ReceiveCoilName": "HeadNeck_64",
  "ReconMatrixPE": 100,
  "RefLinesPE": 32,
  "RepetitionTime": 2,
  "SAR": 0.0673559,
  "ScanOptions": "FS",
  "ScanningSequence": "EP",
  "SequenceName": "*epfid2d1_100",
  "SequenceVariant": "SK",
  "SeriesDescription": "bold_100x100_s3_2x2x2_static_156",
  "SeriesNumber": 15,
  "ShimSetting": [-5436, -11395, -1356, 581, -48, -434, -206, -7],
  "SliceThickness": 2,
  "SliceTiming": [1.485, 0, 0.99, 0.0825, 1.0725, 0.165, 1.155, 0.2475, 1.2375, 0.33, 1.32, 0.4125, 1.4025, 0.5775, 1.5675, 0.66, 1.65, 0.7425, 1.7325, 0.825, 1.815, 0.9075, 1.8975, 0.495, 1.485, 0, 0.99, 0.0825, 1.0725, 0.165, 1.155, 0.2475, 1.2375, 0.33, 1.32, 0.4125, 1.4025, 0.5775, 1.5675, 0.66, 1.65, 0.7425, 1.7325, 0.825, 1.815, 0.9075, 1.8975, 0.495, 1.485, 0, 0.99, 0.0825, 1.0725, 0.165, 1.155, 0.2475, 1.2375, 0.33, 1.32, 0.4125, 1.4025, 0.5775, 1.5675, 0.66, 1.65, 0.7425, 1.7325, 0.825, 1.815, 0.9075, 1.8975, 0.495],
  "SoftwareVersions": "syngo MR E11",
  "SpacingBetweenSlices": 2,
  "StationName": "AWP166078",
  "TaskName": "action",
  "TotalReadoutTime": 0.0534586,
  "TxRefAmp": 214.747,
  "dcmmeta_affine": [
    [-1.9855643510818481, -9.81784964437793e-09, 0.2398625612258911, 88.4902572631836],
    [-0.06597921252250671, 1.922847867012024, -0.5461709499359131, -62.96708679199219],
    [0.23060961067676544, 0.5501417517662048, 1.9089691638946533, -122.26056671142578],
    [0.0, 0.0, 0.0, 1.0]
],
  "dcmmeta_reorient_transform": [
    [0.0, -1.0, 0.0, 99.0],
    [1.0, 0.0, 0.0, 0.0],
    [0.0, 0.0, 1.0, 0.0],
    [0.0, 0.0, 0.0, 1.0]
],
  "dcmmeta_shape": [100, 100, 72, 156],
  "dcmmeta_slice_dim": 2,
  "dcmmeta_version": 0.6,
  "global": {
    "const": {
      "AcquisitionMatrix": [100, 0, 0, 100],
      "AngioFlag": "N",
      "BitsAllocated": 16,
      "BitsStored": 12,
      "BodyPartExamined": "BRAIN",
      "Columns": 900,
      "EchoNumbers": 1,
      "EchoTime": 34.0,
      "EchoTrainLength": 100,
      "FlipAngle": 90.0,
      "HighBit": 11,
      "ImageOrientationPatient": [0.99278219541508, 0.0329896076854, 0.11530480584768, -4.908925e-09, 0.96142395050133, -0.2750708770525],
      "ImagePositionPatient": [-882.716005681, -922.92570120839, 60.016324130716],
      "ImageType": [
        "ORIGINAL",
        "PRIMARY",
        "M",
        "ND",
        "MOSAIC"
],
      "ImagedNucleus": "1H",
      "ImagingFrequency": 123.257796,
      "InPlanePhaseEncodingDirection": "COL",
      "MRAcquisitionType": "2D",
      "MagneticFieldStrength": 3.0,
      "Manufacturer": "SIEMENS",
      "ManufacturerModelName": "Prisma",
      "Modality": "MR",
      "NumberOfAverages": 1.0,
      "NumberOfPhaseEncodingSteps": 100,
      "PercentPhaseFieldOfView": 100.0,
      "PercentSampling": 100.0,
      "PerformedProcedureStepStartTime": "125828.269000",
      "PhotometricInterpretation": "MONOCHROME2",
      "PixelBandwidth": 2380.0,
      "PixelRepresentation": 0,
      "PixelSpacing": [2.0, 2.0],
      "ProtocolName": "bold_100x100_s3_2x2x2_static_156",
      "RepetitionTime": 2000.0,
      "Rows": 900,
      "SAR": 0.06735592549513,
      "SamplesPerPixel": 1,
      "ScanOptions": "FS",
      "ScanningSequence": "EP",
      "SequenceName": "*epfid2d1_100",
      "SequenceVariant": "SK",
      "SeriesDescription": "bold_100x100_s3_2x2x2_static_156",
      "SeriesNumber": 15,
      "SeriesTime": "141049.546000",
      "SliceLocation": -88.887679242493,
      "SliceThickness": 2.0,
      "SmallestImagePixelValue": 0,
      "SoftwareVersions": "syngo MR E11",
      "SpacingBetweenSlices": 2.0000000325568,
      "SpecificCharacterSet": "ISO_IR 100",
      "StudyID": "1",
      "StudyTime": "125828.187000",
      "TransmitCoilName": "Body",
      "VariableFlipAngleFlag": "N",
      "WindowCenterWidthExplanation": "Algo1",
      "dBdt": 0.0},
    "slices": {}
  },
  "time": {
    "samples": {
      "AcquisitionNumber": [1, 2, 3, 4, 5, 6, 7, 8, 9, 10, 11, 12, 13, 14, 15, 16, 17, 18, 19, 20, 21, 22, 23, 24, 25, 26, 27, 28, 29, 30, 31, 32, 33, 34, 35, 36, 37, 38, 39, 40, 41, 42, 43, 44, 45, 46, 47, 48, 49, 50, 51, 52, 53, 54, 55, 56, 57, 58, 59, 60, 61, 62, 63, 64, 65, 66, 67, 68, 69, 70, 71, 72, 73, 74, 75, 76, 77, 78, 79, 80, 81, 82, 83, 84, 85, 86, 87, 88, 89, 90, 91, 92, 93, 94, 95, 96, 97, 98, 99, 100, 101, 102, 103, 104, 105, 106, 107, 108, 109, 110, 111, 112, 113, 114, 115, 116, 117, 118, 119, 120, 121, 122, 123, 124, 125, 126, 127, 128, 129, 130, 131, 132, 133, 134, 135, 136, 137, 138, 139, 140, 141, 142, 143, 144, 145, 146, 147, 148, 149, 150, 151, 152, 153, 154, 155, 156],
      "AcquisitionTime": ["141046.810000", "141048.810000", "141050.810000", "141052.810000", "141054.810000", "141056.810000", "141058.810000", "141100.810000", "141102.810000", "141104.810000", "141106.810000", "141108.810000", "141110.810000", "141112.810000", "141114.810000", "141116.810000", "141118.810000", "141120.810000", "141122.810000", "141124.810000", "141126.810000", "141128.810000", "141130.810000", "141132.810000", "141134.810000", "141136.810000", "141138.810000", "141140.810000", "141142.810000", "141144.810000", "141146.810000", "141148.810000", "141150.810000", "141152.810000", "141154.810000", "141156.810000", "141158.810000", "141200.810000", "141202.810000", "141204.810000", "141206.810000", "141208.810000", "141210.810000", "141212.810000", "141214.810000", "141216.810000", "141218.810000", "141220.810000", "141222.810000", "141224.810000", "141226.810000", "141228.810000", "141230.810000", "141232.810000", "141234.810000", "141236.810000", "141238.810000", "141240.810000", "141242.810000", "141244.810000", "141246.810000", "141248.810000", "141250.810000", "141252.810000", "141254.810000", "141256.810000", "141258.810000", "141300.810000", "141302.810000", "141304.810000", "141306.810000", "141308.810000", "141310.810000", "141312.810000", "141314.810000", "141316.810000", "141318.810000", "141320.810000", "141322.810000", "141324.810000", "141326.810000", "141328.810000", "141330.810000", "141332.810000", "141334.810000", "141336.810000", "141338.810000", "141340.810000", "141342.810000", "141344.810000", "141346.810000", "141348.810000", "141350.810000", "141352.810000", "141354.810000", "141356.810000", "141358.810000", "141400.810000", "141402.810000", "141404.810000", "141406.810000", "141408.810000", "141410.810000", "141412.810000", "141414.810000", "141416.810000", "141418.810000", "141420.810000", "141422.810000", "141424.810000", "141426.810000", "141428.810000", "141430.810000", "141432.810000", "141434.810000", "141436.810000", "141438.810000", "141440.810000", "141442.810000", "141444.810000", "141446.810000", "141448.810000", "141450.810000", "141452.810000", "141454.810000", "141456.810000", "141458.810000", "141500.810000", "141502.810000", "141504.810000", "141506.810000", "141508.810000", "141510.810000", "141512.810000", "141514.810000", "141516.810000", "141518.810000", "141520.810000", "141522.810000", "141524.810000", "141526.810000", "141528.810000", "141530.810000", "141532.810000", "141534.810000", "141536.810000", "141538.810000", "141540.810000", "141542.810000", "141544.810000", "141546.810000", "141548.810000", "141550.810000", "141552.810000", "141554.810000", "141556.810000"],
      "ContentTime": ["141049.550000", "141051.046000", "141053.045000", "141055.045000", "141057.045000", "141059.046000", "141101.047000", "141103.047000", "141105.047000", "141107.046000", "141109.045000", "141111.046000", "141113.046000", "141115.046000", "141117.047000", "141119.047000", "141121.047000", "141123.047000", "141125.046000", "141127.045000", "141129.045000", "141131.046000", "141133.046000", "141135.046000", "141137.047000", "141139.047000", "141141.046000", "141143.046000", "141145.046000", "141147.045000", "141149.045000", "141151.047000", "141153.047000", "141155.047000", "141157.046000", "141159.046000", "141201.046000", "141203.046000", "141205.046000", "141207.046000", "141209.047000", "141211.047000", "141213.047000", "141215.047000", "141217.046000", "141219.046000", "141221.045000", "141223.046000", "141225.046000", "141227.047000", "141229.047000", "141231.047000", "141233.046000", "141235.045000", "141237.046000", "141239.046000", "141241.046000", "141243.047000", "141245.047000", "141247.047000", "141249.046000", "141251.046000", "141253.046000", "141255.046000", "141257.045000", "141259.046000", "141301.047000", "141303.047000", "141305.047000", "141307.047000", "141309.045000", "141311.045000", "141313.046000", "141315.046000", "141317.046000", "141319.047000", "141321.047000", "141323.046000", "141325.046000", "141327.046000", "141329.045000", "141331.046000", "141333.046000", "141335.045000", "141337.046000", "141339.046000", "141341.046000", "141343.047000", "141345.046000", "141347.046000", "141349.046000", "141351.045000", "141353.046000", "141355.047000", "141357.046000", "141359.046000", "141401.047000", "141403.046000", "141405.046000", "141407.045000", "141409.045000", "141411.046000", "141413.046000", "141415.046000", "141417.046000", "141419.046000", "141421.046000", "141423.045000", "141425.046000", "141427.045000", "141429.046000", "141431.046000", "141433.046000", "141435.047000", "141437.045000", "141439.046000", "141441.046000", "141443.045000", "141445.046000", "141447.047000", "141449.046000", "141451.047000", "141453.046000", "141455.045000", "141457.045000", "141459.045000", "141501.046000", "141503.046000", "141505.047000", "141507.047000", "141509.047000", "141511.046000", "141513.046000", "141515.045000", "141517.045000", "141519.046000", "141521.046000", "141523.047000", "141525.046000", "141527.047000", "141529.045000", "141531.046000", "141533.046000", "141535.046000", "141537.046000", "141539.047000", "141541.046000", "141543.047000", "141545.047000", "141547.045000", "141549.045000", "141551.046000", "141553.045000", "141555.045000", "141557.047000", "141558.927000"],
      "InstanceCreationTime": ["141049.550000", "141051.046000", "141053.045000", "141055.045000", "141057.045000", "141059.046000", "141101.047000", "141103.047000", "141105.047000", "141107.046000", "141109.045000", "141111.046000", "141113.046000", "141115.046000", "141117.047000", "141119.047000", "141121.047000", "141123.047000", "141125.046000", "141127.045000", "141129.045000", "141131.046000", "141133.046000", "141135.046000", "141137.047000", "141139.047000", "141141.046000", "141143.046000", "141145.046000", "141147.045000", "141149.045000", "141151.047000", "141153.047000", "141155.047000", "141157.046000", "141159.046000", "141201.046000", "141203.046000", "141205.046000", "141207.046000", "141209.047000", "141211.047000", "141213.047000", "141215.047000", "141217.046000", "141219.046000", "141221.045000", "141223.046000", "141225.046000", "141227.047000", "141229.047000", "141231.047000", "141233.046000", "141235.045000", "141237.046000", "141239.046000", "141241.046000", "141243.047000", "141245.047000", "141247.047000", "141249.046000", "141251.046000", "141253.046000", "141255.046000", "141257.045000", "141259.046000", "141301.047000", "141303.047000", "141305.047000", "141307.047000", "141309.045000", "141311.045000", "141313.046000", "141315.046000", "141317.046000", "141319.047000", "141321.047000", "141323.046000", "141325.046000", "141327.046000", "141329.045000", "141331.046000", "141333.046000", "141335.045000", "141337.046000", "141339.046000", "141341.046000", "141343.047000", "141345.046000", "141347.046000", "141349.046000", "141351.045000", "141353.046000", "141355.047000", "141357.046000", "141359.046000", "141401.047000", "141403.046000", "141405.046000", "141407.045000", "141409.045000", "141411.046000", "141413.046000", "141415.046000", "141417.046000", "141419.046000", "141421.046000", "141423.045000", "141425.046000", "141427.045000", "141429.046000", "141431.046000", "141433.046000", "141435.047000", "141437.045000", "141439.046000", "141441.046000", "141443.045000", "141445.046000", "141447.047000", "141449.046000", "141451.047000", "141453.046000", "141455.045000", "141457.045000", "141459.045000", "141501.046000", "141503.046000", "141505.047000", "141507.047000", "141509.047000", "141511.046000", "141513.046000", "141515.045000", "141517.045000", "141519.046000", "141521.046000", "141523.047000", "141525.046000", "141527.047000", "141529.045000", "141531.046000", "141533.046000", "141535.046000", "141537.046000", "141539.047000", "141541.046000", "141543.047000", "141545.047000", "141547.045000", "141549.045000", "141551.046000", "141553.045000", "141555.045000", "141557.047000", "141558.927000"],
      "InstanceNumber": [1, 2, 3, 4, 5, 6, 7, 8, 9, 10, 11, 12, 13, 14, 15, 16, 17, 18, 19, 20, 21, 22, 23, 24, 25, 26, 27, 28, 29, 30, 31, 32, 33, 34, 35, 36, 37, 38, 39, 40, 41, 42, 43, 44, 45, 46, 47, 48, 49, 50, 51, 52, 53, 54, 55, 56, 57, 58, 59, 60, 61, 62, 63, 64, 65, 66, 67, 68, 69, 70, 71, 72, 73, 74, 75, 76, 77, 78, 79, 80, 81, 82, 83, 84, 85, 86, 87, 88, 89, 90, 91, 92, 93, 94, 95, 96, 97, 98, 99, 100, 101, 102, 103, 104, 105, 106, 107, 108, 109, 110, 111, 112, 113, 114, 115, 116, 117, 118, 119, 120, 121, 122, 123, 124, 125, 126, 127, 128, 129, 130, 131, 132, 133, 134, 135, 136, 137, 138, 139, 140, 141, 142, 143, 144, 145, 146, 147, 148, 149, 150, 151, 152, 153, 154, 155, 156],
      "LargestImagePixelValue": [2730, 2727, 2776, 2778, 2673, 2652, 2695, 2683, 2707, 2753, 2702, 2668, 2703, 2735, 2733, 2653, 2675, 2701, 2686, 2672, 2680, 2692, 2674, 2687, 2669, 2678, 2703, 2726, 2685, 2628, 2657, 2678, 2696, 2737, 2724, 2663, 2709, 2790, 2761, 2714, 2719, 2740, 2746, 2751, 2722, 2741, 2693, 2668, 2708, 2720, 2750, 2687, 2735, 2690, 2723, 2710, 2708, 2757, 2713, 2719, 2712, 2736, 2820, 2842, 2716, 2749, 2766, 2769, 2746, 2819, 2745, 2760, 2697, 2739, 2733, 2741, 2732, 2768, 2743, 2686, 2678, 2696, 2710, 2717, 2697, 2677, 2691, 2720, 2699, 2676, 2687, 2695, 2812, 2694, 2715, 2678, 2729, 2720, 2685, 2731, 2708, 2723, 2750, 2683, 2688, 2673, 2708, 2729, 2737, 2764, 2768, 2712, 2695, 2698, 2758, 2794, 2753, 2739, 2762, 2741, 2710, 2756, 2786, 2796, 2836, 2797, 2795, 2735, 2690, 2710, 2739, 2685, 2711, 2782, 2777, 2721, 2722, 2734, 2696, 2770, 2750, 2799, 2871, 2772, 2761, 2681, 2785, 2721, 2773, 2785, 2764, 2745, 2747, 2761, 2728, 2684],
      "WindowCenter": [754.0, 753.0, 745.0, 754.0, 752.0, 752.0, 752.0, 752.0, 752.0, 753.0, 751.0, 751.0, 752.0, 752.0, 752.0, 750.0, 750.0, 751.0, 752.0, 752.0, 752.0, 752.0, 750.0, 750.0, 751.0, 750.0, 752.0, 752.0, 752.0, 751.0, 751.0, 751.0, 752.0, 752.0, 752.0, 751.0, 752.0, 753.0, 751.0, 751.0, 750.0, 749.0, 750.0, 752.0, 753.0, 753.0, 751.0, 750.0, 751.0, 752.0, 754.0, 752.0, 751.0, 750.0, 750.0, 750.0, 750.0, 752.0, 751.0, 751.0, 751.0, 750.0, 752.0, 752.0, 750.0, 750.0, 751.0, 752.0, 752.0, 752.0, 750.0, 751.0, 750.0, 751.0, 752.0, 752.0, 751.0, 753.0, 752.0, 750.0, 750.0, 751.0, 752.0, 753.0, 752.0, 751.0, 751.0, 751.0, 751.0, 751.0, 750.0, 750.0, 752.0, 750.0, 750.0, 749.0, 750.0, 750.0, 750.0, 752.0, 752.0, 751.0, 751.0, 749.0, 750.0, 751.0, 751.0, 752.0, 753.0, 753.0, 752.0, 751.0, 751.0, 751.0, 752.0, 753.0, 754.0, 754.0, 753.0, 751.0, 750.0, 752.0, 752.0, 752.0, 753.0, 752.0, 751.0, 749.0, 749.0, 751.0, 751.0, 750.0, 751.0, 751.0, 751.0, 751.0, 751.0, 752.0, 751.0, 752.0, 753.0, 757.0, 759.0, 756.0, 753.0, 750.0, 751.0, 750.0, 751.0, 750.0, 750.0, 750.0, 751.0, 752.0, 750.0, 749.0],
      "WindowWidth": [1626.0, 1623.0, 1602.0, 1626.0, 1621.0, 1620.0, 1622.0, 1620.0, 1620.0, 1623.0, 1620.0, 1619.0, 1621.0, 1621.0, 1622.0, 1617.0, 1618.0, 1619.0, 1620.0, 1620.0, 1621.0, 1620.0, 1618.0, 1617.0, 1618.0, 1618.0, 1621.0, 1622.0, 1622.0, 1619.0, 1618.0, 1619.0, 1621.0, 1622.0, 1622.0, 1620.0, 1623.0, 1624.0, 1620.0, 1618.0, 1616.0, 1614.0, 1616.0, 1620.0, 1623.0, 1623.0, 1619.0, 1617.0, 1619.0, 1622.0, 1626.0, 1621.0, 1620.0, 1616.0, 1615.0, 1617.0, 1617.0, 1620.0, 1619.0, 1619.0, 1618.0, 1615.0, 1620.0, 1620.0, 1618.0, 1615.0, 1618.0, 1621.0, 1621.0, 1622.0, 1617.0, 1618.0, 1616.0, 1620.0, 1622.0, 1621.0, 1619.0, 1623.0, 1622.0, 1616.0, 1616.0, 1618.0, 1620.0, 1623.0, 1621.0, 1618.0, 1619.0, 1619.0, 1618.0, 1618.0, 1617.0, 1616.0, 1621.0, 1617.0, 1618.0, 1615.0, 1617.0, 1618.0, 1617.0, 1622.0, 1620.0, 1620.0, 1617.0, 1615.0, 1617.0, 1618.0, 1619.0, 1622.0, 1624.0, 1623.0, 1622.0, 1619.0, 1618.0, 1619.0, 1620.0, 1623.0, 1625.0, 1625.0, 1623.0, 1619.0, 1617.0, 1620.0, 1622.0, 1622.0, 1622.0, 1621.0, 1617.0, 1613.0, 1614.0, 1619.0, 1619.0, 1616.0, 1617.0, 1619.0, 1619.0, 1618.0, 1619.0, 1620.0, 1618.0, 1619.0, 1624.0, 1633.0, 1639.0, 1631.0, 1623.0, 1615.0, 1619.0, 1615.0, 1617.0, 1617.0, 1616.0, 1617.0, 1619.0, 1622.0, 1617.0, 1615.0]
    },
    "slices": {}
  }
}