{"AcquisitionMatrixPE": 100, "AcquisitionNumber": 1, "AcquisitionTime": "16:24:3.587500", "BaseResolution": 100, "BodyPartExamined": "BRAIN", "CoilCombinationMethod": "Sum of Squares", "ConsistencyInfo": "N4_VE11C_LATEST_20160120", "ConversionSoftware": "dcm2niix", "ConversionSoftwareVersion": "v1.0.20211006", "DeviceSerialNumber": "166078", "DwellTime": 8.8e-06, "EchoNumber": 2, "EchoTime": 0.00738, "EchoTime1": 0.00492, "EchoTime2": 0.00738, "FlipAngle": 60, "ImageOrientationPatientDICOM": [0.998719, 0.00739077, 0.0500502, 1.93029e-10, 0.989272, -0.146083], "ImageOrientationText": "Tra>Cor(-8.4)>Sag(2.9)", "ImageType": ["ORIGINAL", "PRIMARY", "P", "ND", "PHASE"], "ImagingFrequency": 123.258, "InPlanePhaseEncodingDirectionDICOM": "ROW", "InstitutionAddress": "Street StreetNo,Bei Jing,District,CN,ZIP", "InstitutionName": "BeiJing Normal University", "InstitutionalDepartmentName": "Department", "MRAcquisitionType": "2D", "MagneticFieldStrength": 3, "Manufacturer": "Siemens", "ManufacturersModelName": "Prisma", "MatrixCoilMode": "SENSE", "Modality": "MR", "MultibandAccelerationFactor": 2, "PartialFourier": 1, "PatientPosition": "HFS", "PercentPhaseFOV": 100, "PercentSampling": 100, "PhaseEncodingDirection": "i", "PhaseEncodingSteps": 100, "PhaseResolution": 1, "PixelBandwidth": 570, "ProcedureStepDescription": "BNU_P2018_64CH^Zhen.ZongLei", "ProtocolName": "field_mapping_2x2x2", "PulseSequenceDetails": "%SiemensSeq%\\gre_field_mapping", "ReceiveCoilActiveElements": "HC1-7;NC1", "ReceiveCoilName": "HeadNeck_64", "ReconMatrixPE": 100, "RepetitionTime": 0.72, "SAR": 0.124468, "ScanningSequence": "GR", "SequenceName": "*fm2d2r", "SequenceVariant": "SP", "SeriesDescription": "field_mapping_2x2x2", "SeriesNumber": 10, "ShimSetting": [-5439, -11468, -1230, 312, 30, -224, -199, 26], "SliceThickness": 2, "SliceTiming": [0.35938, 0, 0.35938, 0, 0.375, 0.01562, 0.39062, 0.01562, 0.39062, 0.03125, 0.40625, 0.04688, 0.40625, 0.04688, 0.42188, 0.0625, 0.4375, 0.07812, 0.4375, 0.07812, 0.45312, 0.09375, 0.46875, 0.10938, 0.46875, 0.10938, 0.48438, 0.125, 0.5, 0.14062, 0.5, 0.14062, 0.51562, 0.15625, 0.51562, 0.15625, 0.53125, 0.17188, 0.54688, 0.1875, 0.54688, 0.1875, 0.5625, 0.20312, 0.57812, 0.21875, 0.57812, 0.21875, 0.59375, 0.23438, 0.60938, 0.25, 0.60938, 0.25, 0.625, 0.26562, 0.64062, 0.26562, 0.64062, 0.28125, 0.65625, 0.29688, 0.65625, 0.29688, 0.67188, 0.3125, 0.6875, 0.32812, 0.6875, 0.32812, 0.70312, 0.34375], "SoftwareVersions": "syngo MR E11", "SpacingBetweenSlices": 2, "StationName": "AWP166078", "TxRefAmp": 220.202, "dcmmeta_affine": [[-1.997438669204712, 3.8605799113078376e-10, 0.10118591785430908, 94.16481018066406], [-0.01478153932839632, 1.9785447120666504, -0.2917919158935547, -81.85152435302734], [0.10010039061307907, 0.2921660542488098, 1.97601318359375, -83.07749938964844], [0.0, 0.0, 0.0, 1.0]], "dcmmeta_reorient_transform": [[0.0, -1.0, 0.0, 99.0], [1.0, 0.0, 0.0, 0.0], [0.0, 0.0, -1.0, 71.0], [0.0, 0.0, 0.0, 1.0]], "dcmmeta_shape": [100, 100, 72], "dcmmeta_slice_dim": 2, "dcmmeta_version": 0.6, "global": {"const": {"AcquisitionMatrix": [0, 100, 100, 0], "AcquisitionNumber": 1, "AngioFlag": "N", "BitsAllocated": 16, "BitsStored": 12, "BodyPartExamined": "BRAIN", "Columns": 100, "EchoNumbers": 2, "EchoTime": 7.38, "EchoTrainLength": 0, "FlipAngle": 60.0, "HighBit": 11, "ImageOrientationPatient": [0.99871935715848, 0.0073907697668, 0.05005019639539, 1.93029e-10, 0.98927233304154, -0.1460830280305], "ImageType": ["ORIGINAL", "PRIMARY", "P", "ND"], "ImagedNucleus": "1H", "ImagingFrequency": 123.257758, "InPlanePhaseEncodingDirection": "ROW", "MRAcquisitionType": "2D", "MagneticFieldStrength": 3.0, "Manufacturer": "SIEMENS", "ManufacturerModelName": "Prisma", "Modality": "MR", "NumberOfAverages": 1.0, "NumberOfPhaseEncodingSteps": 100, "PercentPhaseFieldOfView": 100.0, "PercentSampling": 100.0, "PerformedProcedureStepStartTime": "154455.926000", "PhotometricInterpretation": "MONOCHROME2", "PixelBandwidth": 570.0, "PixelRepresentation": 0, "PixelSpacing": [2.0, 2.0], "ProtocolName": "field_mapping_2x2x2", "RepetitionTime": 720.0, "RescaleIntercept": -4096.0, "RescaleSlope": 2.0, "RescaleType": "US", "Rows": 100, "SAR": 0.12446843212799, "SamplesPerPixel": 1, "ScanningSequence": "GR", "SequenceName": "*fm2d2r", "SequenceVariant": "SP", "SeriesDescription": "field_mapping_2x2x2", "SeriesNumber": 10, "SeriesTime": "162628.722000", "SliceThickness": 2.0, "SoftwareVersions": "syngo MR E11", "SpacingBetweenSlices": 2.0, "SpecificCharacterSet": "ISO_IR 100", "StudyID": "1", "StudyTime": "154455.846000", "TransmitCoilName": "Body", "VariableFlipAngleFlag": "N", "WindowCenterWidthExplanation": "Algo1", "dBdt": 0.0}, "slices": {"AcquisitionTime": ["162403.587500", "162403.227500", "162403.597500", "162403.237500", "162403.607500", "162403.247500", "162403.617500", "162403.257500", "162403.627500", "162403.267500", "162403.637500", "162403.277500", "162403.647500", "162403.287500", "162403.657500", "162403.297500", "162403.667500", "162403.307500", "162403.677500", "162403.317500", "162403.687500", "162403.327500", "162403.697500", "162403.337500", "162403.707500", "162403.347500", "162403.717500", "162403.357500", "162403.727500", "162403.367500", "162403.737500", "162403.377500", "162403.747500", "162403.387500", "162403.757500", "162403.397500", "162403.767500", "162403.407500", "162403.777500", "162403.417500", "162403.787500", "162403.427500", "162403.797500", "162403.437500", "162403.807500", "162403.447500", "162403.817500", "162403.457500", "162403.827500", "162403.467500", "162403.837500", "162403.477500", "162403.847500", "162403.487500", "162403.857500", "162403.497500", "162403.867500", "162403.507500", "162403.877500", "162403.517500", "162403.887500", "162403.527500", "162403.897500", "162403.537500", "162403.907500", "162403.547500", "162403.917500", "162403.557500", "162403.927500", "162403.567500", "162403.937500", "162403.577500"], "ContentTime": ["162628.797000", "162628.724000", "162628.799000", "162628.726000", "162628.801000", "162628.728000", "162628.803000", "162628.730000", "162628.805000", "162628.732000", "162628.806000", "162628.735000", "162628.808000", "162628.737000", "162628.810000", "162628.740000", "162628.812000", "162628.742000", "162628.814000", "162628.744000", "162628.816000", "162628.746000", "162628.818000", "162628.748000", "162628.820000", "162628.750000", "162628.822000", "162628.752000", "162628.824000", "162628.754000", "162628.826000", "162628.756000", "162628.827000", "162628.758000", "162628.829000", "162628.760000", "162628.831000", "162628.762000", "162628.833000", "162628.764000", "162628.835000", "162628.766000", "162628.837000", "162628.767000", "162628.839000", "162628.769000", "162628.841000", "162628.771000", "162628.843000", "162628.773000", "162628.845000", "162628.775000", "162628.847000", "162628.777000", "162628.849000", "162628.779000", "162628.851000", "162628.781000", "162628.854000", "162628.783000", "162628.856000", "162628.785000", "162628.858000", "162628.786000", "162628.860000", "162628.788000", "162628.861000", "162628.790000", "162628.863000", "162628.793000", "162628.865000", "162628.795000"], "CsaImage.GSWDDataType": ["measured", "predicted", "measured", "predicted", "measured", "predicted", "measured", "predicted", "measured", "predicted", "measured", "predicted", "measured", "predicted", "measured", "predicted", "measured", "predicted", "measured", "predicted", "measured", "predicted", "measured", "predicted", "measured", "predicted", "measured", "predicted", "measured", "predicted", "measured", "predicted", "measured", "predicted", "measured", "predicted", "measured", "predicted", "measured", "predicted", "measured", "predicted", "measured", "predicted", "measured", "predicted", "measured", "predicted", "measured", "predicted", "measured", "measured", "measured", "measured", "measured", "measured", "measured", "measured", "measured", "measured", "measured", "measured", "measured", "measured", "measured", "measured", "measured", "measured", "measured", "measured", "measured", "measured"], "CsaImage.ICE_Dims": ["X_2_1_1_1_1_1_37_1_1_1_1_186", "X_2_1_1_1_1_1_1_1_1_2_1_186", "X_2_1_1_1_1_1_38_1_1_3_1_186", "X_2_1_1_1_1_1_2_1_1_4_1_186", "X_2_1_1_1_1_1_39_1_1_5_1_186", "X_2_1_1_1_1_1_3_1_1_6_1_186", "X_2_1_1_1_1_1_40_1_1_7_1_186", "X_2_1_1_1_1_1_4_1_1_8_1_186", "X_2_1_1_1_1_1_41_1_1_9_1_186", "X_2_1_1_1_1_1_5_1_1_10_1_186", "X_2_1_1_1_1_1_42_1_1_11_1_186", "X_2_1_1_1_1_1_6_1_1_12_1_186", "X_2_1_1_1_1_1_43_1_1_13_1_186", "X_2_1_1_1_1_1_7_1_1_14_1_186", "X_2_1_1_1_1_1_44_1_1_15_1_186", "X_2_1_1_1_1_1_8_1_1_16_1_186", "X_2_1_1_1_1_1_45_1_1_17_1_186", "X_2_1_1_1_1_1_9_1_1_18_1_186", "X_2_1_1_1_1_1_46_1_1_19_1_186", "X_2_1_1_1_1_1_10_1_1_20_1_186", "X_2_1_1_1_1_1_47_1_1_21_1_186", "X_2_1_1_1_1_1_11_1_1_22_1_186", "X_2_1_1_1_1_1_48_1_1_23_1_186", "X_2_1_1_1_1_1_12_1_1_24_1_186", "X_2_1_1_1_1_1_49_1_1_25_1_186", "X_2_1_1_1_1_1_13_1_1_26_1_186", "X_2_1_1_1_1_1_50_1_1_27_1_186", "X_2_1_1_1_1_1_14_1_1_28_1_186", "X_2_1_1_1_1_1_51_1_1_29_1_186", "X_2_1_1_1_1_1_15_1_1_30_1_186", "X_2_1_1_1_1_1_52_1_1_31_1_186", "X_2_1_1_1_1_1_16_1_1_32_1_186", "X_2_1_1_1_1_1_53_1_1_33_1_186", "X_2_1_1_1_1_1_17_1_1_34_1_186", "X_2_1_1_1_1_1_54_1_1_35_1_186", "X_2_1_1_1_1_1_18_1_1_36_1_186", "X_2_1_1_1_1_1_55_1_1_37_1_186", "X_2_1_1_1_1_1_19_1_1_38_1_186", "X_2_1_1_1_1_1_56_1_1_39_1_186", "X_2_1_1_1_1_1_20_1_1_40_1_186", "X_2_1_1_1_1_1_57_1_1_41_1_186", "X_2_1_1_1_1_1_21_1_1_42_1_186", "X_2_1_1_1_1_1_58_1_1_43_1_186", "X_2_1_1_1_1_1_22_1_1_44_1_186", "X_2_1_1_1_1_1_59_1_1_45_1_186", "X_2_1_1_1_1_1_23_1_1_46_1_186", "X_2_1_1_1_1_1_60_1_1_47_1_186", "X_2_1_1_1_1_1_24_1_1_48_1_186", "X_2_1_1_1_1_1_61_1_1_49_1_186", "X_2_1_1_1_1_1_25_1_1_50_1_186", "X_2_1_1_1_1_1_62_1_1_51_1_186", "X_2_1_1_1_1_1_26_1_1_52_1_186", "X_2_1_1_1_1_1_63_1_1_53_1_186", "X_2_1_1_1_1_1_27_1_1_54_1_186", "X_2_1_1_1_1_1_64_1_1_55_1_186", "X_2_1_1_1_1_1_28_1_1_56_1_186", "X_2_1_1_1_1_1_65_1_1_57_1_186", "X_2_1_1_1_1_1_29_1_1_58_1_186", "X_2_1_1_1_1_1_66_1_1_59_1_186", "X_2_1_1_1_1_1_30_1_1_60_1_186", "X_2_1_1_1_1_1_67_1_1_61_1_186", "X_2_1_1_1_1_1_31_1_1_62_1_186", "X_2_1_1_1_1_1_68_1_1_63_1_186", "X_2_1_1_1_1_1_32_1_1_64_1_186", "X_2_1_1_1_1_1_69_1_1_65_1_186", "X_2_1_1_1_1_1_33_1_1_66_1_186", "X_2_1_1_1_1_1_70_1_1_67_1_186", "X_2_1_1_1_1_1_34_1_1_68_1_186", "X_2_1_1_1_1_1_71_1_1_69_1_186", "X_2_1_1_1_1_1_35_1_1_70_1_186", "X_2_1_1_1_1_1_72_1_1_71_1_186", "X_2_1_1_1_1_1_36_1_1_72_1_186"], "CsaImage.ProtocolSliceNumber": [0, 1, 2, 3, 4, 5, 6, 7, 8, 9, 10, 11, 12, 13, 14, 15, 16, 17, 18, 19, 20, 21, 22, 23, 24, 25, 26, 27, 28, 29, 30, 31, 32, 33, 34, 35, 36, 37, 38, 39, 40, 41, 42, 43, 44, 45, 46, 47, 48, 49, 50, 51, 52, 53, 54, 55, 56, 57, 58, 59, 60, 61, 62, 63, 64, 65, 66, 67, 68, 69, 70, 71], "CsaImage.RFSWDDataType": ["measured", "predicted", "measured", "predicted", "measured", "predicted", "measured", "predicted", "measured", "predicted", "measured", "predicted", "measured", "predicted", "measured", "predicted", "measured", "predicted", "measured", "predicted", "measured", "predicted", "measured", "predicted", "measured", "predicted", "measured", "predicted", "measured", "predicted", "measured", "predicted", "measured", "predicted", "measured", "predicted", "measured", "predicted", "measured", "predicted", "measured", "predicted", "measured", "predicted", "measured", "measured", "measured", "measured", "measured", "measured", "measured", "measured", "measured", "measured", "measured", "measured", "measured", "measured", "measured", "measured", "measured", "measured", "measured", "measured", "measured", "measured", "measured", "measured", "measured", "measured", "measured", "measured"], "CsaImage.SlicePosition_PCS": [[-94.16480912, -114.02439877, -54.15289283], [-94.26599492, -113.73260686, -52.17688346], [-94.36718072, -113.44081494, -50.20087028], [-94.46836699, -113.14902303, -48.22486091], [-94.56955279, -112.85723111, -46.24885154], [-94.67073859, -112.56543919, -44.27283836], [-94.77192439, -112.27364728, -42.29682899], [-94.87311019, -111.98185536, -40.3208158], [-94.97429598, -111.6900644, -38.34480644], [-95.07548226, -111.39827248, -36.36879707], [-95.17666806, -111.10648057, -34.39278388], [-95.27785386, -110.81468865, -32.41677451], [-95.37903966, -110.52289674, -30.44076515], [-95.48022545, -110.23110482, -28.46475196], [-95.58141125, -109.93931291, -26.48874259], [-95.68259753, -109.64752099, -24.51272941], [-95.78378333, -109.35572907, -22.53672004], [-95.88496913, -109.06393716, -20.56070876], [-95.98615492, -108.77214524, -18.58469749], [-96.08734096, -108.48035333, -16.60868812], [-96.18852676, -108.18856141, -14.63267684], [-96.28971256, -107.89676949, -12.65666557], [-96.3908986, -107.60497758, -10.68065429], [-96.49208439, -107.31318566, -8.70464492], [-96.59327019, -107.02139375, -6.72863365], [-96.69445623, -106.72960183, -4.75262237], [-96.79564203, -106.43780991, -2.77661109], [-96.89682783, -106.146018, -0.80060077], [-96.99801386, -105.85422608, 1.17541051], [-97.09919966, -105.56243417, 3.15142131], [-97.20038546, -105.27064225, 5.1274321], [-97.3015715, -104.97885034, 7.1034429], [-97.4027573, -104.68705842, 9.0794537], [-97.5039431, -104.3952665, 11.05546462], [-97.60512913, -104.10347459, 13.03147554], [-97.70631493, -103.81168267, 15.0074861], [-97.80750073, -103.51989076, 16.98349738], [-97.90868677, -103.22809884, 18.95950818], [-98.00987257, -102.93630692, 20.9355185], [-98.11105848, -102.64451525, 22.91152978], [-98.2122444, -102.35272333, 24.88754105], [-98.3134302, -102.06093141, 26.86355233], [-98.41461612, -101.7691395, 28.8395617], [-98.51580204, -101.47734758, 30.81557297], [-98.61698783, -101.18555567, 32.79158425], [-98.71817375, -100.89376375, 34.76759553], [-98.81935967, -100.60197184, 36.7436049], [-98.92054553, -100.31017998, 38.71961617], [-99.02173139, -100.01838806, 40.69562745], [-99.1229173, -99.72659617, 42.67163872], [-99.22410316, -99.43480428, 44.64764809], [-99.32528902, -99.14301237, 46.62366128], [-99.42647491, -98.85122046, 48.59967065], [-99.5276608, -98.55942854, 50.57568001], [-99.62884669, -98.26763663, 52.5516932], [-99.73003256, -97.97584483, 54.52770257], [-99.83121844, -97.68405291, 56.50371575], [-99.93240432, -97.392261, 58.47972512], [-100.03359021, -97.10046908, 60.45573449], [-100.13477607, -96.80867717, 62.43174767], [-100.23596195, -96.51688525, 64.40775704], [-100.33714784, -96.22509334, 66.38377022], [-100.4383337, -95.93330142, 68.35977959], [-100.53951962, -95.6415095, 70.33578896], [-100.64070548, -95.34971759, 72.31180215], [-100.74189133, -95.05792567, 74.28781533], [-100.84307725, -94.76613376, 76.26382088], [-100.94426311, -94.47434184, 78.23983407], [-101.04544903, -94.18254992, 80.21584725], [-101.14663483, -93.89075801, 82.1918528], [-101.24782074, -93.59896657, 84.16786599], [-101.34900666, -93.30717465, 86.14387917]], "CsaImage.TimeAfterStart": [1.0825, 0.7225, 1.0925, 0.7325, 1.1025, 0.7425, 1.1125, 0.7525, 1.1225, 0.7625, 1.1325, 0.7725, 1.1425, 0.7825, 1.1525, 0.7925, 1.1625, 0.8025, 1.1725, 0.8125, 1.1825, 0.8225, 1.1925, 0.8325, 1.2025, 0.8425, 1.2125, 0.8525, 1.2225, 0.8625, 1.2325, 0.8725, 1.2425, 0.8825, 1.2525, 0.8925, 1.2625, 0.9025, 1.2725, 0.9125, 1.2825, 0.9225, 1.2925, 0.9325, 1.3025, 0.9425, 1.3125, 0.9525, 1.3225, 0.9625, 1.3325, 0.9725, 1.3425, 0.9825, 1.3525, 0.9925, 1.3625, 1.0025, 1.3725, 1.0125, 1.3825, 1.0225, 1.3925, 1.0325, 1.4025, 1.0425, 1.4125, 1.0525, 1.4225, 1.0625, 1.4325, 1.0725], "ImagePositionPatient": [[-94.164809117719, -114.02439877418, -54.152892831364], [-94.265994916364, -113.73260685829, -52.176883462467], [-94.367180715009, -113.44081494239, -50.200870278874], [-94.468366990491, -113.1490230265, -48.224860909977], [-94.569552789136, -112.85723111061, -46.248851541081], [-94.670738587782, -112.56543919471, -44.272838357487], [-94.771924386427, -112.27364727882, -42.29682898859], [-94.873110185072, -111.98185536293, -40.320815804997], [-94.974295983717, -111.69006440071, -38.3448064361], [-95.075482259199, -111.39827248481, -36.368797067204], [-95.176668057844, -111.10648056892, -34.39278388361], [-95.277853856489, -110.81468865303, -32.416774514713], [-95.379039655134, -110.52289673713, -30.440765145817], [-95.480225453779, -110.23110482124, -28.464751962223], [-95.581411252424, -109.93931290535, -26.488742593327], [-95.682597527906, -109.64752098945, -24.512729409733], [-95.783783326551, -109.35572907356, -22.536720040837], [-95.884969125196, -109.06393715767, -20.560708764591], [-95.986154923841, -108.77214524177, -18.584697488346], [-96.087340960905, -108.48035332588, -16.60868811945], [-96.18852675955, -108.18856140998, -14.632676843205], [-96.289712558195, -107.89676949409, -12.65666556696], [-96.390898595258, -107.6049775782, -10.680654290714], [-96.492084393903, -107.3131856623, -8.7046449218179], [-96.593270192548, -107.02139374641, -6.7286336455728], [-96.694456229612, -106.72960183052, -4.7526223693277], [-96.795642028257, -106.43780991462, -2.7766110930826], [-96.896827826902, -106.14601799873, -0.8006007705118], [-96.998013863966, -105.85422608284, 1.1754105057333], [-97.099199662611, -105.56243416694, 3.1514213051413], [-97.200385461256, -105.27064225105, 5.1274321045492], [-97.301571498319, -104.97885033516, 7.1034429039572], [-97.402757296964, -104.68705841926, 9.0794537033652], [-97.503943095609, -104.39526650337, 11.055464621982], [-97.605129132673, -104.10347458747, 13.0314755406], [-97.706314931318, -103.81168267158, 15.007486101589], [-97.807500729963, -103.51989075569, 16.983497377834], [-97.908686767027, -103.22809883979, 18.959508177242], [-98.009872565672, -102.9363069239, 20.935518499813], [-98.111058483526, -102.64451524643, 22.911529776058], [-98.21224440138, -102.35272333053, 24.887541052303], [-98.313430200025, -102.06093141464, 26.863552328548], [-98.414616117879, -101.76913949874, 28.839561697445], [-98.515802035734, -101.47734758285, 30.81557297369], [-98.616987834379, -101.18555566696, 32.791584249935], [-98.718173752233, -100.89376375106, 34.76759552618], [-98.819359670087, -100.60197183517, 36.743604895077], [-98.920545528337, -100.31017997888, 38.719616171322], [-99.021731386587, -100.01838806299, 40.695627447567], [-99.122917304441, -99.726596169446, 42.671638723812], [-99.224103162691, -99.434804275905, 44.647648092708], [-99.32528902094, -99.143012374912, 46.623661276302], [-99.426474908992, -98.851220459019, 48.599670645199], [-99.527660797044, -98.559428543125, 50.575680014095], [-99.628846685096, -98.267636627232, 52.551693197689], [-99.730032558247, -97.975844830547, 54.527702566585], [-99.831218438849, -97.684052914654, 56.503715750179], [-99.93240431945, -97.39226099876, 58.479725119076], [-100.0335902075, -97.100469082867, 60.455734487972], [-100.13477606575, -96.808677166973, 62.431747671566], [-100.2359619538, -96.51688525108, 64.407757040462], [-100.33714784186, -96.225093335186, 66.383770224056], [-100.43833370011, -95.933301419292, 68.359779592953], [-100.53951961796, -95.641509503399, 70.335788961849], [-100.64070547621, -95.349717587505, 72.311802145443], [-100.74189133446, -95.057925671612, 74.287815329037], [-100.84307725231, -94.766133755718, 76.263820883236], [-100.94426311056, -94.474341839825, 78.23983406683], [-101.04544902842, -94.182549923931, 80.215847250423], [-101.14663482706, -93.890758008038, 82.191852804622], [-101.24782074492, -93.598966568981, 84.167865988216], [-101.34900666277, -93.307174653088, 86.14387917181]], "InstanceCreationTime": ["162628.797000", "162628.724000", "162628.799000", "162628.726000", "162628.801000", "162628.728000", "162628.803000", "162628.730000", "162628.805000", "162628.732000", "162628.806000", "162628.735000", "162628.808000", "162628.737000", "162628.810000", "162628.740000", "162628.812000", "162628.742000", "162628.814000", "162628.744000", "162628.816000", "162628.746000", "162628.818000", "162628.748000", "162628.820000", "162628.750000", "162628.822000", "162628.752000", "162628.824000", "162628.754000", "162628.826000", "162628.756000", "162628.827000", "162628.758000", "162628.829000", "162628.760000", "162628.831000", "162628.762000", "162628.833000", "162628.764000", "162628.835000", "162628.766000", "162628.837000", "162628.767000", "162628.839000", "162628.769000", "162628.841000", "162628.771000", "162628.843000", "162628.773000", "162628.845000", "162628.775000", "162628.847000", "162628.777000", "162628.849000", "162628.779000", "162628.851000", "162628.781000", "162628.854000", "162628.783000", "162628.856000", "162628.785000", "162628.858000", "162628.786000", "162628.860000", "162628.788000", "162628.861000", "162628.790000", "162628.863000", "162628.793000", "162628.865000", "162628.795000"], "InstanceNumber": [1, 2, 3, 4, 5, 6, 7, 8, 9, 10, 11, 12, 13, 14, 15, 16, 17, 18, 19, 20, 21, 22, 23, 24, 25, 26, 27, 28, 29, 30, 31, 32, 33, 34, 35, 36, 37, 38, 39, 40, 41, 42, 43, 44, 45, 46, 47, 48, 49, 50, 51, 52, 53, 54, 55, 56, 57, 58, 59, 60, 61, 62, 63, 64, 65, 66, 67, 68, 69, 70, 71, 72], "LargestImagePixelValue": [4094, 4089, 4095, 4095, 4095, 4091, 4094, 4095, 4093, 4093, 4095, 4091, 4094, 4095, 4094, 4093, 4092, 4091, 4094, 4093, 4094, 4092, 4094, 4095, 4095, 4094, 4092, 4093, 4093, 4093, 4094, 4093, 4094, 4094, 4091, 4093, 4095, 4094, 4092, 4094, 4094, 4089, 4090, 4095, 4094, 4090, 4094, 4095, 4095, 4091, 4090, 4093, 4094, 4095, 4088, 4095, 4092, 4093, 4094, 4094, 4094, 4093, 4095, 4094, 4094, 4092, 4094, 4095, 4093, 4095, 4095, 4095], "SliceLocation": [-65.374975231877, -63.374976703379, -61.374974405939, -59.374975853316, -57.374977324818, -55.374975027378, -53.37497649888, -51.37497420144, -49.374975812079, -47.374977259457, -45.374974962017, -43.374976433519, -41.37497790502, -39.374975607581, -37.374977079082, -35.374974757518, -33.37497622902, -31.374975816051, -29.374975403082, -27.374976862521, -25.374976449552, -23.374976036583, -21.374975611552, -19.374977083054, -17.374976670085, -15.374976245054, -13.374975832085, -11.374976361351, -9.3749759363198, -7.3749759944686, -5.3749760526173, -3.3749760987037, -1.3749761568524, 0.6250239027783, 2.6250239744713, 4.6250236807637, 6.6250240937327, 8.6250240476463, 10.62502351838, 12.625023902596, 14.625024321596, 16.625024734565, 18.625023269094, 20.625023688094, 22.625024101063, 24.625024520063, 26.625023054593, 28.625023461881, 30.625023877866, 32.625024293605, 34.625022821858, 36.625025120139, 38.62502365316, 40.625022186182, 42.625024488145, 44.625023003021, 46.625025304607, 48.625023837251, 50.625022370273, 52.625024670728, 54.62502320375, 56.625025505713, 58.625024037227, 60.625022571756, 62.625024872212, 64.625027172667, 66.625021938255, 68.62502423871, 70.625026542181, 72.625021301737, 74.62502353564, 76.625025839111], "SmallestImagePixelValue": [0, 1, 0, 0, 0, 0, 0, 3, 1, 4, 0, 0, 0, 0, 1, 0, 0, 0, 0, 0, 7, 1, 4, 1, 1, 2, 6, 0, 0, 0, 5, 2, 1, 3, 0, 0, 2, 5, 6, 0, 0, 0, 2, 1, 5, 0, 1, 0, 0, 4, 0, 0, 8, 13, 6, 5, 0, 0, 1, 0, 0, 3, 0, 0, 0, 0, 0, 0, 0, 0, 0, 0], "WindowCenter": [-300.0, -270.0, -278.0, -304.0, -306.0, -260.0, -258.0, -268.0, -248.0, -268.0, -228.0, -262.0, -242.0, -244.0, -234.0, -150.0, -184.0, -176.0, -208.0, -206.0, -268.0, -248.0, -228.0, -164.0, -110.0, -60.0, -42.0, -56.0, -88.0, -108.0, -108.0, -108.0, -62.0, -54.0, -54.0, -120.0, -232.0, -230.0, -222.0, -210.0, -230.0, -228.0, -222.0, -226.0, -236.0, -220.0, -222.0, -226.0, -218.0, -204.0, -208.0, -212.0, -206.0, -204.0, -198.0, -202.0, -188.0, -198.0, -224.0, -212.0, -216.0, -224.0, -66.0, -106.0, -110.0, -124.0, -124.0, -210.0, -242.0, -268.0, -350.0, -332.0], "WindowWidth": [5824.0, 5952.0, 5976.0, 6092.0, 6100.0, 6122.0, 6138.0, 6104.0, 6130.0, 6092.0, 6176.0, 6176.0, 6152.0, 6178.0, 6144.0, 6144.0, 6076.0, 5982.0, 5886.0, 5816.0, 5636.0, 5552.0, 5482.0, 5438.0, 5424.0, 5572.0, 5646.0, 5622.0, 5524.0, 5550.0, 5476.0, 5476.0, 5438.0, 5332.0, 5396.0, 5122.0, 4586.0, 4582.0, 4578.0, 4562.0, 4578.0, 4576.0, 4574.0, 4572.0, 4584.0, 4568.0, 4576.0, 4578.0, 4578.0, 4564.0, 4574.0, 4572.0, 4572.0, 4578.0, 4578.0, 4588.0, 4584.0, 4616.0, 4642.0, 4652.0, 4686.0, 4722.0, 5504.0, 5514.0, 5752.0, 5868.0, 5992.0, 6048.0, 6134.0, 6164.0, 6214.0, 6262.0]}}, "IntendedFor": ["ses-action01/func/sub-03_ses-action01_task-action_run-09_bold.nii.gz", "ses-action01/func/sub-03_ses-action01_task-action_run-06_bold.nii.gz", "ses-action01/func/sub-03_ses-action01_task-action_run-04_bold.nii.gz", "ses-action01/func/sub-03_ses-action01_task-action_run-12_bold.nii.gz", "ses-action01/func/sub-03_ses-action01_task-action_run-02_bold.nii.gz", "ses-action01/func/sub-03_ses-action01_task-action_run-10_bold.nii.gz", "ses-action01/func/sub-03_ses-action01_task-action_run-03_bold.nii.gz", "ses-action01/func/sub-03_ses-action01_task-action_run-11_bold.nii.gz", "ses-action01/func/sub-03_ses-action01_task-action_run-01_bold.nii.gz", "ses-action01/func/sub-03_ses-action01_task-action_run-07_bold.nii.gz", "ses-action01/func/sub-03_ses-action01_task-action_run-08_bold.nii.gz", "ses-action01/func/sub-03_ses-action01_task-action_run-05_bold.nii.gz"]}