{
  "AcquisitionMatrixPE": 100,
  "AcquisitionNumber": 1,
  "AcquisitionTime": "11:18:18.955000",
  "BandwidthPerPixelPhaseEncode": 18.519,
  "BaseResolution": 100,
  "BodyPartExamined": "BRAIN",
  "CoilCombinationMethod": "Sum of Squares",
  "ConsistencyInfo": "N4_VE11C_LATEST_20160120",
  "ConversionSoftware": "dcm2niix",
  "ConversionSoftwareVersion": "v1.0.20211006",
  "DerivedVendorReportedEchoSpacing": 0.000539986,
  "DeviceSerialNumber": "166078",
  "DwellTime": 2.1e-06,
  "EchoTime": 0.034,
  "EchoTrainLength": 100,
  "EffectiveEchoSpacing": 0.000539986,
  "FlipAngle": 90,
  "ImageOrientationPatientDICOM": [1, 0, 0, 0, 0.999507, 0.0314108],
  "ImageOrientationText": "Tra>Cor(1.8)",
  "ImageType": [
    "ORIGINAL",
    "PRIMARY",
    "M",
    "ND",
    "MOSAIC"
],
  "ImagingFrequency": 123.258,
  "InPlanePhaseEncodingDirectionDICOM": "COL",
  "InstitutionAddress": "Street StreetNo,Bei Jing,District,CN,ZIP",
  "InstitutionName": "BeiJing Normal University",
  "InstitutionalDepartmentName": "Department",
  "MRAcquisitionType": "2D",
  "MagneticFieldStrength": 3,
  "Manufacturer": "Siemens",
  "ManufacturersModelName": "Prisma",
  "Modality": "MR",
  "MultibandAccelerationFactor": 3,
  "PartialFourier": 1,
  "PatientPosition": "HFS",
  "PercentPhaseFOV": 100,
  "PercentSampling": 100,
  "PhaseEncodingDirection": "j-",
  "PhaseEncodingSteps": 100,
  "PhaseResolution": 1,
  "PixelBandwidth": 2380,
  "ProcedureStepDescription": "BNU_P2018_64CH^Zhen.ZongLei",
  "ProtocolName": "bold_100x100_s3_2x2x2_static_156",
  "PulseSequenceDetails": "%SiemensSeq%\\ep2d_bold",
  "ReceiveCoilActiveElements": "HC1-7;NC1",
  "ReceiveCoilName": "HeadNeck_64",
  "ReconMatrixPE": 100,
  "RefLinesPE": 32,
  "RepetitionTime": 2,
  "SAR": 0.0769418,
  "ScanOptions": "FS",
  "ScanningSequence": "EP",
  "SequenceName": "*epfid2d1_100",
  "SequenceVariant": "SK",
  "SeriesDescription": "bold_100x100_s3_2x2x2_static_156",
  "SeriesNumber": 12,
  "ShimSetting": [-5481, -11537, -1253, 118, -76, -310, -24, 7],
  "SliceThickness": 2,
  "SliceTiming": [1.485, 0, 0.99, 0.0825, 1.0725, 0.165, 1.155, 0.2475, 1.2375, 0.33, 1.32, 0.4125, 1.4025, 0.5775, 1.5675, 0.66, 1.65, 0.7425, 1.7325, 0.825, 1.815, 0.9075, 1.8975, 0.495, 1.485, 0, 0.99, 0.0825, 1.0725, 0.165, 1.155, 0.2475, 1.2375, 0.33, 1.32, 0.4125, 1.4025, 0.5775, 1.5675, 0.66, 1.65, 0.7425, 1.7325, 0.825, 1.815, 0.9075, 1.8975, 0.495, 1.485, 0, 0.99, 0.0825, 1.0725, 0.165, 1.155, 0.2475, 1.2375, 0.33, 1.32, 0.4125, 1.4025, 0.5775, 1.5675, 0.66, 1.65, 0.7425, 1.7325, 0.825, 1.815, 0.9075, 1.8975, 0.495],
  "SoftwareVersions": "syngo MR E11",
  "SpacingBetweenSlices": 2,
  "StationName": "AWP166078",
  "TaskName": "action",
  "TotalReadoutTime": 0.0534586,
  "TxRefAmp": 235.836,
  "dcmmeta_affine": [
    [-2.0, 0.0, 0.0, 100.0],
    [0.0, 1.999013066291809, 0.06282151490449905, -90.89851379394531],
    [0.0, -0.06282151490449905, 1.999013066291809, -62.28865051269531],
    [0.0, 0.0, 0.0, 1.0]
],
  "dcmmeta_reorient_transform": [
    [0.0, -1.0, 0.0, 99.0],
    [1.0, 0.0, 0.0, 0.0],
    [0.0, 0.0, 1.0, 0.0],
    [0.0, 0.0, 0.0, 1.0]
],
  "dcmmeta_shape": [100, 100, 72, 156],
  "dcmmeta_slice_dim": 2,
  "dcmmeta_version": 0.6,
  "global": {
    "const": {
      "AcquisitionMatrix": [100, 0, 0, 100],
      "AngioFlag": "N",
      "BitsAllocated": 16,
      "BitsStored": 12,
      "BodyPartExamined": "BRAIN",
      "Columns": 900,
      "EchoNumbers": 1,
      "EchoTime": 34.0,
      "EchoTrainLength": 100,
      "FlipAngle": 90.0,
      "HighBit": 11,
      "ImageOrientationPatient": [1.0, 0.0, 0.0, 0.0, 0.99950656036366, 0.03141075914411],
      "ImagePositionPatient": [-900.0, -906.60903352346, -93.636588442105],
      "ImageType": [
        "ORIGINAL",
        "PRIMARY",
        "M",
        "ND",
        "MOSAIC"
],
      "ImagedNucleus": "1H",
      "ImagingFrequency": 123.257665,
      "InPlanePhaseEncodingDirection": "COL",
      "MRAcquisitionType": "2D",
      "MagneticFieldStrength": 3.0,
      "Manufacturer": "SIEMENS",
      "ManufacturerModelName": "Prisma",
      "Modality": "MR",
      "NumberOfAverages": 1.0,
      "NumberOfPhaseEncodingSteps": 100,
      "PercentPhaseFieldOfView": 100.0,
      "PercentSampling": 100.0,
      "PerformedProcedureStepStartTime": "103104.889000",
      "PhotometricInterpretation": "MONOCHROME2",
      "PixelBandwidth": 2380.0,
      "PixelRepresentation": 0,
      "PixelSpacing": [2.0, 2.0],
      "ProtocolName": "bold_100x100_s3_2x2x2_static_156",
      "RepetitionTime": 2000.0,
      "Rows": 900,
      "SAR": 0.07694175689097,
      "SamplesPerPixel": 1,
      "ScanOptions": "FS",
      "ScanningSequence": "EP",
      "SequenceName": "*epfid2d1_100",
      "SequenceVariant": "SK",
      "SeriesDescription": "bold_100x100_s3_2x2x2_static_156",
      "SeriesNumber": 12,
      "SeriesTime": "111820.920000",
      "SliceLocation": -65.113106448072,
      "SliceThickness": 2.0,
      "SmallestImagePixelValue": 0,
      "SoftwareVersions": "syngo MR E11",
      "SpacingBetweenSlices": 2.0000000011055,
      "SpecificCharacterSet": "ISO_IR 100",
      "StudyID": "1",
      "StudyTime": "103104.850000",
      "TransmitCoilName": "Body",
      "VariableFlipAngleFlag": "N",
      "WindowCenterWidthExplanation": "Algo1",
      "dBdt": 0.0},
    "slices": {}
  },
  "time": {
    "samples": {
      "AcquisitionNumber": [1, 2, 3, 4, 5, 6, 7, 8, 9, 10, 11, 12, 13, 14, 15, 16, 17, 18, 19, 20, 21, 22, 23, 24, 25, 26, 27, 28, 29, 30, 31, 32, 33, 34, 35, 36, 37, 38, 39, 40, 41, 42, 43, 44, 45, 46, 47, 48, 49, 50, 51, 52, 53, 54, 55, 56, 57, 58, 59, 60, 61, 62, 63, 64, 65, 66, 67, 68, 69, 70, 71, 72, 73, 74, 75, 76, 77, 78, 79, 80, 81, 82, 83, 84, 85, 86, 87, 88, 89, 90, 91, 92, 93, 94, 95, 96, 97, 98, 99, 100, 101, 102, 103, 104, 105, 106, 107, 108, 109, 110, 111, 112, 113, 114, 115, 116, 117, 118, 119, 120, 121, 122, 123, 124, 125, 126, 127, 128, 129, 130, 131, 132, 133, 134, 135, 136, 137, 138, 139, 140, 141, 142, 143, 144, 145, 146, 147, 148, 149, 150, 151, 152, 153, 154, 155, 156],
      "AcquisitionTime": ["111818.955000", "111820.955000", "111822.955000", "111824.955000", "111826.955000", "111828.955000", "111830.955000", "111832.955000", "111834.955000", "111836.955000", "111838.955000", "111840.955000", "111842.955000", "111844.955000", "111846.955000", "111848.955000", "111850.955000", "111852.955000", "111854.955000", "111856.955000", "111858.955000", "111900.955000", "111902.955000", "111904.955000", "111906.955000", "111908.955000", "111910.955000", "111912.955000", "111914.955000", "111916.955000", "111918.955000", "111920.955000", "111922.955000", "111924.955000", "111926.955000", "111928.955000", "111930.955000", "111932.955000", "111934.955000", "111936.955000", "111938.955000", "111940.955000", "111942.955000", "111944.955000", "111946.955000", "111948.955000", "111950.955000", "111952.955000", "111954.955000", "111956.955000", "111958.955000", "112000.955000", "112002.955000", "112004.955000", "112006.955000", "112008.955000", "112010.955000", "112012.955000", "112014.955000", "112016.955000", "112018.955000", "112020.955000", "112022.955000", "112024.955000", "112026.955000", "112028.955000", "112030.955000", "112032.955000", "112034.955000", "112036.955000", "112038.955000", "112040.955000", "112042.955000", "112044.955000", "112046.955000", "112048.955000", "112050.955000", "112052.955000", "112054.955000", "112056.955000", "112058.955000", "112100.955000", "112102.955000", "112104.955000", "112106.955000", "112108.955000", "112110.955000", "112112.955000", "112114.955000", "112116.955000", "112118.955000", "112120.955000", "112122.955000", "112124.955000", "112126.955000", "112128.955000", "112130.955000", "112132.955000", "112134.955000", "112136.955000", "112138.955000", "112140.955000", "112142.955000", "112144.955000", "112146.955000", "112148.955000", "112150.955000", "112152.955000", "112154.955000", "112156.955000", "112158.955000", "112200.955000", "112202.955000", "112204.955000", "112206.955000", "112208.955000", "112210.955000", "112212.955000", "112214.955000", "112216.955000", "112218.955000", "112220.955000", "112222.955000", "112224.955000", "112226.955000", "112228.955000", "112230.955000", "112232.955000", "112234.955000", "112236.955000", "112238.955000", "112240.955000", "112242.955000", "112244.955000", "112246.955000", "112248.955000", "112250.955000", "112252.955000", "112254.955000", "112256.955000", "112258.955000", "112300.955000", "112302.955000", "112304.955000", "112306.955000", "112308.955000", "112310.955000", "112312.955000", "112314.955000", "112316.955000", "112318.955000", "112320.955000", "112322.955000", "112324.955000", "112326.955000", "112328.955000"],
      "ContentTime": ["111820.924000", "111822.420000", "111824.419000", "111826.419000", "111828.418000", "111830.419000", "111832.419000", "111834.419000", "111836.420000", "111838.419000", "111840.420000", "111842.419000", "111844.420000", "111846.418000", "111848.419000", "111850.419000", "111852.418000", "111854.419000", "111856.419000", "111858.419000", "111900.420000", "111902.419000", "111904.418000", "111906.419000", "111908.418000", "111910.919000", "111912.419000", "111914.419000", "111916.420000", "111918.419000", "111920.418000", "111922.418000", "111924.418000", "111926.418000", "111928.420000", "111930.919000", "111932.420000", "111934.419000", "111936.420000", "111938.418000", "111940.419000", "111942.418000", "111944.418000", "111946.419000", "111948.920000", "111950.419000", "111952.420000", "111954.420000", "111956.418000", "111958.419000", "112000.419000", "112002.418000", "112004.420000", "112006.419000", "112008.419000", "112010.420000", "112012.419000", "112014.418000", "112016.418000", "112018.419000", "112020.420000", "112022.419000", "112024.419000", "112026.420000", "112028.420000", "112030.418000", "112032.418000", "112034.418000", "112036.419000", "112038.420000", "112040.420000", "112042.419000", "112044.920000", "112046.420000", "112048.419000", "112050.418000", "112052.418000", "112054.418000", "112056.420000", "112058.420000", "112100.419000", "112102.419000", "112104.920000", "112106.418000", "112108.418000", "112110.418000", "112112.419000", "112114.419000", "112116.419000", "112118.420000", "112120.419000", "112122.919000", "112124.419000", "112126.419000", "112128.420000", "112130.920000", "112132.420000", "112134.419000", "112136.419000", "112138.419000", "112140.418000", "112142.418000", "112144.418000", "112146.419000", "112148.420000", "112150.420000", "112152.420000", "112154.419000", "112156.420000", "112158.419000", "112200.419000", "112202.418000", "112204.418000", "112206.419000", "112208.420000", "112210.419000", "112212.420000", "112214.419000", "112216.419000", "112218.419000", "112220.419000", "112222.419000", "112224.419000", "112226.419000", "112228.420000", "112230.419000", "112232.420000", "112234.419000", "112236.418000", "112238.419000", "112240.420000", "112242.419000", "112244.419000", "112246.420000", "112248.419000", "112250.419000", "112252.419000", "112254.419000", "112256.418000", "112258.420000", "112300.419000", "112302.420000", "112304.420000", "112306.420000", "112308.418000", "112310.419000", "112312.418000", "112314.919000", "112316.419000", "112318.420000", "112320.420000", "112322.420000", "112324.420000", "112326.918000", "112328.418000", "112330.392000"],
      "InstanceCreationTime": ["111820.924000", "111822.420000", "111824.419000", "111826.419000", "111828.418000", "111830.419000", "111832.419000", "111834.419000", "111836.420000", "111838.419000", "111840.420000", "111842.419000", "111844.420000", "111846.418000", "111848.419000", "111850.419000", "111852.418000", "111854.419000", "111856.419000", "111858.419000", "111900.420000", "111902.419000", "111904.418000", "111906.419000", "111908.418000", "111910.919000", "111912.419000", "111914.419000", "111916.420000", "111918.419000", "111920.418000", "111922.418000", "111924.418000", "111926.418000", "111928.420000", "111930.919000", "111932.420000", "111934.419000", "111936.420000", "111938.418000", "111940.419000", "111942.418000", "111944.418000", "111946.419000", "111948.920000", "111950.419000", "111952.420000", "111954.420000", "111956.418000", "111958.419000", "112000.419000", "112002.418000", "112004.420000", "112006.419000", "112008.419000", "112010.420000", "112012.419000", "112014.418000", "112016.418000", "112018.419000", "112020.420000", "112022.419000", "112024.419000", "112026.420000", "112028.420000", "112030.418000", "112032.418000", "112034.418000", "112036.419000", "112038.420000", "112040.420000", "112042.419000", "112044.920000", "112046.420000", "112048.419000", "112050.418000", "112052.418000", "112054.418000", "112056.420000", "112058.420000", "112100.419000", "112102.419000", "112104.920000", "112106.418000", "112108.418000", "112110.418000", "112112.419000", "112114.419000", "112116.419000", "112118.420000", "112120.419000", "112122.919000", "112124.419000", "112126.419000", "112128.420000", "112130.920000", "112132.420000", "112134.419000", "112136.419000", "112138.419000", "112140.418000", "112142.418000", "112144.418000", "112146.419000", "112148.420000", "112150.420000", "112152.420000", "112154.419000", "112156.420000", "112158.419000", "112200.419000", "112202.418000", "112204.418000", "112206.419000", "112208.420000", "112210.419000", "112212.420000", "112214.419000", "112216.419000", "112218.419000", "112220.419000", "112222.419000", "112224.419000", "112226.419000", "112228.420000", "112230.419000", "112232.420000", "112234.419000", "112236.418000", "112238.419000", "112240.420000", "112242.419000", "112244.419000", "112246.420000", "112248.419000", "112250.419000", "112252.419000", "112254.419000", "112256.418000", "112258.420000", "112300.419000", "112302.420000", "112304.420000", "112306.420000", "112308.418000", "112310.419000", "112312.418000", "112314.919000", "112316.419000", "112318.420000", "112320.420000", "112322.420000", "112324.420000", "112326.918000", "112328.418000", "112330.392000"],
      "InstanceNumber": [1, 2, 3, 4, 5, 6, 7, 8, 9, 10, 11, 12, 13, 14, 15, 16, 17, 18, 19, 20, 21, 22, 23, 24, 25, 26, 27, 28, 29, 30, 31, 32, 33, 34, 35, 36, 37, 38, 39, 40, 41, 42, 43, 44, 45, 46, 47, 48, 49, 50, 51, 52, 53, 54, 55, 56, 57, 58, 59, 60, 61, 62, 63, 64, 65, 66, 67, 68, 69, 70, 71, 72, 73, 74, 75, 76, 77, 78, 79, 80, 81, 82, 83, 84, 85, 86, 87, 88, 89, 90, 91, 92, 93, 94, 95, 96, 97, 98, 99, 100, 101, 102, 103, 104, 105, 106, 107, 108, 109, 110, 111, 112, 113, 114, 115, 116, 117, 118, 119, 120, 121, 122, 123, 124, 125, 126, 127, 128, 129, 130, 131, 132, 133, 134, 135, 136, 137, 138, 139, 140, 141, 142, 143, 144, 145, 146, 147, 148, 149, 150, 151, 152, 153, 154, 155, 156],
      "LargestImagePixelValue": [2890, 2790, 2751, 2727, 2718, 2754, 2722, 2736, 2735, 2743, 2753, 2779, 2762, 2750, 2752, 2754, 2720, 2753, 2759, 2743, 2735, 2716, 2747, 2722, 2716, 2725, 2744, 2736, 2730, 2751, 2737, 2740, 2734, 2757, 2727, 2724, 2736, 2775, 2757, 2697, 2742, 2741, 2721, 2715, 2726, 2762, 2740, 2736, 2736, 2763, 2744, 2742, 2754, 2766, 2728, 2705, 2760, 2725, 2740, 2723, 2757, 2754, 2712, 2764, 2773, 2757, 2750, 2750, 2757, 2749, 2712, 2721, 2752, 2742, 2713, 2749, 2731, 2729, 2737, 2735, 2764, 2755, 2736, 2749, 2724, 2749, 2718, 2750, 2725, 2754, 2745, 2759, 2740, 2754, 2712, 2755, 2725, 2738, 2740, 2732, 2712, 2770, 2746, 2739, 2763, 2758, 2722, 2741, 2733, 2771, 2766, 2750, 2768, 2744, 2752, 2746, 2719, 2745, 2741, 2733, 2755, 2718, 2745, 2773, 2730, 2776, 2756, 2764, 2749, 2757, 2736, 2756, 2729, 2763, 2761, 2752, 2749, 2739, 2776, 2781, 2762, 2736, 2724, 2749, 2737, 2738, 2764, 2728, 2756, 2770, 2755, 2733, 2775, 2756, 2792, 2735],
      "WindowCenter": [777.0, 773.0, 771.0, 770.0, 770.0, 769.0, 769.0, 770.0, 771.0, 771.0, 772.0, 772.0, 772.0, 771.0, 771.0, 770.0, 770.0, 771.0, 771.0, 771.0, 771.0, 770.0, 770.0, 770.0, 770.0, 770.0, 771.0, 772.0, 771.0, 771.0, 771.0, 771.0, 771.0, 771.0, 771.0, 771.0, 772.0, 773.0, 772.0, 771.0, 772.0, 772.0, 771.0, 771.0, 771.0, 772.0, 772.0, 772.0, 772.0, 772.0, 771.0, 770.0, 770.0, 769.0, 768.0, 769.0, 770.0, 770.0, 770.0, 771.0, 773.0, 772.0, 771.0, 771.0, 771.0, 771.0, 770.0, 770.0, 771.0, 770.0, 770.0, 770.0, 770.0, 769.0, 769.0, 770.0, 770.0, 771.0, 772.0, 771.0, 772.0, 771.0, 771.0, 772.0, 772.0, 771.0, 769.0, 768.0, 768.0, 769.0, 769.0, 769.0, 769.0, 769.0, 769.0, 771.0, 771.0, 771.0, 771.0, 770.0, 771.0, 772.0, 771.0, 771.0, 771.0, 771.0, 771.0, 770.0, 770.0, 771.0, 771.0, 771.0, 770.0, 770.0, 770.0, 771.0, 772.0, 772.0, 772.0, 771.0, 770.0, 769.0, 769.0, 770.0, 769.0, 770.0, 769.0, 769.0, 770.0, 771.0, 769.0, 769.0, 769.0, 771.0, 772.0, 773.0, 773.0, 772.0, 772.0, 771.0, 771.0, 770.0, 770.0, 770.0, 771.0, 771.0, 771.0, 771.0, 772.0, 772.0, 771.0, 770.0, 770.0, 770.0, 770.0, 770.0],
      "WindowWidth": [1652.0, 1642.0, 1637.0, 1634.0, 1633.0, 1632.0, 1633.0, 1634.0, 1636.0, 1637.0, 1639.0, 1639.0, 1640.0, 1638.0, 1636.0, 1635.0, 1635.0, 1638.0, 1637.0, 1636.0, 1636.0, 1635.0, 1635.0, 1635.0, 1635.0, 1634.0, 1637.0, 1638.0, 1638.0, 1637.0, 1636.0, 1638.0, 1637.0, 1636.0, 1636.0, 1637.0, 1640.0, 1641.0, 1640.0, 1636.0, 1638.0, 1638.0, 1637.0, 1637.0, 1637.0, 1639.0, 1640.0, 1640.0, 1639.0, 1639.0, 1638.0, 1634.0, 1634.0, 1631.0, 1629.0, 1631.0, 1635.0, 1636.0, 1636.0, 1636.0, 1641.0, 1639.0, 1636.0, 1637.0, 1637.0, 1637.0, 1635.0, 1635.0, 1636.0, 1635.0, 1633.0, 1633.0, 1634.0, 1632.0, 1632.0, 1634.0, 1635.0, 1636.0, 1639.0, 1638.0, 1638.0, 1636.0, 1636.0, 1639.0, 1638.0, 1636.0, 1632.0, 1630.0, 1629.0, 1632.0, 1631.0, 1631.0, 1631.0, 1633.0, 1633.0, 1636.0, 1637.0, 1637.0, 1636.0, 1635.0, 1636.0, 1639.0, 1636.0, 1636.0, 1637.0, 1636.0, 1636.0, 1635.0, 1635.0, 1636.0, 1637.0, 1637.0, 1635.0, 1634.0, 1634.0, 1637.0, 1640.0, 1640.0, 1638.0, 1635.0, 1634.0, 1632.0, 1632.0, 1633.0, 1631.0, 1633.0, 1631.0, 1633.0, 1635.0, 1636.0, 1631.0, 1631.0, 1632.0, 1636.0, 1640.0, 1641.0, 1641.0, 1640.0, 1640.0, 1637.0, 1636.0, 1634.0, 1634.0, 1634.0, 1636.0, 1637.0, 1637.0, 1636.0, 1638.0, 1638.0, 1636.0, 1634.0, 1635.0, 1634.0, 1635.0, 1633.0]
    },
    "slices": {}
  }
}