{
  "AcquisitionMatrixPE": 100,
  "AcquisitionNumber": 1,
  "AcquisitionTime": "11:30:2.447500",
  "BandwidthPerPixelPhaseEncode": 18.519,
  "BaseResolution": 100,
  "BodyPartExamined": "BRAIN",
  "CoilCombinationMethod": "Sum of Squares",
  "ConsistencyInfo": "N4_VE11C_LATEST_20160120",
  "ConversionSoftware": "dcm2niix",
  "ConversionSoftwareVersion": "v1.0.20211006",
  "DerivedVendorReportedEchoSpacing": 0.000539986,
  "DeviceSerialNumber": "166078",
  "DwellTime": 2.1e-06,
  "EchoTime": 0.034,
  "EchoTrainLength": 100,
  "EffectiveEchoSpacing": 0.000539986,
  "FlipAngle": 90,
  "ImageOrientationPatientDICOM": [1, 0, 0, 0, 0.999507, 0.0314108],
  "ImageOrientationText": "Tra>Cor(1.8)",
  "ImageType": [
    "ORIGINAL",
    "PRIMARY",
    "M",
    "ND",
    "MOSAIC"
],
  "ImagingFrequency": 123.258,
  "InPlanePhaseEncodingDirectionDICOM": "COL",
  "InstitutionAddress": "Street StreetNo,Bei Jing,District,CN,ZIP",
  "InstitutionName": "BeiJing Normal University",
  "InstitutionalDepartmentName": "Department",
  "MRAcquisitionType": "2D",
  "MagneticFieldStrength": 3,
  "Manufacturer": "Siemens",
  "ManufacturersModelName": "Prisma",
  "Modality": "MR",
  "MultibandAccelerationFactor": 3,
  "PartialFourier": 1,
  "PatientPosition": "HFS",
  "PercentPhaseFOV": 100,
  "PercentSampling": 100,
  "PhaseEncodingDirection": "j-",
  "PhaseEncodingSteps": 100,
  "PhaseResolution": 1,
  "PixelBandwidth": 2380,
  "ProcedureStepDescription": "BNU_P2018_64CH^Zhen.ZongLei",
  "ProtocolName": "bold_100x100_s3_2x2x2_static_156",
  "PulseSequenceDetails": "%SiemensSeq%\\ep2d_bold",
  "ReceiveCoilActiveElements": "HC1-7;NC1",
  "ReceiveCoilName": "HeadNeck_64",
  "ReconMatrixPE": 100,
  "RefLinesPE": 32,
  "RepetitionTime": 2,
  "SAR": 0.0769418,
  "ScanOptions": "FS",
  "ScanningSequence": "EP",
  "SequenceName": "*epfid2d1_100",
  "SequenceVariant": "SK",
  "SeriesDescription": "bold_100x100_s3_2x2x2_static_156",
  "SeriesNumber": 14,
  "ShimSetting": [-5481, -11537, -1253, 118, -76, -310, -24, 7],
  "SliceThickness": 2,
  "SliceTiming": [1.485, 0, 0.99, 0.0825, 1.0725, 0.165, 1.155, 0.2475, 1.2375, 0.33, 1.32, 0.4125, 1.4025, 0.5775, 1.5675, 0.66, 1.65, 0.7425, 1.7325, 0.825, 1.815, 0.9075, 1.8975, 0.495, 1.485, 0, 0.99, 0.0825, 1.0725, 0.165, 1.155, 0.2475, 1.2375, 0.33, 1.32, 0.4125, 1.4025, 0.5775, 1.5675, 0.66, 1.65, 0.7425, 1.7325, 0.825, 1.815, 0.9075, 1.8975, 0.495, 1.485, 0, 0.99, 0.0825, 1.0725, 0.165, 1.155, 0.2475, 1.2375, 0.33, 1.32, 0.4125, 1.4025, 0.5775, 1.5675, 0.66, 1.65, 0.7425, 1.7325, 0.825, 1.815, 0.9075, 1.8975, 0.495],
  "SoftwareVersions": "syngo MR E11",
  "SpacingBetweenSlices": 2,
  "StationName": "AWP166078",
  "TaskName": "action",
  "TotalReadoutTime": 0.0534586,
  "TxRefAmp": 235.836,
  "dcmmeta_affine": [
    [-2.0, 0.0, 0.0, 100.0],
    [0.0, 1.999013066291809, 0.06282151490449905, -90.89851379394531],
    [0.0, -0.06282151490449905, 1.999013066291809, -62.28865051269531],
    [0.0, 0.0, 0.0, 1.0]
],
  "dcmmeta_reorient_transform": [
    [0.0, -1.0, 0.0, 99.0],
    [1.0, 0.0, 0.0, 0.0],
    [0.0, 0.0, 1.0, 0.0],
    [0.0, 0.0, 0.0, 1.0]
],
  "dcmmeta_shape": [100, 100, 72, 156],
  "dcmmeta_slice_dim": 2,
  "dcmmeta_version": 0.6,
  "global": {
    "const": {
      "AcquisitionMatrix": [100, 0, 0, 100],
      "AngioFlag": "N",
      "BitsAllocated": 16,
      "BitsStored": 12,
      "BodyPartExamined": "BRAIN",
      "Columns": 900,
      "EchoNumbers": 1,
      "EchoTime": 34.0,
      "EchoTrainLength": 100,
      "FlipAngle": 90.0,
      "HighBit": 11,
      "ImageOrientationPatient": [1.0, 0.0, 0.0, 0.0, 0.99950656036366, 0.03141075914411],
      "ImagePositionPatient": [-900.0, -906.60903352346, -93.636588442105],
      "ImageType": [
        "ORIGINAL",
        "PRIMARY",
        "M",
        "ND",
        "MOSAIC"
],
      "ImagedNucleus": "1H",
      "ImagingFrequency": 123.25767,
      "InPlanePhaseEncodingDirection": "COL",
      "MRAcquisitionType": "2D",
      "MagneticFieldStrength": 3.0,
      "Manufacturer": "SIEMENS",
      "ManufacturerModelName": "Prisma",
      "Modality": "MR",
      "NumberOfAverages": 1.0,
      "NumberOfPhaseEncodingSteps": 100,
      "PercentPhaseFieldOfView": 100.0,
      "PercentSampling": 100.0,
      "PerformedProcedureStepStartTime": "103104.889000",
      "PhotometricInterpretation": "MONOCHROME2",
      "PixelBandwidth": 2380.0,
      "PixelRepresentation": 0,
      "PixelSpacing": [2.0, 2.0],
      "ProtocolName": "bold_100x100_s3_2x2x2_static_156",
      "RepetitionTime": 2000.0,
      "Rows": 900,
      "SAR": 0.07694175689097,
      "SamplesPerPixel": 1,
      "ScanOptions": "FS",
      "ScanningSequence": "EP",
      "SequenceName": "*epfid2d1_100",
      "SequenceVariant": "SK",
      "SeriesDescription": "bold_100x100_s3_2x2x2_static_156",
      "SeriesNumber": 14,
      "SeriesTime": "113004.918000",
      "SliceLocation": -65.113106448072,
      "SliceThickness": 2.0,
      "SmallestImagePixelValue": 0,
      "SoftwareVersions": "syngo MR E11",
      "SpacingBetweenSlices": 2.0000000011055,
      "SpecificCharacterSet": "ISO_IR 100",
      "StudyID": "1",
      "StudyTime": "103104.850000",
      "TransmitCoilName": "Body",
      "VariableFlipAngleFlag": "N",
      "WindowCenterWidthExplanation": "Algo1",
      "dBdt": 0.0},
    "slices": {}
  },
  "time": {
    "samples": {
      "AcquisitionNumber": [1, 2, 3, 4, 5, 6, 7, 8, 9, 10, 11, 12, 13, 14, 15, 16, 17, 18, 19, 20, 21, 22, 23, 24, 25, 26, 27, 28, 29, 30, 31, 32, 33, 34, 35, 36, 37, 38, 39, 40, 41, 42, 43, 44, 45, 46, 47, 48, 49, 50, 51, 52, 53, 54, 55, 56, 57, 58, 59, 60, 61, 62, 63, 64, 65, 66, 67, 68, 69, 70, 71, 72, 73, 74, 75, 76, 77, 78, 79, 80, 81, 82, 83, 84, 85, 86, 87, 88, 89, 90, 91, 92, 93, 94, 95, 96, 97, 98, 99, 100, 101, 102, 103, 104, 105, 106, 107, 108, 109, 110, 111, 112, 113, 114, 115, 116, 117, 118, 119, 120, 121, 122, 123, 124, 125, 126, 127, 128, 129, 130, 131, 132, 133, 134, 135, 136, 137, 138, 139, 140, 141, 142, 143, 144, 145, 146, 147, 148, 149, 150, 151, 152, 153, 154, 155, 156],
      "AcquisitionTime": ["113002.447500", "113004.447500", "113006.447500", "113008.447500", "113010.447500", "113012.447500", "113014.447500", "113016.447500", "113018.447500", "113020.447500", "113022.447500", "113024.447500", "113026.447500", "113028.447500", "113030.447500", "113032.447500", "113034.447500", "113036.447500", "113038.447500", "113040.447500", "113042.447500", "113044.447500", "113046.447500", "113048.447500", "113050.447500", "113052.447500", "113054.447500", "113056.447500", "113058.447500", "113100.447500", "113102.447500", "113104.447500", "113106.447500", "113108.447500", "113110.447500", "113112.447500", "113114.447500", "113116.447500", "113118.447500", "113120.447500", "113122.447500", "113124.447500", "113126.447500", "113128.447500", "113130.447500", "113132.447500", "113134.447500", "113136.447500", "113138.447500", "113140.447500", "113142.447500", "113144.447500", "113146.447500", "113148.447500", "113150.447500", "113152.447500", "113154.447500", "113156.447500", "113158.447500", "113200.447500", "113202.447500", "113204.447500", "113206.447500", "113208.447500", "113210.447500", "113212.447500", "113214.447500", "113216.447500", "113218.447500", "113220.447500", "113222.447500", "113224.447500", "113226.447500", "113228.447500", "113230.447500", "113232.447500", "113234.447500", "113236.447500", "113238.447500", "113240.447500", "113242.447500", "113244.447500", "113246.447500", "113248.447500", "113250.447500", "113252.447500", "113254.447500", "113256.447500", "113258.447500", "113300.447500", "113302.447500", "113304.447500", "113306.447500", "113308.447500", "113310.447500", "113312.447500", "113314.447500", "113316.447500", "113318.447500", "113320.447500", "113322.447500", "113324.447500", "113326.447500", "113328.447500", "113330.447500", "113332.447500", "113334.447500", "113336.447500", "113338.447500", "113340.447500", "113342.447500", "113344.447500", "113346.447500", "113348.447500", "113350.447500", "113352.447500", "113354.447500", "113356.447500", "113358.447500", "113400.447500", "113402.447500", "113404.447500", "113406.447500", "113408.447500", "113410.447500", "113412.447500", "113414.447500", "113416.447500", "113418.447500", "113420.447500", "113422.447500", "113424.447500", "113426.447500", "113428.447500", "113430.447500", "113432.447500", "113434.447500", "113436.447500", "113438.447500", "113440.447500", "113442.447500", "113444.447500", "113446.447500", "113448.447500", "113450.447500", "113452.447500", "113454.447500", "113456.447500", "113458.447500", "113500.447500", "113502.447500", "113504.447500", "113506.447500", "113508.447500", "113510.447500", "113512.447500"],
      "ContentTime": ["113004.922000", "113006.417000", "113008.417000", "113010.417000", "113012.417000", "113014.418000", "113016.418000", "113018.418000", "113020.917000", "113022.417000", "113024.417000", "113026.418000", "113028.417000", "113030.417000", "113032.418000", "113034.418000", "113036.418000", "113038.417000", "113040.417000", "113042.418000", "113044.417000", "113046.417000", "113048.417000", "113050.418000", "113052.418000", "113054.418000", "113056.417000", "113058.418000", "113100.417000", "113102.417000", "113104.417000", "113106.418000", "113108.419000", "113110.418000", "113112.418000", "113114.418000", "113116.417000", "113118.418000", "113120.417000", "113122.418000", "113124.417000", "113126.418000", "113128.418000", "113130.917000", "113132.418000", "113134.417000", "113136.418000", "113138.418000", "113140.417000", "113142.419000", "113144.419000", "113146.417000", "113148.417000", "113150.417000", "113152.417000", "113154.417000", "113156.418000", "113158.417000", "113200.419000", "113202.417000", "113204.417000", "113206.418000", "113208.917000", "113210.417000", "113212.418000", "113214.418000", "113216.417000", "113218.419000", "113220.417000", "113222.417000", "113224.417000", "113226.417000", "113228.418000", "113230.417000", "113232.417000", "113234.418000", "113236.418000", "113238.418000", "113240.418000", "113242.418000", "113244.417000", "113246.418000", "113248.418000", "113250.418000", "113252.418000", "113254.419000", "113256.417000", "113258.417000", "113300.417000", "113302.417000", "113304.417000", "113306.417000", "113308.417000", "113310.418000", "113312.418000", "113314.417000", "113316.417000", "113318.418000", "113320.417000", "113322.417000", "113324.417000", "113326.418000", "113328.418000", "113330.418000", "113332.417000", "113334.418000", "113336.918000", "113338.418000", "113340.418000", "113342.417000", "113344.418000", "113346.419000", "113348.418000", "113350.418000", "113352.418000", "113354.417000", "113356.417000", "113358.418000", "113400.918000", "113402.418000", "113404.418000", "113406.417000", "113408.418000", "113410.417000", "113412.417000", "113414.418000", "113416.417000", "113418.418000", "113420.419000", "113422.417000", "113424.417000", "113426.418000", "113428.432000", "113430.418000", "113432.417000", "113434.418000", "113436.417000", "113438.419000", "113440.417000", "113442.418000", "113444.918000", "113446.417000", "113448.418000", "113450.417000", "113452.418000", "113454.919000", "113456.919000", "113458.417000", "113500.417000", "113502.417000", "113504.418000", "113506.417000", "113508.418000", "113510.417000", "113512.418000", "113514.312000"],
      "InstanceCreationTime": ["113004.922000", "113006.417000", "113008.417000", "113010.417000", "113012.417000", "113014.418000", "113016.418000", "113018.418000", "113020.917000", "113022.417000", "113024.417000", "113026.418000", "113028.417000", "113030.417000", "113032.418000", "113034.418000", "113036.418000", "113038.417000", "113040.417000", "113042.418000", "113044.417000", "113046.417000", "113048.417000", "113050.418000", "113052.418000", "113054.418000", "113056.417000", "113058.418000", "113100.417000", "113102.417000", "113104.417000", "113106.418000", "113108.419000", "113110.418000", "113112.418000", "113114.418000", "113116.417000", "113118.418000", "113120.417000", "113122.418000", "113124.417000", "113126.418000", "113128.418000", "113130.917000", "113132.418000", "113134.417000", "113136.418000", "113138.418000", "113140.417000", "113142.419000", "113144.419000", "113146.417000", "113148.417000", "113150.417000", "113152.417000", "113154.417000", "113156.418000", "113158.417000", "113200.419000", "113202.417000", "113204.417000", "113206.418000", "113208.917000", "113210.417000", "113212.418000", "113214.418000", "113216.417000", "113218.419000", "113220.417000", "113222.417000", "113224.417000", "113226.417000", "113228.418000", "113230.417000", "113232.417000", "113234.418000", "113236.418000", "113238.418000", "113240.418000", "113242.418000", "113244.417000", "113246.418000", "113248.418000", "113250.418000", "113252.418000", "113254.419000", "113256.417000", "113258.417000", "113300.417000", "113302.417000", "113304.417000", "113306.417000", "113308.417000", "113310.418000", "113312.418000", "113314.417000", "113316.417000", "113318.418000", "113320.417000", "113322.417000", "113324.417000", "113326.418000", "113328.418000", "113330.418000", "113332.417000", "113334.418000", "113336.918000", "113338.418000", "113340.418000", "113342.417000", "113344.418000", "113346.419000", "113348.418000", "113350.418000", "113352.418000", "113354.417000", "113356.417000", "113358.418000", "113400.918000", "113402.418000", "113404.418000", "113406.417000", "113408.418000", "113410.417000", "113412.417000", "113414.418000", "113416.417000", "113418.418000", "113420.419000", "113422.417000", "113424.417000", "113426.418000", "113428.432000", "113430.418000", "113432.417000", "113434.418000", "113436.417000", "113438.419000", "113440.417000", "113442.418000", "113444.918000", "113446.417000", "113448.418000", "113450.417000", "113452.418000", "113454.919000", "113456.919000", "113458.417000", "113500.417000", "113502.417000", "113504.418000", "113506.417000", "113508.418000", "113510.417000", "113512.418000", "113514.312000"],
      "InstanceNumber": [1, 2, 3, 4, 5, 6, 7, 8, 9, 10, 11, 12, 13, 14, 15, 16, 17, 18, 19, 20, 21, 22, 23, 24, 25, 26, 27, 28, 29, 30, 31, 32, 33, 34, 35, 36, 37, 38, 39, 40, 41, 42, 43, 44, 45, 46, 47, 48, 49, 50, 51, 52, 53, 54, 55, 56, 57, 58, 59, 60, 61, 62, 63, 64, 65, 66, 67, 68, 69, 70, 71, 72, 73, 74, 75, 76, 77, 78, 79, 80, 81, 82, 83, 84, 85, 86, 87, 88, 89, 90, 91, 92, 93, 94, 95, 96, 97, 98, 99, 100, 101, 102, 103, 104, 105, 106, 107, 108, 109, 110, 111, 112, 113, 114, 115, 116, 117, 118, 119, 120, 121, 122, 123, 124, 125, 126, 127, 128, 129, 130, 131, 132, 133, 134, 135, 136, 137, 138, 139, 140, 141, 142, 143, 144, 145, 146, 147, 148, 149, 150, 151, 152, 153, 154, 155, 156],
      "LargestImagePixelValue": [2883, 2826, 2858, 2831, 2826, 2789, 2832, 2832, 2815, 2812, 2844, 2866, 2858, 2840, 2834, 2846, 2823, 2843, 2813, 2842, 2834, 2855, 2819, 2852, 2817, 2837, 2818, 2822, 2850, 2816, 2852, 2837, 2836, 2841, 2813, 2845, 2800, 2828, 2842, 2823, 2820, 2832, 2809, 2832, 2808, 2840, 2813, 2799, 2848, 2837, 2830, 2846, 2827, 2841, 2828, 2818, 2861, 2808, 2837, 2847, 2828, 2862, 2817, 2828, 2844, 2836, 2820, 2832, 2831, 2827, 2837, 2829, 2811, 2852, 2825, 2838, 2856, 2828, 2850, 2831, 2817, 2850, 2816, 2838, 2832, 2825, 2813, 2841, 2836, 2821, 2815, 2828, 2850, 2816, 2828, 2846, 2854, 2836, 2863, 2822, 2821, 2834, 2841, 2863, 2833, 2817, 2841, 2813, 2838, 2831, 2802, 2817, 2837, 2844, 2829, 2837, 2832, 2826, 2820, 2824, 2842, 2832, 2822, 2848, 2836, 2833, 2810, 2829, 2821, 2825, 2816, 2835, 2812, 2842, 2805, 2818, 2797, 2810, 2826, 2834, 2835, 2831, 2809, 2826, 2840, 2814, 2826, 2828, 2835, 2820, 2839, 2848, 2858, 2823, 2832, 2833],
      "WindowCenter": [773.0, 771.0, 771.0, 771.0, 770.0, 771.0, 772.0, 772.0, 771.0, 771.0, 770.0, 771.0, 771.0, 771.0, 772.0, 771.0, 771.0, 771.0, 770.0, 770.0, 771.0, 771.0, 771.0, 772.0, 772.0, 771.0, 770.0, 769.0, 770.0, 770.0, 771.0, 771.0, 771.0, 770.0, 770.0, 770.0, 770.0, 770.0, 770.0, 770.0, 770.0, 771.0, 770.0, 770.0, 770.0, 771.0, 772.0, 771.0, 771.0, 770.0, 770.0, 770.0, 770.0, 770.0, 769.0, 770.0, 770.0, 770.0, 771.0, 771.0, 770.0, 770.0, 770.0, 770.0, 771.0, 771.0, 771.0, 771.0, 771.0, 772.0, 772.0, 771.0, 772.0, 772.0, 771.0, 771.0, 771.0, 770.0, 770.0, 769.0, 769.0, 770.0, 770.0, 770.0, 770.0, 771.0, 772.0, 774.0, 773.0, 771.0, 769.0, 769.0, 769.0, 768.0, 768.0, 770.0, 771.0, 771.0, 770.0, 770.0, 770.0, 771.0, 771.0, 771.0, 770.0, 771.0, 772.0, 771.0, 771.0, 771.0, 770.0, 771.0, 772.0, 771.0, 768.0, 768.0, 768.0, 769.0, 769.0, 769.0, 769.0, 770.0, 770.0, 770.0, 770.0, 771.0, 771.0, 772.0, 773.0, 772.0, 771.0, 772.0, 772.0, 771.0, 770.0, 769.0, 769.0, 769.0, 769.0, 770.0, 772.0, 772.0, 770.0, 770.0, 770.0, 770.0, 771.0, 770.0, 770.0, 771.0, 771.0, 771.0, 771.0, 770.0, 771.0, 771.0],
      "WindowWidth": [1641.0, 1636.0, 1635.0, 1634.0, 1634.0, 1634.0, 1637.0, 1637.0, 1636.0, 1635.0, 1634.0, 1635.0, 1636.0, 1636.0, 1637.0, 1637.0, 1636.0, 1637.0, 1632.0, 1633.0, 1636.0, 1636.0, 1635.0, 1637.0, 1639.0, 1636.0, 1632.0, 1631.0, 1633.0, 1634.0, 1635.0, 1635.0, 1635.0, 1634.0, 1633.0, 1634.0, 1633.0, 1633.0, 1634.0, 1633.0, 1634.0, 1635.0, 1633.0, 1632.0, 1633.0, 1635.0, 1638.0, 1637.0, 1636.0, 1634.0, 1634.0, 1634.0, 1634.0, 1634.0, 1632.0, 1633.0, 1635.0, 1635.0, 1637.0, 1636.0, 1635.0, 1635.0, 1634.0, 1635.0, 1637.0, 1637.0, 1635.0, 1635.0, 1635.0, 1638.0, 1639.0, 1638.0, 1638.0, 1639.0, 1637.0, 1637.0, 1637.0, 1635.0, 1632.0, 1632.0, 1632.0, 1634.0, 1634.0, 1634.0, 1635.0, 1636.0, 1640.0, 1643.0, 1641.0, 1636.0, 1632.0, 1630.0, 1631.0, 1630.0, 1630.0, 1633.0, 1635.0, 1635.0, 1635.0, 1633.0, 1634.0, 1637.0, 1636.0, 1635.0, 1635.0, 1637.0, 1639.0, 1637.0, 1636.0, 1635.0, 1635.0, 1638.0, 1639.0, 1635.0, 1629.0, 1627.0, 1630.0, 1630.0, 1630.0, 1631.0, 1632.0, 1633.0, 1633.0, 1633.0, 1635.0, 1635.0, 1635.0, 1639.0, 1640.0, 1639.0, 1637.0, 1637.0, 1638.0, 1637.0, 1633.0, 1632.0, 1631.0, 1632.0, 1631.0, 1633.0, 1638.0, 1638.0, 1634.0, 1634.0, 1634.0, 1634.0, 1636.0, 1634.0, 1635.0, 1636.0, 1637.0, 1635.0, 1635.0, 1634.0, 1635.0, 1636.0]
    },
    "slices": {}
  }
}