{"AcquisitionMatrixPE": 100, "AcquisitionNumber": 1, "AcquisitionTime": "13:38:42.982500", "BaseResolution": 100, "BodyPartExamined": "BRAIN", "CoilCombinationMethod": "Sum of Squares", "ConsistencyInfo": "N4_VE11C_LATEST_20160120", "ConversionSoftware": "dcm2niix", "ConversionSoftwareVersion": "v1.0.20211006", "DeviceSerialNumber": "166078", "DwellTime": 8.8e-06, "EchoNumber": 2, "EchoTime": 0.00738, "EchoTime1": 0.00492, "EchoTime2": 0.00738, "FlipAngle": 60, "ImageOrientationPatientDICOM": [1, 4.813e-12, -9.01e-13, -4.897e-12, 0.982935, -0.183951], "ImageOrientationText": "Tra>Cor(-10.6)", "ImageType": ["ORIGINAL", "PRIMARY", "P", "ND", "PHASE"], "ImagingFrequency": 123.258, "InPlanePhaseEncodingDirectionDICOM": "ROW", "InstitutionAddress": "Street StreetNo,Bei Jing,District,CN,ZIP", "InstitutionName": "BeiJing Normal University", "InstitutionalDepartmentName": "Department", "MRAcquisitionType": "2D", "MagneticFieldStrength": 3, "Manufacturer": "Siemens", "ManufacturersModelName": "Prisma", "MatrixCoilMode": "SENSE", "Modality": "MR", "PartialFourier": 1, "PatientPosition": "HFS", "PercentPhaseFOV": 100, "PercentSampling": 100, "PhaseEncodingDirection": "i", "PhaseEncodingSteps": 100, "PhaseResolution": 1, "PixelBandwidth": 570, "ProcedureStepDescription": "BNU_P2018_64CH^Zhen.ZongLei", "ProtocolName": "field_mapping_2x2x2", "PulseSequenceDetails": "%SiemensSeq%\\gre_field_mapping", "ReceiveCoilActiveElements": "HC1-7;NC1", "ReceiveCoilName": "HeadNeck_64", "ReconMatrixPE": 100, "RepetitionTime": 0.72, "SAR": 0.118115, "ScanningSequence": "GR", "SequenceName": "*fm2d2r", "SequenceVariant": "SP", "SeriesDescription": "field_mapping_2x2x2", "SeriesNumber": 10, "ShimSetting": [-5463, -11523, -1210, 272, -54, -382, -114, 33], "SliceThickness": 2, "SliceTiming": [0.35938, 0, 0.375, 0, 0.375, 0.01562, 0.39062, 0.03125, 0.39062, 0.03125, 0.40625, 0.04688, 0.42188, 0.0625, 0.42188, 0.0625, 0.4375, 0.07812, 0.45312, 0.09375, 0.45312, 0.09375, 0.46875, 0.10938, 0.48438, 0.125, 0.48438, 0.125, 0.5, 0.14062, 0.5, 0.14062, 0.51562, 0.15625, 0.53125, 0.17188, 0.53125, 0.17188, 0.54688, 0.1875, 0.5625, 0.20312, 0.5625, 0.20312, 0.57812, 0.21875, 0.59375, 0.23438, 0.59375, 0.23438, 0.60938, 0.25, 0.625, 0.25, 0.625, 0.26562, 0.64062, 0.28125, 0.64062, 0.28125, 0.65625, 0.29688, 0.67188, 0.3125, 0.67188, 0.3125, 0.6875, 0.32812, 0.70312, 0.34375, 0.70312, 0.34375], "SoftwareVersions": "syngo MR E11", "SpacingBetweenSlices": 2, "StationName": "AWP166078", "TxRefAmp": 231.784, "dcmmeta_affine": [[-2.0, -9.79399981254625e-12, 0.0, 100.67796325683594], [-9.625999650153538e-12, 1.96587073802948, -0.3679027557373047, -81.28648376464844], [-1.8019999555030086e-12, 0.3679026961326599, 1.9658660888671875, -70.44001007080078], [0.0, 0.0, 0.0, 1.0]], "dcmmeta_reorient_transform": [[0.0, -1.0, 0.0, 99.0], [1.0, 0.0, 0.0, 0.0], [0.0, 0.0, -1.0, 71.0], [0.0, 0.0, 0.0, 1.0]], "dcmmeta_shape": [100, 100, 72], "dcmmeta_slice_dim": 2, "dcmmeta_version": 0.6, "global": {"const": {"AcquisitionMatrix": [0, 100, 100, 0], "AcquisitionNumber": 1, "AngioFlag": "N", "BitsAllocated": 16, "BitsStored": 12, "BodyPartExamined": "BRAIN", "Columns": 100, "EchoNumbers": 2, "EchoTime": 7.38, "EchoTrainLength": 0, "FlipAngle": 60.0, "HighBit": 11, "ImageOrientationPatient": [1.0, 4.813e-12, -9.01e-13, -4.897e-12, 0.98293534950513, -0.1839513487127], "ImageType": ["ORIGINAL", "PRIMARY", "P", "ND"], "ImagedNucleus": "1H", "ImagingFrequency": 123.257708, "InPlanePhaseEncodingDirection": "ROW", "MRAcquisitionType": "2D", "MagneticFieldStrength": 3.0, "Manufacturer": "SIEMENS", "ManufacturerModelName": "Prisma", "Modality": "MR", "NumberOfAverages": 1.0, "NumberOfPhaseEncodingSteps": 100, "PercentPhaseFieldOfView": 100.0, "PercentSampling": 100.0, "PerformedProcedureStepStartTime": "125742.017000", "PhotometricInterpretation": "MONOCHROME2", "PixelBandwidth": 570.0, "PixelRepresentation": 0, "PixelSpacing": [2.0, 2.0], "ProtocolName": "field_mapping_2x2x2", "RepetitionTime": 720.0, "RescaleIntercept": -4096.0, "RescaleSlope": 2.0, "RescaleType": "US", "Rows": 100, "SAR": 0.11811542214462, "SamplesPerPixel": 1, "ScanningSequence": "GR", "SequenceName": "*fm2d2r", "SequenceVariant": "SP", "SeriesDescription": "field_mapping_2x2x2", "SeriesNumber": 10, "SeriesTime": "134107.851000", "SliceThickness": 2.0, "SoftwareVersions": "syngo MR E11", "SpacingBetweenSlices": 2.0, "SpecificCharacterSet": "ISO_IR 100", "StudyID": "1", "StudyTime": "125741.935000", "TransmitCoilName": "Body", "VariableFlipAngleFlag": "N", "WindowCenterWidthExplanation": "Algo1", "dBdt": 0.0}, "slices": {"AcquisitionTime": ["133842.982500", "133842.622500", "133842.992500", "133842.632500", "133843.002500", "133842.642500", "133843.012500", "133842.652500", "133843.022500", "133842.662500", "133843.032500", "133842.672500", "133843.042500", "133842.682500", "133843.052500", "133842.692500", "133843.062500", "133842.702500", "133843.072500", "133842.712500", "133843.082500", "133842.722500", "133843.092500", "133842.732500", "133843.102500", "133842.742500", "133843.112500", "133842.752500", "133843.122500", "133842.762500", "133843.132500", "133842.772500", "133843.142500", "133842.782500", "133843.152500", "133842.792500", "133843.162500", "133842.802500", "133843.172500", "133842.812500", "133843.182500", "133842.822500", "133843.192500", "133842.832500", "133843.202500", "133842.842500", "133843.212500", "133842.852500", "133843.222500", "133842.862500", "133843.232500", "133842.872500", "133843.242500", "133842.882500", "133843.252500", "133842.892500", "133843.262500", "133842.902500", "133843.272500", "133842.912500", "133843.282500", "133842.922500", "133843.292500", "133842.932500", "133843.302500", "133842.942500", "133843.312500", "133842.952500", "133843.322500", "133842.962500", "133843.332500", "133842.972500"], "ContentTime": ["134107.930000", "134107.859000", "134107.932000", "134107.862000", "134107.934000", "134107.864000", "134107.936000", "134107.866000", "134107.938000", "134107.867000", "134107.939000", "134107.869000", "134107.941000", "134107.871000", "134107.943000", "134107.873000", "134107.946000", "134107.875000", "134107.948000", "134107.877000", "134107.950000", "134107.879000", "134107.952000", "134107.880000", "134107.954000", "134107.882000", "134107.957000", "134107.884000", "134107.959000", "134107.886000", "134107.961000", "134107.888000", "134107.963000", "134107.890000", "134107.965000", "134107.892000", "134107.967000", "134107.894000", "134107.970000", "134107.896000", "134107.972000", "134107.899000", "134107.974000", "134107.901000", "134107.976000", "134107.903000", "134107.978000", "134107.905000", "134107.980000", "134107.906000", "134107.982000", "134107.908000", "134107.984000", "134107.910000", "134107.986000", "134107.912000", "134107.988000", "134107.914000", "134107.990000", "134107.916000", "134107.992000", "134107.918000", "134107.994000", "134107.920000", "134107.996000", "134107.922000", "134107.998000", "134107.924000", "134108.001000", "134107.926000", "134108.003000", "134107.928000"], "CsaImage.GSWDDataType": ["measured", "predicted", "measured", "predicted", "measured", "predicted", "measured", "predicted", "measured", "predicted", "measured", "predicted", "measured", "predicted", "measured", "predicted", "measured", "predicted", "measured", "predicted", "measured", "predicted", "measured", "predicted", "measured", "predicted", "measured", "predicted", "measured", "predicted", "measured", "predicted", "measured", "predicted", "measured", "predicted", "measured", "predicted", "measured", "predicted", "measured", "predicted", "measured", "predicted", "measured", "predicted", "measured", "predicted", "measured", "predicted", "measured", "predicted", "measured", "predicted", "measured", "predicted", "measured", "predicted", "measured", "predicted", "measured", "predicted", "measured", "predicted", "measured", "predicted", "measured", "predicted", "measured", "predicted", "measured", "measured"], "CsaImage.ICE_Dims": ["X_2_1_1_1_1_1_37_1_1_1_1_157", "X_2_1_1_1_1_1_1_1_1_2_1_157", "X_2_1_1_1_1_1_38_1_1_3_1_157", "X_2_1_1_1_1_1_2_1_1_4_1_157", "X_2_1_1_1_1_1_39_1_1_5_1_157", "X_2_1_1_1_1_1_3_1_1_6_1_157", "X_2_1_1_1_1_1_40_1_1_7_1_157", "X_2_1_1_1_1_1_4_1_1_8_1_157", "X_2_1_1_1_1_1_41_1_1_9_1_157", "X_2_1_1_1_1_1_5_1_1_10_1_157", "X_2_1_1_1_1_1_42_1_1_11_1_157", "X_2_1_1_1_1_1_6_1_1_12_1_157", "X_2_1_1_1_1_1_43_1_1_13_1_157", "X_2_1_1_1_1_1_7_1_1_14_1_157", "X_2_1_1_1_1_1_44_1_1_15_1_157", "X_2_1_1_1_1_1_8_1_1_16_1_157", "X_2_1_1_1_1_1_45_1_1_17_1_157", "X_2_1_1_1_1_1_9_1_1_18_1_157", "X_2_1_1_1_1_1_46_1_1_19_1_157", "X_2_1_1_1_1_1_10_1_1_20_1_157", "X_2_1_1_1_1_1_47_1_1_21_1_157", "X_2_1_1_1_1_1_11_1_1_22_1_157", "X_2_1_1_1_1_1_48_1_1_23_1_157", "X_2_1_1_1_1_1_12_1_1_24_1_157", "X_2_1_1_1_1_1_49_1_1_25_1_157", "X_2_1_1_1_1_1_13_1_1_26_1_157", "X_2_1_1_1_1_1_50_1_1_27_1_157", "X_2_1_1_1_1_1_14_1_1_28_1_157", "X_2_1_1_1_1_1_51_1_1_29_1_157", "X_2_1_1_1_1_1_15_1_1_30_1_157", "X_2_1_1_1_1_1_52_1_1_31_1_157", "X_2_1_1_1_1_1_16_1_1_32_1_157", "X_2_1_1_1_1_1_53_1_1_33_1_157", "X_2_1_1_1_1_1_17_1_1_34_1_157", "X_2_1_1_1_1_1_54_1_1_35_1_157", "X_2_1_1_1_1_1_18_1_1_36_1_157", "X_2_1_1_1_1_1_55_1_1_37_1_157", "X_2_1_1_1_1_1_19_1_1_38_1_157", "X_2_1_1_1_1_1_56_1_1_39_1_157", "X_2_1_1_1_1_1_20_1_1_40_1_157", "X_2_1_1_1_1_1_57_1_1_41_1_157", "X_2_1_1_1_1_1_21_1_1_42_1_157", "X_2_1_1_1_1_1_58_1_1_43_1_157", "X_2_1_1_1_1_1_22_1_1_44_1_157", "X_2_1_1_1_1_1_59_1_1_45_1_157", "X_2_1_1_1_1_1_23_1_1_46_1_157", "X_2_1_1_1_1_1_60_1_1_47_1_157", "X_2_1_1_1_1_1_24_1_1_48_1_157", "X_2_1_1_1_1_1_61_1_1_49_1_157", "X_2_1_1_1_1_1_25_1_1_50_1_157", "X_2_1_1_1_1_1_62_1_1_51_1_157", "X_2_1_1_1_1_1_26_1_1_52_1_157", "X_2_1_1_1_1_1_63_1_1_53_1_157", "X_2_1_1_1_1_1_27_1_1_54_1_157", "X_2_1_1_1_1_1_64_1_1_55_1_157", "X_2_1_1_1_1_1_28_1_1_56_1_157", "X_2_1_1_1_1_1_65_1_1_57_1_157", "X_2_1_1_1_1_1_29_1_1_58_1_157", "X_2_1_1_1_1_1_66_1_1_59_1_157", "X_2_1_1_1_1_1_30_1_1_60_1_157", "X_2_1_1_1_1_1_67_1_1_61_1_157", "X_2_1_1_1_1_1_31_1_1_62_1_157", "X_2_1_1_1_1_1_68_1_1_63_1_157", "X_2_1_1_1_1_1_32_1_1_64_1_157", "X_2_1_1_1_1_1_69_1_1_65_1_157", "X_2_1_1_1_1_1_33_1_1_66_1_157", "X_2_1_1_1_1_1_70_1_1_67_1_157", "X_2_1_1_1_1_1_34_1_1_68_1_157", "X_2_1_1_1_1_1_71_1_1_69_1_157", "X_2_1_1_1_1_1_35_1_1_70_1_157", "X_2_1_1_1_1_1_72_1_1_71_1_157", "X_2_1_1_1_1_1_36_1_1_72_1_157"], "CsaImage.ProtocolSliceNumber": [0, 1, 2, 3, 4, 5, 6, 7, 8, 9, 10, 11, 12, 13, 14, 15, 16, 17, 18, 19, 20, 21, 22, 23, 24, 25, 26, 27, 28, 29, 30, 31, 32, 33, 34, 35, 36, 37, 38, 39, 40, 41, 42, 43, 44, 45, 46, 47, 48, 49, 50, 51, 52, 53, 54, 55, 56, 57, 58, 59, 60, 61, 62, 63, 64, 65, 66, 67, 68, 69, 70, 71], "CsaImage.RFSWDDataType": ["measured", "predicted", "measured", "predicted", "measured", "predicted", "measured", "predicted", "measured", "predicted", "measured", "predicted", "measured", "predicted", "measured", "predicted", "measured", "predicted", "measured", "predicted", "measured", "predicted", "measured", "predicted", "measured", "predicted", "measured", "predicted", "measured", "predicted", "measured", "predicted", "measured", "predicted", "measured", "predicted", "measured", "predicted", "measured", "predicted", "measured", "predicted", "measured", "predicted", "measured", "predicted", "measured", "predicted", "measured", "predicted", "measured", "predicted", "measured", "predicted", "measured", "predicted", "measured", "predicted", "measured", "predicted", "measured", "predicted", "measured", "predicted", "measured", "predicted", "measured", "predicted", "measured", "measured", "measured", "measured"], "CsaImage.SlicePosition_PCS": [[-100.67796612, -113.33471079, -34.01797395], [-100.67796612, -112.96680804, -32.05210024], [-100.67796612, -112.59890528, -30.08623033], [-100.67796612, -112.23100253, -28.12036043], [-100.67796612, -111.86309977, -26.15449053], [-100.67796612, -111.49519701, -24.18862062], [-100.67796612, -111.12729426, -22.2227469], [-100.67796612, -110.7593915, -20.256877], [-100.67796612, -110.39148875, -18.2910071], [-100.67796612, -110.02358599, -16.32513719], [-100.67796612, -109.65568324, -14.35926347], [-100.67796612, -109.28778048, -12.39339548], [-100.67796612, -108.91987772, -10.42752367], [-100.67796612, -108.55197497, -8.46165376], [-100.67796612, -108.18407221, -6.49578195], [-100.67796612, -107.81616946, -4.52991205], [-100.67796612, -107.4482667, -2.56404024], [-100.67796612, -107.0803649, -0.59817033], [-100.67796612, -106.71246214, 1.36769957], [-100.67796612, -106.34455939, 3.33357138], [-100.67796612, -105.97665616, 5.29944128], [-100.67796612, -105.60875388, 7.26531214], [-100.67796612, -105.24085112, 9.231183], [-100.67796612, -104.87294836, 11.19705385], [-100.67796612, -104.50504561, 13.16292471], [-100.67796612, -104.13714285, 15.12879509], [-100.67796612, -103.7692401, 17.09466595], [-100.67796612, -103.40133734, 19.06053663], [-100.67796612, -103.03343459, 21.02640719], [-100.67796612, -102.66553183, 22.99227804], [-100.67796612, -102.29762955, 24.9581489], [-100.67796612, -101.92972656, 26.92401976], [-100.67796612, -101.56182404, 28.88988966], [-100.67796612, -101.19392128, 30.85576052], [-100.67796612, -100.82601853, 32.82163138], [-100.67796612, -100.45811577, 34.78750128], [-100.67796612, -100.09021314, 36.75337309], [-100.67796612, -99.72231038, 38.719243], [-100.67796612, -99.35440774, 40.68511481], [-100.67796612, -98.98650505, 42.65098471], [-100.67796612, -98.61860232, 44.61685652], [-100.67796612, -98.25069963, 46.58272642], [-100.67796612, -97.88279693, 48.54859633], [-100.67796612, -97.5148942, 50.51446623], [-100.67796612, -97.14699157, 52.48033995], [-100.67796612, -96.77908881, 54.44620985], [-100.67796612, -96.41118618, 56.41207976], [-100.67796612, -96.04328342, 58.37794966], [-100.67796612, -95.67538066, 60.34381956], [-100.67796612, -95.30747791, 62.30969328], [-100.67796612, -94.93957539, 64.27556319], [-100.67796612, -94.57167263, 66.24143309], [-100.67796612, -94.20376988, 68.20730299], [-100.67796612, -93.83586712, 70.1731729], [-100.67796612, -93.46796437, 72.13904661], [-100.67796612, -93.10006161, 74.10491652], [-100.67796612, -92.73215933, 76.07078642], [-100.67796612, -92.36425658, 78.03665633], [-100.67796612, -91.99635382, 80.00253004], [-100.67796612, -91.62845107, 81.96839995], [-100.67796612, -91.26054831, 83.93426604], [-100.67796612, -90.89264555, 85.90013975], [-100.67796612, -90.5247428, 87.86601347], [-100.67796612, -90.15684004, 89.83187956], [-100.67796612, -89.78893729, 91.79775328], [-100.67796612, -89.42103453, 93.76361937], [-100.67796612, -89.05313178, 95.72949309], [-100.67796612, -88.68522902, 97.6953668], [-100.67796612, -88.31732626, 99.66123289], [-100.67796612, -87.94942446, 101.62710661], [-100.67796612, -87.58152171, 103.59298033], [-100.67796612, -87.21361895, 105.55884642]], "CsaImage.TimeAfterStart": [1.0825, 0.7225, 1.0925, 0.7325, 1.1025, 0.7425, 1.1125, 0.7525, 1.1225, 0.7625, 1.1325, 0.7725, 1.1425, 0.7825, 1.1525, 0.7925, 1.1625, 0.8025, 1.1725, 0.8125, 1.1825, 0.8225, 1.1925, 0.8325, 1.2025, 0.8425, 1.2125, 0.8525, 1.2225, 0.8625, 1.2325, 0.8725, 1.2425, 0.8825, 1.2525, 0.8925, 1.2625, 0.9025, 1.2725, 0.9125, 1.2825, 0.9225, 1.2925, 0.9325, 1.3025, 0.9425, 1.3125, 0.9525, 1.3225, 0.9625, 1.3325, 0.9725, 1.3425, 0.9825, 1.3525, 0.9925, 1.3625, 1.0025, 1.3725, 1.0125, 1.3825, 1.0225, 1.3925, 1.0325, 1.4025, 1.0425, 1.4125, 1.0525, 1.4225, 1.0625, 1.4325, 1.0725], "ImagePositionPatient": [[-100.67796611737, -113.33471079328, -34.01797395432], [-100.67796611737, -112.96680803754, -32.052100236059], [-100.67796611737, -112.5989052818, -30.086230332494], [-100.67796611737, -112.23100252607, -28.12036042893], [-100.67796611737, -111.86309977033, -26.154490525365], [-100.67796611737, -111.49519701459, -24.188620621801], [-100.67796611737, -111.12729425886, -22.222746903539], [-100.67796611737, -110.75939150312, -20.256876999975], [-100.67796611737, -110.39148874738, -18.29100709641], [-100.67796611737, -110.02358599164, -16.325137192846], [-100.67796611737, -109.65568323591, -14.359263474584], [-100.67796611737, -109.28778048017, -12.393395478368], [-100.67796611737, -108.91987772443, -10.427523667455], [-100.67796611737, -108.55197496869, -8.4616537638908], [-100.67796611737, -108.18407221296, -6.4957819529777], [-100.67796611737, -107.81616945722, -4.5299120494133], [-100.67796611737, -107.44826670148, -2.5640402385002], [-100.67796611737, -107.08036489942, -0.5981703349357], [-100.67796611737, -106.71246214368, 1.3676995686287], [-100.67796611737, -106.34455938794, 3.3335713795418], [-100.67796611737, -105.97665615537, 5.2994412831063], [-100.67796611737, -105.60875387647, 7.265312140345], [-100.67796611737, -105.24085112073, 9.2311829975838], [-100.67796611737, -104.872948365, 11.197053854823], [-100.67796611737, -104.50504560926, 13.162924712061], [-100.67796611737, -104.13714285352, 15.128795092463], [-100.67796611737, -103.76924009778, 17.094665949702], [-100.67796611737, -103.40133734205, 19.060536628127], [-100.67796611737, -103.03343458631, 21.026407187342], [-100.67796611737, -102.66553183057, 22.992278044581], [-100.67796611737, -102.29762955167, 24.95814890182], [-100.67796611737, -101.92972655752, 26.924019759058], [-100.67796611737, -101.5618240402, 28.889889662623], [-100.67796611737, -101.19392128446, 30.855760519862], [-100.67796611737, -100.82601852872, 32.8216313771], [-100.67796611737, -100.45811577299, 34.787501280665], [-100.67796611737, -100.09021313646, 36.753373091578], [-100.67796611737, -99.72231038072, 38.719242995142], [-100.67796611737, -99.354407744192, 40.685114806055], [-100.67796611737, -98.986505048059, 42.65098470962], [-100.67796611737, -98.618602322124, 44.616856520533], [-100.67796611737, -98.250699633442, 46.582726424097], [-100.67796611737, -97.882796929859, 48.548596327662], [-100.67796611737, -97.514894203924, 50.514466231226], [-100.67796611737, -97.146991567396, 52.480339949488], [-100.67796611737, -96.779088811659, 54.446209853053], [-100.67796611737, -96.411186175131, 56.412079756617], [-100.67796611737, -96.043283419393, 58.377949660181], [-100.67796611737, -95.675380663656, 60.343819563746], [-100.67796611737, -95.307477907919, 62.309693282008], [-100.67796611737, -94.9395753906, 64.275563185572], [-100.67796611737, -94.571672634863, 66.241433089137], [-100.67796611737, -94.203769879125, 68.207302992701], [-100.67796611737, -93.835867123388, 70.173172896265], [-100.67796611737, -93.467964367651, 72.139046614527], [-100.67796611737, -93.100061611913, 74.104916518092], [-100.67796611737, -92.732159333013, 76.070786421656], [-100.67796611737, -92.364256577276, 78.036656325221], [-100.67796611737, -91.996353821539, 80.002530043482], [-100.67796611737, -91.628451065801, 81.968399947047], [-100.67796611737, -91.260548310064, 83.934266035914], [-100.67796611737, -90.892645554327, 85.900139754176], [-100.67796611737, -90.52474279859, 87.866013472437], [-100.67796611737, -90.156840042852, 89.831879561305], [-100.67796611737, -89.788937287115, 91.797753279566], [-100.67796611737, -89.421034531378, 93.763619368433], [-100.67796611737, -89.05313177564, 95.729493086695], [-100.67796611737, -88.685229019903, 97.695366804957], [-100.67796611737, -88.317326264166, 99.661232893824], [-100.67796611737, -87.949424462103, 101.62710661209], [-100.67796611737, -87.581521706365, 103.59298033035], [-100.67796611737, -87.213618950628, 105.55884641921]], "InstanceCreationTime": ["134107.930000", "134107.859000", "134107.932000", "134107.862000", "134107.934000", "134107.864000", "134107.936000", "134107.866000", "134107.938000", "134107.867000", "134107.939000", "134107.869000", "134107.941000", "134107.871000", "134107.943000", "134107.873000", "134107.946000", "134107.875000", "134107.948000", "134107.877000", "134107.950000", "134107.879000", "134107.952000", "134107.880000", "134107.954000", "134107.882000", "134107.957000", "134107.884000", "134107.959000", "134107.886000", "134107.961000", "134107.888000", "134107.963000", "134107.890000", "134107.965000", "134107.892000", "134107.967000", "134107.894000", "134107.970000", "134107.896000", "134107.972000", "134107.899000", "134107.974000", "134107.901000", "134107.976000", "134107.903000", "134107.978000", "134107.905000", "134107.980000", "134107.906000", "134107.982000", "134107.908000", "134107.984000", "134107.910000", "134107.986000", "134107.912000", "134107.988000", "134107.914000", "134107.990000", "134107.916000", "134107.992000", "134107.918000", "134107.994000", "134107.920000", "134107.996000", "134107.922000", "134107.998000", "134107.924000", "134108.001000", "134107.926000", "134108.003000", "134107.928000"], "InstanceNumber": [1, 2, 3, 4, 5, 6, 7, 8, 9, 10, 11, 12, 13, 14, 15, 16, 17, 18, 19, 20, 21, 22, 23, 24, 25, 26, 27, 28, 29, 30, 31, 32, 33, 34, 35, 36, 37, 38, 39, 40, 41, 42, 43, 44, 45, 46, 47, 48, 49, 50, 51, 52, 53, 54, 55, 56, 57, 58, 59, 60, 61, 62, 63, 64, 65, 66, 67, 68, 69, 70, 71, 72], "LargestImagePixelValue": [4092, 4095, 4094, 4094, 4093, 4095, 4095, 4095, 4095, 4095, 4094, 4095, 4095, 4093, 4095, 4094, 4095, 4095, 4094, 4093, 4092, 4090, 4089, 4095, 4093, 4093, 4094, 4095, 4078, 4094, 4093, 4086, 4095, 4091, 4094, 4094, 4092, 4093, 4094, 4086, 4095, 4094, 4094, 4093, 4084, 4092, 4093, 4092, 4094, 4086, 4093, 4094, 4094, 4094, 4092, 4089, 4089, 4092, 4095, 4095, 4092, 4093, 4094, 4094, 4095, 4094, 4095, 4095, 4095, 4094, 4095, 4094], "SliceLocation": [-54.285542024637, -52.285539046182, -50.285539817327, -48.285540588472, -46.285541359617, -44.285542130763, -42.285539152307, -40.285539923452, -38.285540694598, -36.285541465743, -34.285538487287, -32.285541133233, -30.285540029578, -28.285540800723, -26.285539697068, -24.285540468213, -22.285539364558, -20.285540311133, -18.285541082278, -16.285539978623, -14.285540662054, -12.285540583514, -10.285540417259, -8.2855402510037, -6.2855400847487, -4.2855403871939, -2.2855402209389, -0.2855402304465, 1.7144596428708, 3.7144598091258, 5.7144598876659, 7.7144600977783, 9.7144592827756, 11.714459449031, 13.714459615285, 15.71445884414, 17.714459925867, 19.714459154721, 21.714460236448, 23.714459454338, 25.714460552511, 27.714459769031, 29.714458988292, 31.714458211665, 33.714461168191, 35.714460397046, 37.714459603972, 39.714458832827, 41.714458061682, 43.714461040137, 45.714460225134, 47.714459453989, 49.714458682844, 51.714457911699, 53.714460890154, 55.714460119009, 57.714459260149, 59.714458489004, 61.714461467459, 63.714460696314, 65.714456175568, 67.714459154023, 69.714462132479, 71.714457611733, 73.714460590188, 75.714456069442, 77.714459047898, 79.714462026353, 81.714457505607, 83.714460308633, 85.714463287089, 87.714458766343], "SmallestImagePixelValue": [0, 0, 0, 0, 4, 1, 0, 0, 2, 0, 1, 0, 0, 0, 0, 0, 0, 2, 2, 0, 1, 1, 1, 7, 0, 0, 0, 7, 0, 2, 3, 5, 0, 5, 0, 0, 0, 0, 0, 4, 2, 4, 3, 1, 3, 0, 0, 14, 0, 11, 0, 0, 1, 0, 1, 1, 1, 0, 0, 0, 1, 0, 0, 0, 3, 0, 4, 0, 2, 0, 0, 1], "WindowCenter": [-272.0, -284.0, -270.0, -282.0, -256.0, -228.0, -228.0, -196.0, -142.0, -132.0, -146.0, -140.0, -192.0, -210.0, -236.0, -270.0, -280.0, -302.0, -274.0, -272.0, -288.0, -316.0, -302.0, -304.0, -272.0, -266.0, -214.0, -190.0, -160.0, -138.0, -68.0, -42.0, -26.0, -34.0, -82.0, -110.0, -86.0, -68.0, -70.0, -46.0, -44.0, -18.0, -6.0, 4.0, -42.0, -32.0, 0.0, 6.0, -8.0, -14.0, -186.0, -86.0, -74.0, -38.0, -66.0, -92.0, -74.0, -32.0, -34.0, -80.0, -58.0, -70.0, -66.0, -56.0, -90.0, -104.0, -116.0, -164.0, -180.0, -230.0, -210.0, -254.0], "WindowWidth": [6210.0, 6164.0, 6212.0, 6190.0, 6238.0, 6258.0, 6352.0, 6406.0, 6504.0, 6442.0, 6398.0, 6334.0, 6282.0, 6232.0, 6214.0, 6150.0, 6118.0, 6042.0, 5986.0, 5914.0, 5840.0, 5792.0, 5784.0, 5642.0, 5642.0, 5534.0, 5548.0, 5540.0, 5502.0, 5504.0, 5574.0, 5554.0, 5546.0, 5508.0, 5360.0, 5206.0, 5296.0, 5298.0, 5190.0, 5260.0, 5186.0, 5312.0, 5238.0, 5328.0, 5086.0, 5112.0, 5242.0, 5330.0, 5318.0, 5306.0, 4590.0, 5126.0, 5250.0, 5440.0, 5368.0, 5370.0, 5332.0, 5536.0, 5504.0, 5344.0, 5568.0, 5586.0, 5674.0, 5764.0, 5778.0, 5886.0, 5952.0, 6040.0, 6038.0, 6098.0, 6180.0, 6168.0]}}, "IntendedFor": ["ses-action01/func/sub-09_ses-action01_task-action_run-03_bold.nii.gz", "ses-action01/func/sub-09_ses-action01_task-action_run-01_bold.nii.gz", "ses-action01/func/sub-09_ses-action01_task-action_run-11_bold.nii.gz", "ses-action01/func/sub-09_ses-action01_task-action_run-07_bold.nii.gz", "ses-action01/func/sub-09_ses-action01_task-action_run-08_bold.nii.gz", "ses-action01/func/sub-09_ses-action01_task-action_run-05_bold.nii.gz", "ses-action01/func/sub-09_ses-action01_task-action_run-09_bold.nii.gz", "ses-action01/func/sub-09_ses-action01_task-action_run-06_bold.nii.gz", "ses-action01/func/sub-09_ses-action01_task-action_run-04_bold.nii.gz", "ses-action01/func/sub-09_ses-action01_task-action_run-02_bold.nii.gz", "ses-action01/func/sub-09_ses-action01_task-action_run-12_bold.nii.gz", "ses-action01/func/sub-09_ses-action01_task-action_run-10_bold.nii.gz"]}