{"AcquisitionMatrixPE": 100, "AcquisitionNumber": 1, "AcquisitionTime": "15:08:4.247500", "BaseResolution": 100, "BodyPartExamined": "BRAIN", "CoilCombinationMethod": "Sum of Squares", "ConsistencyInfo": "N4_VE11C_LATEST_20160120", "ConversionSoftware": "dcm2niix", "ConversionSoftwareVersion": "v1.0.20211006", "DeviceSerialNumber": "166078", "DwellTime": 8.8e-06, "EchoNumber": 2, "EchoTime": 0.00738, "EchoTime1": 0.00492, "EchoTime2": 0.00738, "FlipAngle": 60, "ImageOrientationPatientDICOM": [1, 4.847e-12, -6.98e-13, -4.897e-12, 0.989776, -0.142629], "ImageOrientationText": "Tra>Cor(-8.2)", "ImageType": ["ORIGINAL", "PRIMARY", "P", "ND", "PHASE"], "ImagingFrequency": 123.258, "InPlanePhaseEncodingDirectionDICOM": "ROW", "InstitutionAddress": "Street StreetNo,Bei Jing,District,CN,ZIP", "InstitutionName": "BeiJing Normal University", "InstitutionalDepartmentName": "Department", "MRAcquisitionType": "2D", "MagneticFieldStrength": 3, "Manufacturer": "Siemens", "ManufacturersModelName": "Prisma", "MatrixCoilMode": "SENSE", "Modality": "MR", "MultibandAccelerationFactor": 2, "PartialFourier": 1, "PatientPosition": "HFS", "PercentPhaseFOV": 100, "PercentSampling": 100, "PhaseEncodingDirection": "i", "PhaseEncodingSteps": 100, "PhaseResolution": 1, "PixelBandwidth": 570, "ProcedureStepDescription": "BNU_P2018_64CH^Zhen.ZongLei", "ProtocolName": "field_mapping_2x2x2", "PulseSequenceDetails": "%SiemensSeq%\\gre_field_mapping", "ReceiveCoilActiveElements": "HC1-7;NC1", "ReceiveCoilName": "HeadNeck_64", "ReconMatrixPE": 100, "RepetitionTime": 0.72, "SAR": 0.120711, "ScanningSequence": "GR", "SequenceName": "*fm2d2r", "SequenceVariant": "SP", "SeriesDescription": "field_mapping_2x2x2", "SeriesNumber": 10, "ShimSetting": [-5482, -11522, -1241, 315, -67, -371, -161, 33], "SliceThickness": 2, "SliceTiming": [0.35938, 0, 0.35938, 0, 0.375, 0.01562, 0.39062, 0.03125, 0.39062, 0.03125, 0.40625, 0.04688, 0.42188, 0.0625, 0.42188, 0.0625, 0.4375, 0.07812, 0.45312, 0.09375, 0.45312, 0.09375, 0.46875, 0.10938, 0.48438, 0.10938, 0.48438, 0.125, 0.5, 0.14062, 0.5, 0.14062, 0.51562, 0.15625, 0.53125, 0.17188, 0.53125, 0.17188, 0.54688, 0.1875, 0.5625, 0.20312, 0.5625, 0.20312, 0.57812, 0.21875, 0.59375, 0.23438, 0.59375, 0.23438, 0.60938, 0.25, 0.60938, 0.25, 0.625, 0.26562, 0.64062, 0.28125, 0.64062, 0.28125, 0.65625, 0.29688, 0.67188, 0.3125, 0.67188, 0.3125, 0.6875, 0.32812, 0.70312, 0.34375, 0.70312, 0.34375], "SoftwareVersions": "syngo MR E11", "SpacingBetweenSlices": 2, "StationName": "AWP166078", "TxRefAmp": 228.896, "dcmmeta_affine": [[-2.0, -9.79399981254625e-12, 0.0, 100.67796325683594], [-9.693999943050091e-12, 1.9795525074005127, -0.28525781631469727, -82.52759552001953], [-1.3959999605947515e-12, 0.28525787591934204, 1.97955322265625, -74.37287139892578], [0.0, 0.0, 0.0, 1.0]], "dcmmeta_reorient_transform": [[0.0, -1.0, 0.0, 99.0], [1.0, 0.0, 0.0, 0.0], [0.0, 0.0, -1.0, 71.0], [0.0, 0.0, 0.0, 1.0]], "dcmmeta_shape": [100, 100, 72], "dcmmeta_slice_dim": 2, "dcmmeta_version": 0.6, "global": {"const": {"AcquisitionMatrix": [0, 100, 100, 0], "AcquisitionNumber": 1, "AngioFlag": "N", "BitsAllocated": 16, "BitsStored": 12, "BodyPartExamined": "BRAIN", "Columns": 100, "EchoNumbers": 2, "EchoTime": 7.38, "EchoTrainLength": 0, "FlipAngle": 60.0, "HighBit": 11, "ImageOrientationPatient": [1.0, 4.847e-12, -6.98e-13, -4.897e-12, 0.98977622936229, -0.1426289444306], "ImageType": ["ORIGINAL", "PRIMARY", "P", "ND"], "ImagedNucleus": "1H", "ImagingFrequency": 123.257696, "InPlanePhaseEncodingDirection": "ROW", "MRAcquisitionType": "2D", "MagneticFieldStrength": 3.0, "Manufacturer": "SIEMENS", "ManufacturerModelName": "Prisma", "Modality": "MR", "NumberOfAverages": 1.0, "NumberOfPhaseEncodingSteps": 100, "PercentPhaseFieldOfView": 100.0, "PercentSampling": 100.0, "PerformedProcedureStepStartTime": "142706.745000", "PhotometricInterpretation": "MONOCHROME2", "PixelBandwidth": 570.0, "PixelRepresentation": 0, "PixelSpacing": [2.0, 2.0], "ProtocolName": "field_mapping_2x2x2", "RepetitionTime": 720.0, "RescaleIntercept": -4096.0, "RescaleSlope": 2.0, "RescaleType": "US", "Rows": 100, "SAR": 0.12071144461324, "SamplesPerPixel": 1, "ScanningSequence": "GR", "SequenceName": "*fm2d2r", "SequenceVariant": "SP", "SeriesDescription": "field_mapping_2x2x2", "SeriesNumber": 10, "SeriesTime": "151028.986000", "SliceThickness": 2.0, "SoftwareVersions": "syngo MR E11", "SpacingBetweenSlices": 2.0, "SpecificCharacterSet": "ISO_IR 100", "StudyID": "1", "StudyTime": "142706.674000", "TransmitCoilName": "Body", "VariableFlipAngleFlag": "N", "WindowCenterWidthExplanation": "Algo1", "dBdt": 0.0}, "slices": {"AcquisitionTime": ["150804.247500", "150803.887500", "150804.257500", "150803.897500", "150804.267500", "150803.907500", "150804.277500", "150803.917500", "150804.287500", "150803.927500", "150804.297500", "150803.937500", "150804.307500", "150803.947500", "150804.317500", "150803.957500", "150804.327500", "150803.967500", "150804.337500", "150803.977500", "150804.347500", "150803.987500", "150804.357500", "150803.997500", "150804.367500", "150804.007500", "150804.377500", "150804.017500", "150804.387500", "150804.027500", "150804.397500", "150804.037500", "150804.407500", "150804.047500", "150804.417500", "150804.057500", "150804.427500", "150804.067500", "150804.437500", "150804.077500", "150804.447500", "150804.087500", "150804.457500", "150804.097500", "150804.467500", "150804.107500", "150804.477500", "150804.117500", "150804.487500", "150804.127500", "150804.497500", "150804.137500", "150804.507500", "150804.147500", "150804.517500", "150804.157500", "150804.527500", "150804.167500", "150804.537500", "150804.177500", "150804.547500", "150804.187500", "150804.557500", "150804.197500", "150804.567500", "150804.207500", "150804.577500", "150804.217500", "150804.587500", "150804.227500", "150804.597500", "150804.237500"], "ContentTime": ["151029.067000", "151028.988000", "151029.069000", "151028.990000", "151029.071000", "151028.994000", "151029.073000", "151028.997000", "151029.075000", "151029.000000", "151029.077000", "151029.002000", "151029.080000", "151029.004000", "151029.081000", "151029.006000", "151029.084000", "151029.008000", "151029.086000", "151029.011000", "151029.088000", "151029.013000", "151029.092000", "151029.015000", "151029.099000", "151029.017000", "151029.103000", "151029.019000", "151029.109000", "151029.021000", "151029.112000", "151029.023000", "151029.116000", "151029.025000", "151029.120000", "151029.027000", "151029.123000", "151029.029000", "151029.126000", "151029.031000", "151029.128000", "151029.034000", "151029.130000", "151029.036000", "151029.143000", "151029.039000", "151029.145000", "151029.040000", "151029.147000", "151029.043000", "151029.148000", "151029.045000", "151029.151000", "151029.047000", "151029.152000", "151029.049000", "151029.154000", "151029.051000", "151029.156000", "151029.053000", "151029.163000", "151029.056000", "151029.165000", "151029.058000", "151029.167000", "151029.060000", "151029.169000", "151029.061000", "151029.171000", "151029.064000", "151029.173000", "151029.065000"], "CsaImage.GSWDDataType": ["measured", "predicted", "measured", "predicted", "measured", "predicted", "measured", "predicted", "measured", "predicted", "measured", "predicted", "measured", "predicted", "measured", "predicted", "measured", "predicted", "measured", "predicted", "measured", "predicted", "measured", "predicted", "measured", "predicted", "measured", "predicted", "measured", "predicted", "measured", "predicted", "measured", "predicted", "measured", "predicted", "measured", "predicted", "measured", "predicted", "measured", "predicted", "measured", "predicted", "measured", "predicted", "measured", "predicted", "measured", "predicted", "measured", "predicted", "measured", "predicted", "measured", "predicted", "measured", "predicted", "measured", "predicted", "measured", "predicted", "measured", "measured", "measured", "measured", "measured", "measured", "measured", "measured", "measured", "measured"], "CsaImage.ICE_Dims": ["X_2_1_1_1_1_1_37_1_1_1_1_179", "X_2_1_1_1_1_1_1_1_1_2_1_179", "X_2_1_1_1_1_1_38_1_1_3_1_179", "X_2_1_1_1_1_1_2_1_1_4_1_179", "X_2_1_1_1_1_1_39_1_1_5_1_179", "X_2_1_1_1_1_1_3_1_1_6_1_179", "X_2_1_1_1_1_1_40_1_1_7_1_179", "X_2_1_1_1_1_1_4_1_1_8_1_179", "X_2_1_1_1_1_1_41_1_1_9_1_179", "X_2_1_1_1_1_1_5_1_1_10_1_179", "X_2_1_1_1_1_1_42_1_1_11_1_179", "X_2_1_1_1_1_1_6_1_1_12_1_179", "X_2_1_1_1_1_1_43_1_1_13_1_179", "X_2_1_1_1_1_1_7_1_1_14_1_179", "X_2_1_1_1_1_1_44_1_1_15_1_179", "X_2_1_1_1_1_1_8_1_1_16_1_179", "X_2_1_1_1_1_1_45_1_1_17_1_179", "X_2_1_1_1_1_1_9_1_1_18_1_179", "X_2_1_1_1_1_1_46_1_1_19_1_179", "X_2_1_1_1_1_1_10_1_1_20_1_179", "X_2_1_1_1_1_1_47_1_1_21_1_179", "X_2_1_1_1_1_1_11_1_1_22_1_179", "X_2_1_1_1_1_1_48_1_1_23_1_179", "X_2_1_1_1_1_1_12_1_1_24_1_179", "X_2_1_1_1_1_1_49_1_1_25_1_179", "X_2_1_1_1_1_1_13_1_1_26_1_179", "X_2_1_1_1_1_1_50_1_1_27_1_179", "X_2_1_1_1_1_1_14_1_1_28_1_179", "X_2_1_1_1_1_1_51_1_1_29_1_179", "X_2_1_1_1_1_1_15_1_1_30_1_179", "X_2_1_1_1_1_1_52_1_1_31_1_179", "X_2_1_1_1_1_1_16_1_1_32_1_179", "X_2_1_1_1_1_1_53_1_1_33_1_179", "X_2_1_1_1_1_1_17_1_1_34_1_179", "X_2_1_1_1_1_1_54_1_1_35_1_179", "X_2_1_1_1_1_1_18_1_1_36_1_179", "X_2_1_1_1_1_1_55_1_1_37_1_179", "X_2_1_1_1_1_1_19_1_1_38_1_179", "X_2_1_1_1_1_1_56_1_1_39_1_179", "X_2_1_1_1_1_1_20_1_1_40_1_179", "X_2_1_1_1_1_1_57_1_1_41_1_179", "X_2_1_1_1_1_1_21_1_1_42_1_179", "X_2_1_1_1_1_1_58_1_1_43_1_179", "X_2_1_1_1_1_1_22_1_1_44_1_179", "X_2_1_1_1_1_1_59_1_1_45_1_179", "X_2_1_1_1_1_1_23_1_1_46_1_179", "X_2_1_1_1_1_1_60_1_1_47_1_179", "X_2_1_1_1_1_1_24_1_1_48_1_179", "X_2_1_1_1_1_1_61_1_1_49_1_179", "X_2_1_1_1_1_1_25_1_1_50_1_179", "X_2_1_1_1_1_1_62_1_1_51_1_179", "X_2_1_1_1_1_1_26_1_1_52_1_179", "X_2_1_1_1_1_1_63_1_1_53_1_179", "X_2_1_1_1_1_1_27_1_1_54_1_179", "X_2_1_1_1_1_1_64_1_1_55_1_179", "X_2_1_1_1_1_1_28_1_1_56_1_179", "X_2_1_1_1_1_1_65_1_1_57_1_179", "X_2_1_1_1_1_1_29_1_1_58_1_179", "X_2_1_1_1_1_1_66_1_1_59_1_179", "X_2_1_1_1_1_1_30_1_1_60_1_179", "X_2_1_1_1_1_1_67_1_1_61_1_179", "X_2_1_1_1_1_1_31_1_1_62_1_179", "X_2_1_1_1_1_1_68_1_1_63_1_179", "X_2_1_1_1_1_1_32_1_1_64_1_179", "X_2_1_1_1_1_1_69_1_1_65_1_179", "X_2_1_1_1_1_1_33_1_1_66_1_179", "X_2_1_1_1_1_1_70_1_1_67_1_179", "X_2_1_1_1_1_1_34_1_1_68_1_179", "X_2_1_1_1_1_1_71_1_1_69_1_179", "X_2_1_1_1_1_1_35_1_1_70_1_179", "X_2_1_1_1_1_1_72_1_1_71_1_179", "X_2_1_1_1_1_1_36_1_1_72_1_179"], "CsaImage.ProtocolSliceNumber": [0, 1, 2, 3, 4, 5, 6, 7, 8, 9, 10, 11, 12, 13, 14, 15, 16, 17, 18, 19, 20, 21, 22, 23, 24, 25, 26, 27, 28, 29, 30, 31, 32, 33, 34, 35, 36, 37, 38, 39, 40, 41, 42, 43, 44, 45, 46, 47, 48, 49, 50, 51, 52, 53, 54, 55, 56, 57, 58, 59, 60, 61, 62, 63, 64, 65, 66, 67, 68, 69, 70, 71], "CsaImage.RFSWDDataType": ["measured", "predicted", "measured", "predicted", "measured", "predicted", "measured", "predicted", "measured", "predicted", "measured", "predicted", "measured", "predicted", "measured", "predicted", "measured", "predicted", "measured", "predicted", "measured", "predicted", "measured", "predicted", "measured", "predicted", "measured", "predicted", "measured", "predicted", "measured", "predicted", "measured", "predicted", "measured", "predicted", "measured", "predicted", "measured", "predicted", "measured", "predicted", "measured", "predicted", "measured", "predicted", "measured", "predicted", "measured", "predicted", "measured", "predicted", "measured", "predicted", "measured", "predicted", "measured", "predicted", "measured", "predicted", "measured", "measured", "measured", "measured", "measured", "measured", "measured", "measured", "measured", "measured", "measured", "measured"], "CsaImage.SlicePosition_PCS": [[-100.67796612, -113.4481029, -46.13228149], [-100.67796612, -113.16284461, -44.15273208], [-100.67796612, -112.87758727, -42.17317886], [-100.67796612, -112.59232898, -40.19362564], [-100.67796612, -112.30707164, -38.21407241], [-100.67796612, -112.02181334, -36.23451919], [-100.67796612, -111.736556, -34.25496978], [-100.67796612, -111.45129771, -32.27541656], [-100.67796612, -111.16604037, -30.29586334], [-100.67796612, -110.88078208, -28.31631012], [-100.67796612, -110.59552379, -26.33675689], [-100.67796612, -110.31026645, -24.35720749], [-100.67796612, -110.02500815, -22.37765426], [-100.67796612, -109.73975081, -20.39810104], [-100.67796612, -109.45449252, -18.41854782], [-100.67796612, -109.16923518, -16.4389965], [-100.67796612, -108.88397689, -14.45944328], [-100.67796612, -108.59871955, -12.47989196], [-100.67796612, -108.31346125, -10.50033874], [-100.67796612, -108.02820296, -8.52078743], [-100.67796612, -107.74294562, -6.5412342], [-100.67796612, -107.45768733, -4.56168098], [-100.67796612, -107.17242999, -2.58212967], [-100.67796612, -106.88717217, -0.60257644], [-100.67796612, -106.60191388, 1.37697583], [-100.67796612, -106.31665606, 3.35652809], [-100.67796612, -106.03139825, 5.33608036], [-100.67796612, -105.74614043, 7.31563311], [-100.67796612, -105.46088261, 9.29518538], [-100.67796612, -105.1756248, 11.27473812], [-100.67796612, -104.89036698, 13.25429051], [-100.67796612, -104.60510917, 15.23384296], [-100.67796612, -104.31985135, 17.21339541], [-100.67796612, -104.03459306, 19.19294768], [-100.67796612, -103.74933524, 21.17250042], [-100.67796612, -103.46407742, 23.15205269], [-100.67796612, -103.17881961, 25.13160496], [-100.67796612, -102.89356179, 27.11115818], [-100.67796612, -102.60830397, 29.09071045], [-100.67796612, -102.32304616, 31.07026177], [-100.67796612, -102.0377881, 33.04981499], [-100.67796612, -101.75253029, 35.02936821], [-100.67796612, -101.46727247, 37.00891953], [-100.67796612, -101.18201465, 38.98847275], [-100.67796612, -100.89675672, 40.96802407], [-100.67796612, -100.6114989, 42.94757729], [-100.67796612, -100.32624097, 44.92713051], [-100.67796612, -100.04098315, 46.90668183], [-100.67796612, -99.75572528, 48.88623505], [-100.67796612, -99.4704674, 50.86578827], [-100.67796612, -99.18520952, 52.8453415], [-100.67796612, -98.89995165, 54.8248909], [-100.67796612, -98.6146938, 56.80444413], [-100.67796612, -98.3294359, 58.78399735], [-100.67796612, -98.04417808, 60.76355057], [-100.67796612, -97.75892014, 62.74310379], [-100.67796612, -97.47366233, 64.7226532], [-100.67796612, -97.18840451, 66.70220642], [-100.67796612, -96.90314669, 68.68175965], [-100.67796612, -96.61788864, 70.66131287], [-100.67796612, -96.33263082, 72.64086609], [-100.67796612, -96.04737301, 74.6204155], [-100.67796612, -95.76211519, 76.59996872], [-100.67796612, -95.47685714, 78.57952195], [-100.67796612, -95.19159932, 80.55907517], [-100.67796612, -94.9063415, 82.53862839], [-100.67796612, -94.62108369, 84.51818161], [-100.67796612, -94.33582587, 86.49773484], [-100.67796612, -94.05056805, 88.47728043], [-100.67796612, -93.76531024, 90.45683365], [-100.67796612, -93.48005195, 92.43638687], [-100.67796612, -93.19479413, 94.4159401]], "CsaImage.TimeAfterStart": [1.0825, 0.7225, 1.0925, 0.7325, 1.1025, 0.7425, 1.1125, 0.7525, 1.1225, 0.7625, 1.1325, 0.7725, 1.1425, 0.7825, 1.1525, 0.7925, 1.1625, 0.8025, 1.1725, 0.8125, 1.1825, 0.8225, 1.1925, 0.8325, 1.2025, 0.8425, 1.2125, 0.8525, 1.2225, 0.8625, 1.2325, 0.8725, 1.2425, 0.8825, 1.2525, 0.8925, 1.2625, 0.9025, 1.2725, 0.9125, 1.2825, 0.9225, 1.2925, 0.9325, 1.3025, 0.9425, 1.3125, 0.9525, 1.3225, 0.9625, 1.3325, 0.9725, 1.3425, 0.9825, 1.3525, 0.9925, 1.3625, 1.0025, 1.3725, 1.0125, 1.3825, 1.0225, 1.3925, 1.0325, 1.4025, 1.0425, 1.4125, 1.0525, 1.4225, 1.0625, 1.4325, 1.0725], "ImagePositionPatient": [[-100.67796611737, -113.44810290192, -46.132281490712], [-100.67796611737, -113.16284460877, -44.152732082753], [-100.67796611737, -112.87758726929, -42.173178860097], [-100.67796611737, -112.59232897614, -40.193625637441], [-100.67796611737, -112.30707163666, -38.214072414784], [-100.67796611737, -112.02181334351, -36.234519192128], [-100.67796611737, -111.73655600404, -34.254969784169], [-100.67796611737, -111.45129771088, -32.275416561513], [-100.67796611737, -111.16604037141, -30.295863338857], [-100.67796611737, -110.88078207825, -28.3163101162], [-100.67796611737, -110.5955237851, -26.336756893544], [-100.67796611737, -110.31026644562, -24.357207485585], [-100.67796611737, -110.02500815247, -22.377654262929], [-100.67796611737, -109.739750813, -20.398101040273], [-100.67796611737, -109.45449251984, -18.418547817616], [-100.67796611737, -109.16923518037, -16.438996502309], [-100.67796611737, -108.88397688721, -14.459443279653], [-100.67796611737, -108.59871954774, -12.479891964345], [-100.67796611737, -108.31346125458, -10.500338741689], [-100.67796611737, -108.02820296143, -8.520787426381], [-100.67796611737, -107.74294562196, -6.5412342037248], [-100.67796611737, -107.4576873288, -4.5616809810685], [-100.67796611737, -107.17242998933, -2.5821296657609], [-100.67796611737, -106.88717217301, -0.6025764431047], [-100.67796611737, -106.60191387986, 1.3769758258773], [-100.67796611737, -106.31665606354, 3.3565280948592], [-100.67796611737, -106.03139824723, 5.3360803638411], [-100.67796611737, -105.74614043092, 7.3156331096602], [-100.67796611737, -105.4608826146, 9.2951853786422], [-100.67796611737, -105.17562479829, 11.274738124461], [-100.67796611737, -104.89036698197, 13.254290512652], [-100.67796611737, -104.60510916566, 15.233842960448], [-100.67796611737, -104.31985134934, 17.213395408244], [-100.67796611737, -104.03459305619, 19.192947677226], [-100.67796611737, -103.74933523988, 21.172500423045], [-100.67796611737, -103.46407742356, 23.152052692027], [-100.67796611737, -103.17881960725, 25.131604961009], [-100.67796611737, -102.89356179093, 27.111158183665], [-100.67796611737, -102.60830397462, 29.090710452647], [-100.67796611737, -102.3230461583, 31.070261767955], [-100.67796611737, -102.03778810357, 33.049814990611], [-100.67796611737, -101.75253028725, 35.029368213267], [-100.67796611737, -101.46727247094, 37.008919528575], [-100.67796611737, -101.18201465462, 38.988472751231], [-100.67796611737, -100.8967567191, 40.968024066539], [-100.67796611737, -100.61149890279, 42.947577289195], [-100.67796611737, -100.32624096726, 44.927130511851], [-100.67796611737, -100.04098315095, 46.906681827159], [-100.67796611737, -99.755725275028, 48.886235049815], [-100.67796611737, -99.470467399108, 50.865788272472], [-100.67796611737, -99.185209523189, 52.845341495128], [-100.67796611737, -98.89995165472, 54.824890903087], [-100.67796611737, -98.614693801153, 56.804444125743], [-100.67796611737, -98.329435895431, 58.783997348399], [-100.67796611737, -98.044178079116, 60.763550571055], [-100.67796611737, -97.758920143592, 62.743103793712], [-100.67796611737, -97.473662327278, 64.722653201671], [-100.67796611737, -97.188404510963, 66.702206424327], [-100.67796611737, -96.903146694648, 68.681759646983], [-100.67796611737, -96.617888639915, 70.661312869639], [-100.67796611737, -96.3326308236, 72.640866092296], [-100.67796611737, -96.047373007286, 74.620415500255], [-100.67796611737, -95.762115190971, 76.599968722911], [-100.67796611737, -95.476857136238, 78.579521945567], [-100.67796611737, -95.191599319923, 80.559075168223], [-100.67796611737, -94.906341503608, 82.53862839088], [-100.67796611737, -94.621083687294, 84.518181613536], [-100.67796611737, -94.335825870979, 86.497734836192], [-100.67796611737, -94.050568054664, 88.477280429454], [-100.67796611737, -93.765310238349, 90.45683365211], [-100.67796611737, -93.480051945198, 92.436386874766], [-100.67796611737, -93.194794128883, 94.415940097423]], "InstanceCreationTime": ["151029.067000", "151028.988000", "151029.069000", "151028.990000", "151029.071000", "151028.994000", "151029.073000", "151028.997000", "151029.075000", "151029.000000", "151029.077000", "151029.002000", "151029.080000", "151029.004000", "151029.081000", "151029.006000", "151029.084000", "151029.008000", "151029.086000", "151029.011000", "151029.088000", "151029.013000", "151029.092000", "151029.015000", "151029.099000", "151029.017000", "151029.103000", "151029.019000", "151029.109000", "151029.021000", "151029.112000", "151029.023000", "151029.116000", "151029.025000", "151029.120000", "151029.027000", "151029.123000", "151029.029000", "151029.126000", "151029.031000", "151029.128000", "151029.034000", "151029.130000", "151029.036000", "151029.143000", "151029.039000", "151029.145000", "151029.040000", "151029.147000", "151029.043000", "151029.148000", "151029.045000", "151029.151000", "151029.047000", "151029.152000", "151029.049000", "151029.154000", "151029.051000", "151029.156000", "151029.053000", "151029.163000", "151029.056000", "151029.165000", "151029.058000", "151029.167000", "151029.060000", "151029.169000", "151029.061000", "151029.171000", "151029.064000", "151029.173000", "151029.065000"], "InstanceNumber": [1, 2, 3, 4, 5, 6, 7, 8, 9, 10, 11, 12, 13, 14, 15, 16, 17, 18, 19, 20, 21, 22, 23, 24, 25, 26, 27, 28, 29, 30, 31, 32, 33, 34, 35, 36, 37, 38, 39, 40, 41, 42, 43, 44, 45, 46, 47, 48, 49, 50, 51, 52, 53, 54, 55, 56, 57, 58, 59, 60, 61, 62, 63, 64, 65, 66, 67, 68, 69, 70, 71, 72], "LargestImagePixelValue": [4095, 4094, 4093, 4092, 4093, 4095, 4090, 4094, 4094, 4094, 4094, 4094, 4094, 4094, 4095, 4093, 4093, 4095, 4095, 4093, 4095, 4091, 4093, 4094, 4092, 4094, 4089, 4092, 4084, 4092, 4094, 4080, 4093, 4095, 4093, 4091, 4090, 4093, 4091, 4091, 4087, 4093, 4093, 4089, 4095, 4087, 4088, 4093, 4092, 4091, 4095, 4095, 4092, 4095, 4093, 4093, 4087, 4091, 4094, 4094, 4094, 4094, 4093, 4089, 4093, 4095, 4095, 4094, 4095, 4091, 4093, 4094], "SliceLocation": [-61.841618790307, -59.841621752219, -57.841621074456, -55.841620260671, -53.841619582907, -51.841618769122, -49.841621867056, -47.841621053271, -45.841620375507, -43.841619561722, -41.841618747937, -39.84162184587, -37.841621032086, -35.841620354322, -33.841619540537, -31.841620750622, -29.841619936837, -27.841621146922, -25.841620333137, -23.8416214072, -21.841620729437, -19.841619915652, -17.841621125737, -15.841620379963, -13.841620510102, -11.841620708252, -9.8416209064018, -7.8416206325897, -5.8416208307397, -3.8416205569276, -1.841620637087, 0.15837934174876, 2.1583793205846, 4.1583791904454, 6.1583794642575, 8.1583792661075, 10.158379067958, 12.158379813732, 14.158379615582, 16.158378473508, 18.158379253287, 20.158379999061, 22.158378856987, 24.158379602761, 26.15837847769, 28.158379223464, 30.158379986241, 32.158378844167, 34.158379598443, 36.158380352718, 38.158381106994, 40.15837808451, 42.158378835597, 44.158379594124, 46.158380339898, 48.158381102675, 50.158378072752, 52.158378818526, 54.158379564301, 56.15838034408, 58.158381089854, 60.158378059932, 62.158378805706, 64.158379585486, 66.15838033126, 68.158381077034, 70.158381822808, 72.158382568582, 74.158375762963, 76.158376508737, 78.158377322522, 80.158378068297], "SmallestImagePixelValue": [0, 0, 0, 1, 0, 0, 0, 0, 0, 0, 0, 0, 0, 0, 0, 0, 0, 0, 0, 0, 0, 0, 0, 2, 1, 0, 0, 0, 0, 0, 0, 1, 3, 11, 0, 6, 7, 0, 4, 4, 8, 2, 4, 1, 2, 0, 5, 0, 3, 0, 0, 0, 1, 0, 3, 0, 0, 3, 1, 0, 2, 0, 1, 1, 2, 0, 0, 0, 1, 3, 0, 0], "WindowCenter": [-352.0, -316.0, -312.0, -320.0, -364.0, -294.0, -302.0, -280.0, -246.0, -224.0, -196.0, -244.0, -226.0, -196.0, -108.0, -154.0, -158.0, -156.0, -260.0, -308.0, -298.0, -288.0, -258.0, -232.0, -226.0, -184.0, -116.0, -84.0, -38.0, -42.0, -42.0, -70.0, -90.0, -104.0, -116.0, -96.0, -46.0, -34.0, -36.0, -46.0, -32.0, -72.0, -70.0, -36.0, -50.0, -190.0, -82.0, -40.0, -38.0, -46.0, -54.0, -74.0, -72.0, -58.0, -70.0, -82.0, -78.0, -82.0, -84.0, -70.0, -98.0, -82.0, -50.0, -86.0, -86.0, -104.0, -98.0, -158.0, -244.0, -198.0, -240.0, -252.0], "WindowWidth": [6070.0, 6220.0, 6274.0, 6286.0, 6302.0, 6310.0, 6338.0, 6322.0, 6284.0, 6298.0, 6344.0, 6302.0, 6320.0, 6366.0, 6478.0, 6472.0, 6452.0, 6440.0, 6342.0, 6254.0, 6134.0, 6008.0, 5896.0, 5810.0, 5686.0, 5600.0, 5664.0, 5672.0, 5646.0, 5628.0, 5596.0, 5436.0, 5462.0, 5400.0, 5406.0, 5408.0, 5538.0, 5538.0, 5462.0, 5390.0, 5390.0, 5220.0, 5186.0, 5362.0, 5228.0, 4574.0, 5000.0, 5212.0, 5104.0, 5060.0, 5068.0, 4994.0, 5118.0, 5296.0, 5332.0, 5320.0, 5378.0, 5464.0, 5460.0, 5640.0, 5582.0, 5688.0, 5752.0, 5742.0, 5864.0, 5910.0, 5972.0, 5974.0, 5878.0, 5958.0, 6078.0, 6058.0]}}, "IntendedFor": ["ses-action01/func/sub-24_ses-action01_task-action_run-07_bold.nii.gz", "ses-action01/func/sub-24_ses-action01_task-action_run-08_bold.nii.gz", "ses-action01/func/sub-24_ses-action01_task-action_run-05_bold.nii.gz", "ses-action01/func/sub-24_ses-action01_task-action_run-03_bold.nii.gz", "ses-action01/func/sub-24_ses-action01_task-action_run-11_bold.nii.gz", "ses-action01/func/sub-24_ses-action01_task-action_run-01_bold.nii.gz", "ses-action01/func/sub-24_ses-action01_task-action_run-12_bold.nii.gz", "ses-action01/func/sub-24_ses-action01_task-action_run-02_bold.nii.gz", "ses-action01/func/sub-24_ses-action01_task-action_run-10_bold.nii.gz", "ses-action01/func/sub-24_ses-action01_task-action_run-09_bold.nii.gz", "ses-action01/func/sub-24_ses-action01_task-action_run-06_bold.nii.gz", "ses-action01/func/sub-24_ses-action01_task-action_run-04_bold.nii.gz"]}