{"AcquisitionMatrixPE": 100, "AcquisitionNumber": 1, "AcquisitionTime": "09:36:37.137500", "BaseResolution": 100, "BodyPartExamined": "BRAIN", "CoilCombinationMethod": "Sum of Squares", "ConsistencyInfo": "N4_VE11C_LATEST_20160120", "ConversionSoftware": "dcm2niix", "ConversionSoftwareVersion": "v1.0.20211006", "DeviceSerialNumber": "166078", "DwellTime": 8.8e-06, "EchoNumber": 2, "EchoTime": 0.00738, "EchoTime1": 0.00492, "EchoTime2": 0.00738, "FlipAngle": 60, "ImageOrientationPatientDICOM": [0.997595, -0.00798629, -0.0688557, 5.909e-11, 0.993341, -0.115214], "ImageOrientationText": "Tra>Cor(-6.6)>Sag(-4.0)", "ImageType": ["ORIGINAL", "PRIMARY", "P", "ND", "PHASE"], "ImagingFrequency": 123.258, "InPlanePhaseEncodingDirectionDICOM": "ROW", "InstitutionAddress": "Street StreetNo,Bei Jing,District,CN,ZIP", "InstitutionName": "BeiJing Normal University", "InstitutionalDepartmentName": "Department", "MRAcquisitionType": "2D", "MagneticFieldStrength": 3, "Manufacturer": "Siemens", "ManufacturersModelName": "Prisma", "MatrixCoilMode": "SENSE", "Modality": "MR", "PartialFourier": 1, "PatientPosition": "HFS", "PercentPhaseFOV": 100, "PercentSampling": 100, "PhaseEncodingDirection": "i", "PhaseEncodingSteps": 100, "PhaseResolution": 1, "PixelBandwidth": 570, "ProcedureStepDescription": "BNU_P2018_64CH^Zhen.ZongLei", "ProtocolName": "field_mapping_2x2x2", "PulseSequenceDetails": "%SiemensSeq%\\gre_field_mapping", "ReceiveCoilActiveElements": "HC1-7;NC1", "ReceiveCoilName": "HeadNeck_64", "ReconMatrixPE": 100, "RepetitionTime": 0.72, "SAR": 0.117034, "ScanningSequence": "GR", "SequenceName": "*fm2d2r", "SequenceVariant": "SP", "SeriesDescription": "field_mapping_2x2x2", "SeriesNumber": 12, "ShimSetting": [-5486, -11512, -1275, 305, -95, -247, -12, 79], "SliceThickness": 2, "SliceTiming": [0.35938, 0, 0.36719, 0.00781, 0.375, 0.01562, 0.38281, 0.02344, 0.39844, 0.03906, 0.40625, 0.04688, 0.41406, 0.05469, 0.42969, 0.0625, 0.4375, 0.07812, 0.44531, 0.08594, 0.45312, 0.09375, 0.46875, 0.10938, 0.47656, 0.11719, 0.48438, 0.125, 0.5, 0.13281, 0.50781, 0.14844, 0.51562, 0.15625, 0.52344, 0.16406, 0.53906, 0.17969, 0.54688, 0.1875, 0.55469, 0.19531, 0.5625, 0.20312, 0.57812, 0.21875, 0.58594, 0.22656, 0.59375, 0.23438, 0.60938, 0.25, 0.61719, 0.25781, 0.625, 0.26562, 0.63281, 0.27344, 0.64844, 0.28906, 0.65625, 0.29688, 0.66406, 0.30469, 0.67969, 0.3125, 0.6875, 0.32812, 0.69531, 0.33594, 0.70312, 0.34375], "SoftwareVersions": "syngo MR E11", "SpacingBetweenSlices": 2, "StationName": "AWP166078", "TxRefAmp": 220.789, "dcmmeta_affine": [[-1.9951893091201782, 1.1817999356900089e-10, -0.13863468170166016, 104.43452453613281], [0.015972578898072243, 1.9866814613342285, -0.2298727035522461, -73.7870864868164], [-0.1377113163471222, 0.23042714595794678, 1.981903076171875, -71.05198669433594], [0.0, 0.0, 0.0, 1.0]], "dcmmeta_reorient_transform": [[0.0, -1.0, 0.0, 99.0], [1.0, 0.0, 0.0, 0.0], [0.0, 0.0, -1.0, 71.0], [0.0, 0.0, 0.0, 1.0]], "dcmmeta_shape": [100, 100, 72], "dcmmeta_slice_dim": 2, "dcmmeta_version": 0.6, "global": {"const": {"AcquisitionMatrix": [0, 100, 100, 0], "AcquisitionNumber": 1, "AngioFlag": "N", "BitsAllocated": 16, "BitsStored": 12, "BodyPartExamined": "BRAIN", "Columns": 100, "EchoNumbers": 2, "EchoTime": 7.38, "EchoTrainLength": 0, "FlipAngle": 60.0, "HighBit": 11, "ImageOrientationPatient": [0.99759466583355, -0.0079862895746, -0.0688556597476, 5.909e-11, 0.99334074314406, -0.1152135756325], "ImageType": ["ORIGINAL", "PRIMARY", "P", "ND"], "ImagedNucleus": "1H", "ImagingFrequency": 123.257706, "InPlanePhaseEncodingDirection": "ROW", "MRAcquisitionType": "2D", "MagneticFieldStrength": 3.0, "Manufacturer": "SIEMENS", "ManufacturerModelName": "Prisma", "Modality": "MR", "NumberOfAverages": 1.0, "NumberOfPhaseEncodingSteps": 100, "PercentPhaseFieldOfView": 100.0, "PercentSampling": 100.0, "PerformedProcedureStepStartTime": "085431.095000", "PhotometricInterpretation": "MONOCHROME2", "PixelBandwidth": 570.0, "PixelRepresentation": 0, "PixelSpacing": [2.0, 2.0], "ProtocolName": "field_mapping_2x2x2", "RepetitionTime": 720.0, "RescaleIntercept": -4096.0, "RescaleSlope": 2.0, "RescaleType": "US", "Rows": 100, "SAR": 0.11703448891778, "SamplesPerPixel": 1, "ScanningSequence": "GR", "SequenceName": "*fm2d2r", "SequenceVariant": "SP", "SeriesDescription": "field_mapping_2x2x2", "SeriesNumber": 12, "SeriesTime": "093901.534000", "SliceThickness": 2.0, "SoftwareVersions": "syngo MR E11", "SpacingBetweenSlices": 2.0, "SpecificCharacterSet": "ISO_IR 100", "StudyID": "1", "StudyTime": "085430.986000", "TransmitCoilName": "Body", "VariableFlipAngleFlag": "N", "WindowCenterWidthExplanation": "Algo1", "dBdt": 0.0}, "slices": {"AcquisitionTime": ["093637.137500", "093636.777500", "093637.147500", "093636.787500", "093637.157500", "093636.797500", "093637.167500", "093636.807500", "093637.177500", "093636.817500", "093637.187500", "093636.827500", "093637.197500", "093636.837500", "093637.207500", "093636.847500", "093637.217500", "093636.857500", "093637.227500", "093636.867500", "093637.237500", "093636.877500", "093637.247500", "093636.887500", "093637.257500", "093636.897500", "093637.267500", "093636.907500", "093637.277500", "093636.917500", "093637.287500", "093636.927500", "093637.297500", "093636.937500", "093637.307500", "093636.947500", "093637.317500", "093636.957500", "093637.327500", "093636.967500", "093637.337500", "093636.977500", "093637.347500", "093636.987500", "093637.357500", "093636.997500", "093637.367500", "093637.007500", "093637.377500", "093637.017500", "093637.387500", "093637.027500", "093637.397500", "093637.037500", "093637.407500", "093637.047500", "093637.417500", "093637.057500", "093637.427500", "093637.067500", "093637.437500", "093637.077500", "093637.447500", "093637.087500", "093637.457500", "093637.097500", "093637.467500", "093637.107500", "093637.477500", "093637.117500", "093637.487500", "093637.127500"], "ContentTime": ["093901.643000", "093901.547000", "093901.645000", "093901.550000", "093901.647000", "093901.552000", "093901.649000", "093901.554000", "093901.652000", "093901.556000", "093901.654000", "093901.558000", "093901.656000", "093901.560000", "093901.657000", "093901.563000", "093901.660000", "093901.565000", "093901.662000", "093901.567000", "093901.665000", "093901.569000", "093901.666000", "093901.572000", "093901.669000", "093901.580000", "093901.671000", "093901.583000", "093901.673000", "093901.585000", "093901.675000", "093901.587000", "093901.680000", "093901.591000", "093901.683000", "093901.593000", "093901.685000", "093901.595000", "093901.686000", "093901.597000", "093901.688000", "093901.599000", "093901.690000", "093901.601000", "093901.693000", "093901.603000", "093901.694000", "093901.605000", "093901.696000", "093901.607000", "093901.698000", "093901.611000", "093901.700000", "093901.614000", "093901.702000", "093901.620000", "093901.705000", "093901.624000", "093901.707000", "093901.627000", "093901.709000", "093901.630000", "093901.711000", "093901.632000", "093901.713000", "093901.634000", "093901.715000", "093901.636000", "093901.717000", "093901.638000", "093901.719000", "093901.640000"], "CsaImage.GSWDDataType": ["predicted", "predicted", "measured", "predicted", "measured", "predicted", "measured", "predicted", "measured", "predicted", "measured", "predicted", "measured", "predicted", "measured", "predicted", "measured", "predicted", "measured", "predicted", "measured", "predicted", "measured", "predicted", "measured", "predicted", "measured", "predicted", "measured", "predicted", "measured", "predicted", "measured", "predicted", "measured", "predicted", "measured", "predicted", "measured", "predicted", "measured", "predicted", "measured", "predicted", "measured", "predicted", "measured", "predicted", "measured", "predicted", "measured", "predicted", "measured", "predicted", "measured", "predicted", "measured", "predicted", "measured", "predicted", "measured", "predicted", "measured", "predicted", "measured", "predicted", "measured", "predicted", "measured", "predicted", "measured", "predicted"], "CsaImage.ICE_Dims": ["X_2_1_1_1_1_1_37_1_1_1_1_50", "X_2_1_1_1_1_1_1_1_1_2_1_50", "X_2_1_1_1_1_1_38_1_1_3_1_50", "X_2_1_1_1_1_1_2_1_1_4_1_50", "X_2_1_1_1_1_1_39_1_1_5_1_50", "X_2_1_1_1_1_1_3_1_1_6_1_50", "X_2_1_1_1_1_1_40_1_1_7_1_50", "X_2_1_1_1_1_1_4_1_1_8_1_50", "X_2_1_1_1_1_1_41_1_1_9_1_50", "X_2_1_1_1_1_1_5_1_1_10_1_50", "X_2_1_1_1_1_1_42_1_1_11_1_50", "X_2_1_1_1_1_1_6_1_1_12_1_50", "X_2_1_1_1_1_1_43_1_1_13_1_50", "X_2_1_1_1_1_1_7_1_1_14_1_50", "X_2_1_1_1_1_1_44_1_1_15_1_50", "X_2_1_1_1_1_1_8_1_1_16_1_50", "X_2_1_1_1_1_1_45_1_1_17_1_50", "X_2_1_1_1_1_1_9_1_1_18_1_50", "X_2_1_1_1_1_1_46_1_1_19_1_50", "X_2_1_1_1_1_1_10_1_1_20_1_50", "X_2_1_1_1_1_1_47_1_1_21_1_50", "X_2_1_1_1_1_1_11_1_1_22_1_50", "X_2_1_1_1_1_1_48_1_1_23_1_50", "X_2_1_1_1_1_1_12_1_1_24_1_50", "X_2_1_1_1_1_1_49_1_1_25_1_50", "X_2_1_1_1_1_1_13_1_1_26_1_50", "X_2_1_1_1_1_1_50_1_1_27_1_50", "X_2_1_1_1_1_1_14_1_1_28_1_50", "X_2_1_1_1_1_1_51_1_1_29_1_50", "X_2_1_1_1_1_1_15_1_1_30_1_50", "X_2_1_1_1_1_1_52_1_1_31_1_50", "X_2_1_1_1_1_1_16_1_1_32_1_50", "X_2_1_1_1_1_1_53_1_1_33_1_50", "X_2_1_1_1_1_1_17_1_1_34_1_50", "X_2_1_1_1_1_1_54_1_1_35_1_50", "X_2_1_1_1_1_1_18_1_1_36_1_50", "X_2_1_1_1_1_1_55_1_1_37_1_50", "X_2_1_1_1_1_1_19_1_1_38_1_50", "X_2_1_1_1_1_1_56_1_1_39_1_50", "X_2_1_1_1_1_1_20_1_1_40_1_50", "X_2_1_1_1_1_1_57_1_1_41_1_50", "X_2_1_1_1_1_1_21_1_1_42_1_50", "X_2_1_1_1_1_1_58_1_1_43_1_50", "X_2_1_1_1_1_1_22_1_1_44_1_50", "X_2_1_1_1_1_1_59_1_1_45_1_50", "X_2_1_1_1_1_1_23_1_1_46_1_50", "X_2_1_1_1_1_1_60_1_1_47_1_50", "X_2_1_1_1_1_1_24_1_1_48_1_50", "X_2_1_1_1_1_1_61_1_1_49_1_50", "X_2_1_1_1_1_1_25_1_1_50_1_50", "X_2_1_1_1_1_1_62_1_1_51_1_50", "X_2_1_1_1_1_1_26_1_1_52_1_50", "X_2_1_1_1_1_1_63_1_1_53_1_50", "X_2_1_1_1_1_1_27_1_1_54_1_50", "X_2_1_1_1_1_1_64_1_1_55_1_50", "X_2_1_1_1_1_1_28_1_1_56_1_50", "X_2_1_1_1_1_1_65_1_1_57_1_50", "X_2_1_1_1_1_1_29_1_1_58_1_50", "X_2_1_1_1_1_1_66_1_1_59_1_50", "X_2_1_1_1_1_1_30_1_1_60_1_50", "X_2_1_1_1_1_1_67_1_1_61_1_50", "X_2_1_1_1_1_1_31_1_1_62_1_50", "X_2_1_1_1_1_1_68_1_1_63_1_50", "X_2_1_1_1_1_1_32_1_1_64_1_50", "X_2_1_1_1_1_1_69_1_1_65_1_50", "X_2_1_1_1_1_1_33_1_1_66_1_50", "X_2_1_1_1_1_1_70_1_1_67_1_50", "X_2_1_1_1_1_1_34_1_1_68_1_50", "X_2_1_1_1_1_1_71_1_1_69_1_50", "X_2_1_1_1_1_1_35_1_1_70_1_50", "X_2_1_1_1_1_1_72_1_1_71_1_50", "X_2_1_1_1_1_1_36_1_1_72_1_50"], "CsaImage.ProtocolSliceNumber": [0, 1, 2, 3, 4, 5, 6, 7, 8, 9, 10, 11, 12, 13, 14, 15, 16, 17, 18, 19, 20, 21, 22, 23, 24, 25, 26, 27, 28, 29, 30, 31, 32, 33, 34, 35, 36, 37, 38, 39, 40, 41, 42, 43, 44, 45, 46, 47, 48, 49, 50, 51, 52, 53, 54, 55, 56, 57, 58, 59, 60, 61, 62, 63, 64, 65, 66, 67, 68, 69, 70, 71], "CsaImage.RFSWDDataType": ["measured", "predicted", "measured", "predicted", "measured", "predicted", "measured", "predicted", "measured", "predicted", "measured", "predicted", "measured", "predicted", "measured", "predicted", "measured", "predicted", "measured", "predicted", "measured", "predicted", "measured", "predicted", "measured", "predicted", "measured", "predicted", "measured", "predicted", "measured", "predicted", "measured", "predicted", "measured", "predicted", "measured", "predicted", "measured", "predicted", "measured", "predicted", "measured", "predicted", "measured", "predicted", "measured", "predicted", "measured", "predicted", "measured", "predicted", "measured", "predicted", "measured", "predicted", "measured", "predicted", "measured", "predicted", "measured", "predicted", "measured", "predicted", "measured", "predicted", "measured", "predicted", "measured", "predicted", "measured", "measured"], "CsaImage.SlicePosition_PCS": [[-104.4345116, -122.89439311, -48.23968291], [-104.29587692, -122.66451945, -46.25777983], [-104.15724272, -122.4346477, -44.27587675], [-104.01860803, -122.20477405, -42.29397368], [-103.87997335, -121.9749023, -40.3120706], [-103.74133891, -121.74502864, -38.33016753], [-103.60270447, -121.51515498, -36.34826445], [-103.46406978, -121.28528323, -34.36636137], [-103.32543534, -121.05540958, -32.3844583], [-103.1868009, -120.82553783, -30.40255522], [-103.04816622, -120.59566417, -28.42065215], [-102.90953177, -120.36579051, -26.43874907], [-102.77089733, -120.13591876, -24.45684599], [-102.63226265, -119.9060451, -22.47494292], [-102.4936282, -119.67617335, -20.49303984], [-102.35499376, -119.4462997, -18.51113676], [-102.21635908, -119.21642604, -16.52923369], [-102.07772464, -118.98655429, -14.54733443], [-101.93908995, -118.75668063, -12.56542944], [-101.80045551, -118.52680697, -10.58352637], [-101.66182095, -118.29693523, -8.60162329], [-101.52318651, -118.06706157, -6.61972022], [-101.38455194, -117.83718982, -4.63781905], [-101.24591738, -117.60731616, -2.65591597], [-101.10728294, -117.3774425, -0.67401289], [-100.96864837, -117.14757075, 1.30789018], [-100.83001381, -116.9176971, 3.28979326], [-100.69137931, -116.68782535, 5.27169633], [-100.55274481, -116.45795169, 7.25359846], [-100.41411024, -116.22807803, 9.23550153], [-100.27547574, -115.99820628, 11.21740461], [-100.13684121, -115.76833263, 13.19930721], [-99.99820668, -115.53846088, 15.18121028], [-99.85957215, -115.30858722, 17.16311312], [-99.72093762, -115.07871356, 19.14501596], [-99.58230309, -114.84884181, 21.1269188], [-99.44366857, -114.61896815, 23.10882164], [-99.30503404, -114.38909545, 25.09072471], [-99.16639948, -114.15922275, 27.07262731], [-99.02776498, -113.92935004, 29.05453039], [-98.88913047, -113.69947734, 31.03643346], [-98.75049597, -113.46960368, 33.01833559], [-98.61186141, -113.23973098, 35.00023866], [-98.47322685, -113.00985828, 36.98214174], [-98.33459228, -112.77998557, 38.96404481], [-98.19595784, -112.55011287, 40.94594789], [-98.05732328, -112.32023921, 42.92785097], [-97.91868872, -112.09036651, 44.90975214], [-97.78005427, -111.8604938, 46.89165521], [-97.64141959, -111.6306211, 48.87355829], [-97.50278515, -111.4007484, 50.85546327], [-97.3641507, -111.17087474, 52.83736253], [-97.22551602, -110.94100204, 54.81926561], [-97.08688158, -110.71112933, 56.80116869], [-96.94824714, -110.48125663, 58.78307176], [-96.80961245, -110.25138393, 60.76497484], [-96.67097801, -110.02151027, 62.74687791], [-96.53234357, -109.79163756, 64.72878099], [-96.39370889, -109.56176486, 66.71068407], [-96.25507444, -109.33189216, 68.69258714], [-96.11644, -109.10201945, 70.67449022], [-95.97780532, -108.8721458, 72.6563933], [-95.83917087, -108.64227309, 74.63829637], [-95.70053619, -108.41240039, 76.62019945], [-95.56190199, -108.18252769, 78.60210252], [-95.42326731, -107.95265403, 80.5840056], [-95.28463262, -107.72278132, 82.56590486], [-95.14599842, -107.49290862, 84.54780794], [-95.00736374, -107.26303592, 86.52971101], [-94.86872906, -107.03316321, 88.51161409], [-94.73009485, -106.80328956, 90.49351717], [-94.59146017, -106.57341685, 92.47542024]], "CsaImage.TimeAfterStart": [1.0825, 0.7225, 1.0925, 0.7325, 1.1025, 0.7425, 1.1125, 0.7525, 1.1225, 0.7625, 1.1325, 0.7725, 1.1425, 0.7825, 1.1525, 0.7925, 1.1625, 0.8025, 1.1725, 0.8125, 1.1825, 0.8225, 1.1925, 0.8325, 1.2025, 0.8425, 1.2125, 0.8525, 1.2225, 0.8625, 1.2325, 0.8725, 1.2425, 0.8825, 1.2525, 0.8925, 1.2625, 0.9025, 1.2725, 0.9125, 1.2825, 0.9225, 1.2925, 0.9325, 1.3025, 0.9425, 1.3125, 0.9525, 1.3225, 0.9625, 1.3325, 0.9725, 1.3425, 0.9825, 1.3525, 0.9925, 1.3625, 1.0025, 1.3725, 1.0125, 1.3825, 1.0225, 1.3925, 1.0325, 1.4025, 1.0425, 1.4125, 1.0525, 1.4225, 1.0625, 1.4325, 1.0725], "ImagePositionPatient": [[-104.43451160269, -122.89439311085, -48.239682907311], [-104.29587692099, -122.66451945363, -46.25777983114], [-104.15724271613, -122.43464770375, -44.275876754968], [-104.01860803442, -122.20477404652, -42.293973678796], [-103.87997335272, -121.97490229664, -40.312070602624], [-103.74133890944, -121.74502863942, -38.330167526452], [-103.60270446616, -121.51515498219, -36.34826445028], [-103.46406978445, -121.28528323231, -34.366361374108], [-103.32543534117, -121.05540957509, -32.384458297936], [-103.18680089789, -120.82553782521, -30.402555221765], [-103.04816621619, -120.59566416798, -28.420652145593], [-102.9095317729, -120.36579051075, -26.438749069421], [-102.77089732962, -120.13591876088, -24.456845993249], [-102.63226264792, -119.90604510365, -22.474942917077], [-102.49362820464, -119.67617335377, -20.493039840905], [-102.35499376135, -119.44629969655, -18.511136764733], [-102.21635907965, -119.21642603932, -16.529233688562], [-102.07772463637, -118.98655428944, -14.547334427087], [-101.93908995467, -118.75668063221, -12.565429443566], [-101.80045551138, -118.52680697499, -10.583526367395], [-101.66182094889, -118.29693522511, -8.6016232912226], [-101.52318650561, -118.06706156788, -6.6197202150508], [-101.38455194312, -117.83718981801, -4.6378190462275], [-101.24591738062, -117.60731616078, -2.6559159700556], [-101.10728293734, -117.37744250355, -0.6740128938838], [-100.96864837485, -117.14757075367, 1.3078901822881], [-100.83001381236, -116.91769709645, 3.28979325846], [-100.69137930947, -116.68782534657, 5.2716963346319], [-100.55274480658, -116.45795168934, 7.2535984571294], [-100.41411024409, -116.22807803212, 9.2355015333013], [-100.2754757412, -115.99820628224, 11.217404609473], [-100.13684120851, -115.76833262501, 13.199307208808], [-99.998206675819, -115.53846087513, 15.18121028498], [-99.85957215058, -115.30858721791, 17.163113122733], [-99.72093761789, -115.07871356068, 19.145015960486], [-99.582303092651, -114.8488418108, 21.12691879824], [-99.443668574862, -114.61896815358, 23.108821635993], [-99.305034042172, -114.38909545002, 25.090724712165], [-99.166399479679, -114.15922274647, 27.0726273115], [-99.027764976791, -113.92935004292, 29.054530387671], [-98.889130473904, -113.69947733937, 31.036433463843], [-98.750495971016, -113.46960368214, 33.018335586341], [-98.611861408524, -113.23973097859, 35.000238662513], [-98.473226846031, -113.00985827504, 36.982141738685], [-98.334592283539, -112.77998557148, 38.964044814856], [-98.195957840256, -112.55011286793, 40.945947891028], [-98.057323277763, -112.32023921071, 42.9278509672], [-97.918688715271, -112.09036650715, 44.909752136023], [-97.780054271988, -111.8604938036, 46.891655212195], [-97.641419590286, -111.63062110005, 48.873558288367], [-97.502785147003, -111.4007483965, 50.855463271888], [-97.36415070372, -111.17087473927, 52.837362533362], [-97.225516022019, -110.94100203572, 54.819265609534], [-97.086881578735, -110.71112933217, 56.801168685706], [-96.948247135452, -110.48125662861, 58.783071761878], [-96.809612453751, -110.25138392506, 60.76497483805], [-96.670978010468, -110.02151026783, 62.746877914222], [-96.532343567185, -109.79163756428, 64.728780990394], [-96.393708885483, -109.56176486073, 66.710684066565], [-96.2550744422, -109.33189215718, 68.692587142737], [-96.116439998917, -109.10201945363, 70.674490218909], [-95.977805317215, -108.8721457964, 72.656393295081], [-95.839170873932, -108.64227309285, 74.638296371253], [-95.70053619223, -108.41240038929, 76.620199447425], [-95.561901987366, -108.18252768574, 78.602102523597], [-95.423267305664, -107.95265402852, 80.584005599769], [-95.284632623962, -107.72278132496, 82.565904861243], [-95.145998419098, -107.49290862141, 84.547807937415], [-95.007363737396, -107.26303591786, 86.529711013587], [-94.868729055695, -107.03316321431, 88.511614089759], [-94.73009485083, -106.80328955708, 90.493517165931], [-94.591460169129, -106.57341685353, 92.475420242103]], "InstanceCreationTime": ["093901.643000", "093901.547000", "093901.645000", "093901.550000", "093901.647000", "093901.552000", "093901.649000", "093901.554000", "093901.652000", "093901.556000", "093901.654000", "093901.558000", "093901.656000", "093901.560000", "093901.657000", "093901.563000", "093901.660000", "093901.565000", "093901.662000", "093901.567000", "093901.665000", "093901.569000", "093901.666000", "093901.572000", "093901.669000", "093901.580000", "093901.671000", "093901.583000", "093901.673000", "093901.585000", "093901.675000", "093901.587000", "093901.680000", "093901.591000", "093901.683000", "093901.593000", "093901.685000", "093901.595000", "093901.686000", "093901.597000", "093901.688000", "093901.599000", "093901.690000", "093901.601000", "093901.693000", "093901.603000", "093901.694000", "093901.605000", "093901.696000", "093901.607000", "093901.698000", "093901.611000", "093901.700000", "093901.614000", "093901.702000", "093901.620000", "093901.705000", "093901.624000", "093901.707000", "093901.627000", "093901.709000", "093901.630000", "093901.711000", "093901.632000", "093901.713000", "093901.634000", "093901.715000", "093901.636000", "093901.717000", "093901.638000", "093901.719000", "093901.640000"], "InstanceNumber": [1, 2, 3, 4, 5, 6, 7, 8, 9, 10, 11, 12, 13, 14, 15, 16, 17, 18, 19, 20, 21, 22, 23, 24, 25, 26, 27, 28, 29, 30, 31, 32, 33, 34, 35, 36, 37, 38, 39, 40, 41, 42, 43, 44, 45, 46, 47, 48, 49, 50, 51, 52, 53, 54, 55, 56, 57, 58, 59, 60, 61, 62, 63, 64, 65, 66, 67, 68, 69, 70, 71, 72], "LargestImagePixelValue": [4095, 4094, 4094, 4091, 4093, 4093, 4093, 4095, 4095, 4091, 4095, 4095, 4095, 4093, 4094, 4095, 4094, 4092, 4095, 4093, 4094, 4083, 4093, 4095, 4093, 4093, 4092, 4092, 4094, 4091, 4091, 4095, 4089, 4094, 4093, 4095, 4094, 4087, 4088, 4095, 4090, 4094, 4092, 4089, 4088, 4093, 4090, 4087, 4093, 4093, 4093, 4095, 4094, 4092, 4093, 4093, 4093, 4093, 4094, 4095, 4088, 4090, 4095, 4095, 4095, 4095, 4095, 4094, 4093, 4095, 4095, 4095], "SliceLocation": [-69.1673420026, -67.167341683451, -65.167341616579, -63.16734129743, -61.167341197505, -59.167340894882, -57.16734059226, -55.167340492335, -53.167340189712, -51.167340106314, -49.167339787165, -47.167339484542, -45.167339401143, -43.167339081994, -41.167338998596, -39.167338695973, -37.167338376824, -35.167342073605, -33.167339864366, -31.167339561744, -29.167339470082, -27.16733916746, -25.167340965888, -23.167340655002, -21.167340352379, -19.167340260717, -17.167339949832, -15.167339862301, -13.167340500592, -11.167340189706, -9.1673401021761, -7.1673402658786, -5.1673401762825, -3.1673401042402, -1.1673400316815, 0.83265982113687, 2.8326598926627, 4.8326600918707, 6.8326598206221, 8.8326600177643, 10.832660214906, 12.832659576616, 14.83265977789, 16.832659979163, 18.832660180437, 20.832660373448, 22.832660684334, 24.832658995517, 26.832659188528, 28.832659398065, 30.832661481166, 32.832658003608, 34.832658213145, 36.832658406156, 38.832658599167, 40.832658808704, 42.832659111326, 44.832659304337, 46.832659513874, 48.832659706884, 50.832659899895, 52.832660219044, 54.832660412055, 56.832660621592, 58.832660798076, 60.832661117225, 62.832657546582, 64.832657723066, 66.832657932603, 68.83265814214, 70.832658428236, 72.832658637773], "SmallestImagePixelValue": [0, 0, 0, 1, 3, 0, 0, 1, 0, 1, 0, 6, 2, 0, 0, 0, 0, 0, 0, 0, 0, 0, 0, 0, 0, 0, 2, 10, 1, 6, 0, 5, 0, 1, 0, 4, 0, 1, 4, 0, 3, 0, 1, 2, 0, 2, 0, 0, 0, 0, 0, 1, 4, 2, 0, 1, 0, 0, 0, 1, 0, 3, 0, 0, 0, 0, 0, 0, 0, 0, 0, 0], "WindowCenter": [-324.0, -264.0, -334.0, -288.0, -336.0, -286.0, -268.0, -176.0, -212.0, -196.0, -250.0, -228.0, -272.0, -260.0, -266.0, -250.0, -218.0, -166.0, -180.0, -192.0, -208.0, -220.0, -262.0, -270.0, -280.0, -238.0, -276.0, -238.0, -234.0, -192.0, -174.0, -176.0, -152.0, -152.0, -126.0, -116.0, -94.0, -60.0, -44.0, -26.0, -46.0, -48.0, -178.0, -12.0, -56.0, -168.0, -56.0, -58.0, -60.0, -212.0, -82.0, -252.0, -98.0, -270.0, -156.0, -236.0, -244.0, -88.0, -76.0, -56.0, -86.0, -46.0, -80.0, -130.0, -144.0, -184.0, -230.0, -236.0, -268.0, -312.0, -286.0, -348.0], "WindowWidth": [6084.0, 6096.0, 6000.0, 6032.0, 5942.0, 5958.0, 6070.0, 6186.0, 6142.0, 6130.0, 6116.0, 6178.0, 6108.0, 6064.0, 6010.0, 5970.0, 5932.0, 5916.0, 5880.0, 5828.0, 5708.0, 5676.0, 5622.0, 5508.0, 5358.0, 5532.0, 5358.0, 5426.0, 5448.0, 5570.0, 5558.0, 5532.0, 5540.0, 5450.0, 5478.0, 5406.0, 5310.0, 5372.0, 5284.0, 5306.0, 5166.0, 5098.0, 4576.0, 5368.0, 5138.0, 4580.0, 5120.0, 5114.0, 5296.0, 4618.0, 5314.0, 4654.0, 5256.0, 4678.0, 5140.0, 4696.0, 4714.0, 5384.0, 5510.0, 5580.0, 5578.0, 5770.0, 5830.0, 5916.0, 5978.0, 6038.0, 6046.0, 6138.0, 6102.0, 6156.0, 6224.0, 6278.0]}}, "IntendedFor": ["ses-action01/func/sub-12_ses-action01_task-action_run-10_bold.nii.gz", "ses-action01/func/sub-12_ses-action01_task-action_run-02_bold.nii.gz", "ses-action01/func/sub-12_ses-action01_task-action_run-12_bold.nii.gz", "ses-action01/func/sub-12_ses-action01_task-action_run-04_bold.nii.gz", "ses-action01/func/sub-12_ses-action01_task-action_run-09_bold.nii.gz", "ses-action01/func/sub-12_ses-action01_task-action_run-06_bold.nii.gz", "ses-action01/func/sub-12_ses-action01_task-action_run-05_bold.nii.gz", "ses-action01/func/sub-12_ses-action01_task-action_run-07_bold.nii.gz", "ses-action01/func/sub-12_ses-action01_task-action_run-08_bold.nii.gz", "ses-action01/func/sub-12_ses-action01_task-action_run-01_bold.nii.gz", "ses-action01/func/sub-12_ses-action01_task-action_run-11_bold.nii.gz", "ses-action01/func/sub-12_ses-action01_task-action_run-03_bold.nii.gz"]}