{"AcquisitionMatrixPE": 100, "AcquisitionNumber": 1, "AcquisitionTime": "14:02:18.137500", "BaseResolution": 100, "BodyPartExamined": "BRAIN", "CoilCombinationMethod": "Sum of Squares", "ConsistencyInfo": "N4_VE11C_LATEST_20160120", "ConversionSoftware": "dcm2niix", "ConversionSoftwareVersion": "v1.0.20211006", "DeviceSerialNumber": "166078", "DwellTime": 8.8e-06, "EchoNumber": 2, "EchoTime": 0.00738, "EchoTime1": 0.00492, "EchoTime2": 0.00738, "FlipAngle": 60, "ImageOrientationPatientDICOM": [1, 4.36726e-05, 0.000275811, -3.838e-12, 0.987695, -0.156394], "ImageOrientationText": "Tra>Cor(-9.0)>Sag(0.0)", "ImageType": ["ORIGINAL", "PRIMARY", "P", "ND", "PHASE"], "ImagingFrequency": 123.258, "InPlanePhaseEncodingDirectionDICOM": "ROW", "InstitutionAddress": "Street StreetNo,Bei Jing,District,CN,ZIP", "InstitutionName": "BeiJing Normal University", "InstitutionalDepartmentName": "Department", "MRAcquisitionType": "2D", "MagneticFieldStrength": 3, "Manufacturer": "Siemens", "ManufacturersModelName": "Prisma", "MatrixCoilMode": "SENSE", "Modality": "MR", "MultibandAccelerationFactor": 2, "PartialFourier": 1, "PatientPosition": "HFS", "PercentPhaseFOV": 100, "PercentSampling": 100, "PhaseEncodingDirection": "i", "PhaseEncodingSteps": 100, "PhaseResolution": 1, "PixelBandwidth": 570, "ProcedureStepDescription": "BNU_P2018_64CH^Zhen.ZongLei", "ProtocolName": "field_mapping_2x2x2", "PulseSequenceDetails": "%SiemensSeq%\\gre_field_mapping", "ReceiveCoilActiveElements": "HC1-7;NC1", "ReceiveCoilName": "HeadNeck_64", "ReconMatrixPE": 100, "RepetitionTime": 0.72, "SAR": 0.104928, "ScanningSequence": "GR", "SequenceName": "*fm2d2r", "SequenceVariant": "SP", "SeriesDescription": "field_mapping_2x2x2", "SeriesNumber": 10, "ShimSetting": [-5467, -11506, -1245, 455, -62, -283, -102, 109], "SliceThickness": 2, "SliceTiming": [0.35938, 0, 0.35938, 0, 0.375, 0.01562, 0.39062, 0.03125, 0.39062, 0.03125, 0.40625, 0.04688, 0.42188, 0.0625, 0.42188, 0.0625, 0.4375, 0.07812, 0.45312, 0.09375, 0.45312, 0.09375, 0.46875, 0.10938, 0.46875, 0.10938, 0.48438, 0.125, 0.5, 0.14062, 0.5, 0.14062, 0.51562, 0.15625, 0.53125, 0.17188, 0.53125, 0.17188, 0.54688, 0.1875, 0.5625, 0.20312, 0.5625, 0.20312, 0.57812, 0.21875, 0.59375, 0.21875, 0.59375, 0.23438, 0.60938, 0.25, 0.60938, 0.25, 0.625, 0.26562, 0.64062, 0.28125, 0.64062, 0.28125, 0.65625, 0.29688, 0.67188, 0.3125, 0.67188, 0.3125, 0.6875, 0.32812, 0.70312, 0.34375, 0.70312, 0.34375], "SoftwareVersions": "syngo MR E11", "SpacingBetweenSlices": 2, "StationName": "AWP166078", "TxRefAmp": 214.139, "dcmmeta_affine": [[-1.9999998807907104, -7.675999592893223e-12, 0.0005584955215454102, 101.8453140258789], [-8.734522998565808e-05, 1.9753894805908203, -0.3127884864807129, -77.54386138916016], [0.0005516215460374951, 0.3127884268760681, 1.9753875732421875, -78.04396057128906], [0.0, 0.0, 0.0, 1.0]], "dcmmeta_reorient_transform": [[0.0, -1.0, 0.0, 99.0], [1.0, 0.0, 0.0, 0.0], [0.0, 0.0, -1.0, 71.0], [0.0, 0.0, 0.0, 1.0]], "dcmmeta_shape": [100, 100, 72], "dcmmeta_slice_dim": 2, "dcmmeta_version": 0.6, "global": {"const": {"AcquisitionMatrix": [0, 100, 100, 0], "AcquisitionNumber": 1, "AngioFlag": "N", "BitsAllocated": 16, "BitsStored": 12, "BodyPartExamined": "BRAIN", "Columns": 100, "EchoNumbers": 2, "EchoTime": 7.38, "EchoTrainLength": 0, "FlipAngle": 60.0, "HighBit": 11, "ImageOrientationPatient": [0.99999996101056, 4.367261674e-05, 0.00027581077124, -3.838e-12, 0.98769471482414, -0.1563942144341], "ImageType": ["ORIGINAL", "PRIMARY", "P", "ND"], "ImagedNucleus": "1H", "ImagingFrequency": 123.257707, "InPlanePhaseEncodingDirection": "ROW", "MRAcquisitionType": "2D", "MagneticFieldStrength": 3.0, "Manufacturer": "SIEMENS", "ManufacturerModelName": "Prisma", "Modality": "MR", "NumberOfAverages": 1.0, "NumberOfPhaseEncodingSteps": 100, "PercentPhaseFieldOfView": 100.0, "PercentSampling": 100.0, "PerformedProcedureStepStartTime": "132337.977000", "PhotometricInterpretation": "MONOCHROME2", "PixelBandwidth": 570.0, "PixelRepresentation": 0, "PixelSpacing": [2.0, 2.0], "ProtocolName": "field_mapping_2x2x2", "RepetitionTime": 720.0, "RescaleIntercept": -4096.0, "RescaleSlope": 2.0, "RescaleType": "US", "Rows": 100, "SAR": 0.10492832412234, "SamplesPerPixel": 1, "ScanningSequence": "GR", "SequenceName": "*fm2d2r", "SequenceVariant": "SP", "SeriesDescription": "field_mapping_2x2x2", "SeriesNumber": 10, "SeriesTime": "140443.470000", "SliceThickness": 2.0, "SoftwareVersions": "syngo MR E11", "SpacingBetweenSlices": 2.0, "SpecificCharacterSet": "ISO_IR 100", "StudyID": "1", "StudyTime": "132337.914000", "TransmitCoilName": "Body", "VariableFlipAngleFlag": "N", "WindowCenterWidthExplanation": "Algo1", "dBdt": 0.0}, "slices": {"AcquisitionTime": ["140218.137500", "140217.777500", "140218.147500", "140217.787500", "140218.157500", "140217.797500", "140218.167500", "140217.807500", "140218.177500", "140217.817500", "140218.187500", "140217.827500", "140218.197500", "140217.837500", "140218.207500", "140217.847500", "140218.217500", "140217.857500", "140218.227500", "140217.867500", "140218.237500", "140217.877500", "140218.247500", "140217.887500", "140218.257500", "140217.897500", "140218.267500", "140217.907500", "140218.277500", "140217.917500", "140218.287500", "140217.927500", "140218.297500", "140217.937500", "140218.307500", "140217.947500", "140218.317500", "140217.957500", "140218.327500", "140217.967500", "140218.337500", "140217.977500", "140218.347500", "140217.987500", "140218.357500", "140217.997500", "140218.367500", "140218.007500", "140218.377500", "140218.017500", "140218.387500", "140218.027500", "140218.397500", "140218.037500", "140218.407500", "140218.047500", "140218.417500", "140218.057500", "140218.427500", "140218.067500", "140218.437500", "140218.077500", "140218.447500", "140218.087500", "140218.457500", "140218.097500", "140218.467500", "140218.107500", "140218.477500", "140218.117500", "140218.487500", "140218.127500"], "ContentTime": ["140443.543000", "140443.472000", "140443.545000", "140443.476000", "140443.547000", "140443.478000", "140443.549000", "140443.479000", "140443.551000", "140443.481000", "140443.553000", "140443.483000", "140443.554000", "140443.485000", "140443.556000", "140443.487000", "140443.558000", "140443.489000", "140443.560000", "140443.491000", "140443.562000", "140443.493000", "140443.565000", "140443.495000", "140443.567000", "140443.497000", "140443.569000", "140443.499000", "140443.571000", "140443.500000", "140443.573000", "140443.502000", "140443.575000", "140443.504000", "140443.577000", "140443.506000", "140443.579000", "140443.508000", "140443.581000", "140443.510000", "140443.583000", "140443.512000", "140443.585000", "140443.514000", "140443.587000", "140443.516000", "140443.589000", "140443.518000", "140443.591000", "140443.520000", "140443.593000", "140443.522000", "140443.595000", "140443.524000", "140443.597000", "140443.526000", "140443.599000", "140443.528000", "140443.601000", "140443.529000", "140443.603000", "140443.531000", "140443.605000", "140443.533000", "140443.607000", "140443.535000", "140443.609000", "140443.537000", "140443.611000", "140443.539000", "140443.613000", "140443.541000"], "CsaImage.GSWDDataType": ["measured", "predicted", "measured", "predicted", "measured", "predicted", "measured", "predicted", "measured", "predicted", "measured", "predicted", "measured", "predicted", "measured", "predicted", "measured", "predicted", "measured", "predicted", "measured", "predicted", "measured", "predicted", "measured", "predicted", "measured", "predicted", "measured", "predicted", "measured", "predicted", "measured", "predicted", "measured", "predicted", "measured", "predicted", "measured", "predicted", "measured", "predicted", "measured", "predicted", "measured", "predicted", "measured", "predicted", "measured", "predicted", "measured", "predicted", "measured", "predicted", "measured", "predicted", "measured", "predicted", "measured", "predicted", "measured", "predicted", "measured", "predicted", "measured", "predicted", "measured", "measured", "measured", "measured", "measured", "measured"], "CsaImage.ICE_Dims": ["X_2_1_1_1_1_1_37_1_1_1_1_176", "X_2_1_1_1_1_1_1_1_1_2_1_176", "X_2_1_1_1_1_1_38_1_1_3_1_176", "X_2_1_1_1_1_1_2_1_1_4_1_176", "X_2_1_1_1_1_1_39_1_1_5_1_176", "X_2_1_1_1_1_1_3_1_1_6_1_176", "X_2_1_1_1_1_1_40_1_1_7_1_176", "X_2_1_1_1_1_1_4_1_1_8_1_176", "X_2_1_1_1_1_1_41_1_1_9_1_176", "X_2_1_1_1_1_1_5_1_1_10_1_176", "X_2_1_1_1_1_1_42_1_1_11_1_176", "X_2_1_1_1_1_1_6_1_1_12_1_176", "X_2_1_1_1_1_1_43_1_1_13_1_176", "X_2_1_1_1_1_1_7_1_1_14_1_176", "X_2_1_1_1_1_1_44_1_1_15_1_176", "X_2_1_1_1_1_1_8_1_1_16_1_176", "X_2_1_1_1_1_1_45_1_1_17_1_176", "X_2_1_1_1_1_1_9_1_1_18_1_176", "X_2_1_1_1_1_1_46_1_1_19_1_176", "X_2_1_1_1_1_1_10_1_1_20_1_176", "X_2_1_1_1_1_1_47_1_1_21_1_176", "X_2_1_1_1_1_1_11_1_1_22_1_176", "X_2_1_1_1_1_1_48_1_1_23_1_176", "X_2_1_1_1_1_1_12_1_1_24_1_176", "X_2_1_1_1_1_1_49_1_1_25_1_176", "X_2_1_1_1_1_1_13_1_1_26_1_176", "X_2_1_1_1_1_1_50_1_1_27_1_176", "X_2_1_1_1_1_1_14_1_1_28_1_176", "X_2_1_1_1_1_1_51_1_1_29_1_176", "X_2_1_1_1_1_1_15_1_1_30_1_176", "X_2_1_1_1_1_1_52_1_1_31_1_176", "X_2_1_1_1_1_1_16_1_1_32_1_176", "X_2_1_1_1_1_1_53_1_1_33_1_176", "X_2_1_1_1_1_1_17_1_1_34_1_176", "X_2_1_1_1_1_1_54_1_1_35_1_176", "X_2_1_1_1_1_1_18_1_1_36_1_176", "X_2_1_1_1_1_1_55_1_1_37_1_176", "X_2_1_1_1_1_1_19_1_1_38_1_176", "X_2_1_1_1_1_1_56_1_1_39_1_176", "X_2_1_1_1_1_1_20_1_1_40_1_176", "X_2_1_1_1_1_1_57_1_1_41_1_176", "X_2_1_1_1_1_1_21_1_1_42_1_176", "X_2_1_1_1_1_1_58_1_1_43_1_176", "X_2_1_1_1_1_1_22_1_1_44_1_176", "X_2_1_1_1_1_1_59_1_1_45_1_176", "X_2_1_1_1_1_1_23_1_1_46_1_176", "X_2_1_1_1_1_1_60_1_1_47_1_176", "X_2_1_1_1_1_1_24_1_1_48_1_176", "X_2_1_1_1_1_1_61_1_1_49_1_176", "X_2_1_1_1_1_1_25_1_1_50_1_176", "X_2_1_1_1_1_1_62_1_1_51_1_176", "X_2_1_1_1_1_1_26_1_1_52_1_176", "X_2_1_1_1_1_1_63_1_1_53_1_176", "X_2_1_1_1_1_1_27_1_1_54_1_176", "X_2_1_1_1_1_1_64_1_1_55_1_176", "X_2_1_1_1_1_1_28_1_1_56_1_176", "X_2_1_1_1_1_1_65_1_1_57_1_176", "X_2_1_1_1_1_1_29_1_1_58_1_176", "X_2_1_1_1_1_1_66_1_1_59_1_176", "X_2_1_1_1_1_1_30_1_1_60_1_176", "X_2_1_1_1_1_1_67_1_1_61_1_176", "X_2_1_1_1_1_1_31_1_1_62_1_176", "X_2_1_1_1_1_1_68_1_1_63_1_176", "X_2_1_1_1_1_1_32_1_1_64_1_176", "X_2_1_1_1_1_1_69_1_1_65_1_176", "X_2_1_1_1_1_1_33_1_1_66_1_176", "X_2_1_1_1_1_1_70_1_1_67_1_176", "X_2_1_1_1_1_1_34_1_1_68_1_176", "X_2_1_1_1_1_1_71_1_1_69_1_176", "X_2_1_1_1_1_1_35_1_1_70_1_176", "X_2_1_1_1_1_1_72_1_1_71_1_176", "X_2_1_1_1_1_1_36_1_1_72_1_176"], "CsaImage.ProtocolSliceNumber": [0, 1, 2, 3, 4, 5, 6, 7, 8, 9, 10, 11, 12, 13, 14, 15, 16, 17, 18, 19, 20, 21, 22, 23, 24, 25, 26, 27, 28, 29, 30, 31, 32, 33, 34, 35, 36, 37, 38, 39, 40, 41, 42, 43, 44, 45, 46, 47, 48, 49, 50, 51, 52, 53, 54, 55, 56, 57, 58, 59, 60, 61, 62, 63, 64, 65, 66, 67, 68, 69, 70, 71], "CsaImage.RFSWDDataType": ["measured", "predicted", "measured", "predicted", "measured", "predicted", "measured", "predicted", "measured", "predicted", "measured", "predicted", "measured", "predicted", "measured", "predicted", "measured", "predicted", "measured", "predicted", "measured", "predicted", "measured", "predicted", "measured", "predicted", "measured", "predicted", "measured", "predicted", "measured", "predicted", "measured", "predicted", "measured", "predicted", "measured", "predicted", "measured", "predicted", "measured", "predicted", "measured", "predicted", "measured", "predicted", "measured", "predicted", "measured", "predicted", "measured", "predicted", "measured", "predicted", "measured", "predicted", "measured", "predicted", "measured", "predicted", "measured", "predicted", "measured", "measured", "measured", "measured", "measured", "measured", "measured", "measured", "measured", "measured"], "CsaImage.SlicePosition_PCS": [[-101.84531108, -118.01968263, -47.07802856], [-101.84586958, -117.70689462, -45.10263717], [-101.84642807, -117.39410661, -43.1272496], [-101.84698657, -117.0813167, -41.15185821], [-101.84754506, -116.76852869, -39.17647064], [-101.84810356, -116.45574068, -37.20107925], [-101.84866205, -116.14295267, -35.22569168], [-101.84922055, -115.83016275, -33.2503041], [-101.84977904, -115.51737474, -31.27491272], [-101.85033742, -115.20458673, -29.29952514], [-101.85089592, -114.89179872, -27.32413375], [-101.85145441, -114.57900976, -25.34874618], [-101.85201291, -114.26622175, -23.37335479], [-101.8525714, -113.95343374, -21.39796722], [-101.8531299, -113.64064477, -19.42257583], [-101.85368839, -113.32785676, -17.44718826], [-101.85424689, -113.0150678, -15.47179878], [-101.85480538, -112.70227979, -13.4964093], [-101.85536388, -112.38949083, -11.52101982], [-101.85592238, -112.07670282, -9.54563034], [-101.85648087, -111.76391481, -7.57024086], [-101.85703937, -111.45112585, -5.59485138], [-101.85759786, -111.13833784, -3.6194619], [-101.85815636, -110.82554887, -1.64407241], [-101.85871485, -110.51276086, 0.33131707], [-101.85927335, -110.19997285, 2.30670559], [-101.85983184, -109.88718389, 4.28209507], [-101.86039034, -109.57439588, 6.25748455], [-101.86094884, -109.26160692, 8.23287403], [-101.86150733, -108.94881891, 10.20826352], [-101.86206583, -108.6360309, 12.18365276], [-101.86262432, -108.32324193, 14.15904212], [-101.86318282, -108.01045393, 16.13443142], [-101.86374131, -107.69766496, 18.10982072], [-101.86429981, -107.38487695, 20.08520996], [-101.8648583, -107.07208894, 22.06059945], [-101.8654168, -106.75929998, 24.03598893], [-101.8659753, -106.44651149, 26.01137841], [-101.86653379, -106.13372348, 27.98676789], [-101.86709229, -105.820935, 29.96215737], [-101.86765078, -105.50814651, 31.93754685], [-101.86820928, -105.19535802, 33.91293633], [-101.86876777, -104.88256954, 35.88832581], [-101.86932627, -104.56978105, 37.86371529], [-101.86988476, -104.25699304, 39.83910286], [-101.87044326, -103.94420455, 41.81449234], [-101.87100176, -103.63141607, 43.78988182], [-101.87156025, -103.31862758, 45.76527131], [-101.87211875, -103.0058391, 47.74066269], [-101.87267724, -102.69305085, 49.71605027], [-101.87323574, -102.38026236, 51.69144165], [-101.87379423, -102.06747411, 53.66682923], [-101.87435273, -101.75468563, 55.6422168], [-101.87491122, -101.44189738, 57.61760819], [-101.87546972, -101.12910889, 59.59299576], [-101.87602821, -100.8163204, 61.56838715], [-101.87658671, -100.50353204, 63.54377472], [-101.87714521, -100.19074367, 65.51916611], [-101.8777037, -99.8779553, 67.49455368], [-101.8782622, -99.56516688, 69.46994507], [-101.87882069, -99.25237845, 71.44533265], [-101.87937919, -98.93959005, 73.42072403], [-101.87993768, -98.62680166, 75.39611161], [-101.88049618, -98.31401326, 77.37150299], [-101.88105467, -98.00122486, 79.34689057], [-101.88161317, -97.68843649, 81.32228196], [-101.88217167, -97.37564801, 83.29766953], [-101.88273016, -97.06285964, 85.2730571], [-101.88328866, -96.75007127, 87.24844468], [-101.88384715, -96.43728279, 89.22383988], [-101.88440565, -96.12449454, 91.19922745], [-101.88496414, -95.81170605, 93.17461502]], "CsaImage.TimeAfterStart": [1.0825, 0.7225, 1.0925, 0.7325, 1.1025, 0.7425, 1.1125, 0.7525, 1.1225, 0.7625, 1.1325, 0.7725, 1.1425, 0.7825, 1.1525, 0.7925, 1.1625, 0.8025, 1.1725, 0.8125, 1.1825, 0.8225, 1.1925, 0.8325, 1.2025, 0.8425, 1.2125, 0.8525, 1.2225, 0.8625, 1.2325, 0.8725, 1.2425, 0.8825, 1.2525, 0.8925, 1.2625, 0.9025, 1.2725, 0.9125, 1.2825, 0.9225, 1.2925, 0.9325, 1.3025, 0.9425, 1.3125, 0.9525, 1.3225, 0.9625, 1.3325, 0.9725, 1.3425, 0.9825, 1.3525, 0.9925, 1.3625, 1.0025, 1.3725, 1.0125, 1.3825, 1.0225, 1.3925, 1.0325, 1.4025, 1.0425, 1.4125, 1.0525, 1.4225, 1.0625, 1.4325, 1.0725], "ImagePositionPatient": [[-101.84531108023, -118.01968263142, -47.078028560716], [-101.84586957575, -117.70689462177, -45.102637172776], [-101.84642807127, -117.39410661213, -43.127249599534], [-101.84698656679, -117.08131669514, -41.151858211595], [-101.84754506231, -116.76852868549, -39.176470638352], [-101.84810355783, -116.45574067585, -37.201079250413], [-101.84866205335, -116.14295266621, -35.225691677171], [-101.84922054888, -115.83016274922, -33.250304103929], [-101.8497790444, -115.51737473957, -31.274912715989], [-101.85033742071, -115.20458672993, -29.299525142747], [-101.85089591623, -114.89179872028, -27.324133754808], [-101.85145441175, -114.57900975697, -25.348746181565], [-101.85201290727, -114.26622174732, -23.373354793626], [-101.8525714028, -113.95343373768, -21.397967220384], [-101.85312989832, -113.64064477436, -19.422575832444], [-101.85368839384, -113.32785676472, -17.447188259202], [-101.85424688936, -113.0150678014, -15.471798778611], [-101.85480538488, -112.70227979176, -13.49640929802], [-101.8553638804, -112.38949082844, -11.52101981743], [-101.85592237593, -112.0767028188, -9.5456303368388], [-101.85648087145, -111.76391480915, -7.570240856248], [-101.85703936697, -111.45112584583, -5.5948513756572], [-101.85759786249, -111.13833783619, -3.6194618950663], [-101.85815635801, -110.82554887287, -1.6440724144755], [-101.85871485353, -110.51276086323, 0.3313170661153], [-101.85927334905, -110.19997285359, 2.3067055930318], [-101.85983184458, -109.88718389027, 4.2820950736226], [-101.8603903401, -109.57439588062, 6.2574845542134], [-101.86094883562, -109.26160691731, 8.2328740348043], [-101.86150733114, -108.94881890766, 10.208263515395], [-101.86206582666, -108.63603089802, 12.183652757567], [-101.86262432218, -108.3232419347, 14.159042118949], [-101.86318281771, -108.01045392506, 16.134431420726], [-101.86374131323, -107.69766496174, 18.109820722503], [-101.86429980875, -107.3848769521, 20.085209964675], [-101.86485830427, -107.07208894245, 22.060599445266], [-101.86541679979, -106.75929997913, 24.035988925857], [-101.86597529531, -106.44651149265, 26.011378406447], [-101.86653379083, -106.13372348301, 27.986767887038], [-101.86709228636, -105.82093499653, 29.962157367629], [-101.86765078188, -105.50814651005, 31.93754684822], [-101.8682092774, -105.19535802357, 33.912936328811], [-101.86876777292, -104.88256953709, 35.888325809401], [-101.86932626844, -104.56978105061, 37.863715289992], [-101.86988476396, -104.25699304096, 39.839102863234], [-101.87044325949, -103.94420455448, 41.814492343825], [-101.87100175501, -103.631416068, 43.789881824416], [-101.87156025053, -103.31862758152, 45.765271305007], [-101.87211874605, -103.00583909504, 47.740662692946], [-101.87267724157, -102.69305084698, 49.716050266189], [-101.87323573709, -102.3802623605, 51.691441654128], [-101.87379423261, -102.06747411244, 53.66682922737], [-101.87435272814, -101.75468562595, 55.642216800612], [-101.87491122366, -101.44189737789, 57.617608188552], [-101.87546971918, -101.12910889141, 59.592995761794], [-101.8760282147, -100.81632040493, 61.568387149733], [-101.87658671022, -100.50353203766, 63.543774722976], [-101.87714520574, -100.19074367039, 65.519166110915], [-101.87770370127, -99.877955303117, 67.494553684157], [-101.87826219679, -99.565166876241, 69.469945072097], [-101.87882069231, -99.252378449365, 71.445332645339], [-101.87937918783, -98.939590052291, 73.420724033278], [-101.87993768335, -98.626801655217, 75.396111606521], [-101.88049617887, -98.314013258143, 77.37150299446], [-101.8810546744, -98.00122486107, 79.346890567702], [-101.88161316992, -97.688436493798, 81.322281955642], [-101.88217166544, -97.375648007317, 83.297669528884], [-101.88273016096, -97.062859640046, 85.273057102126], [-101.88328865648, -96.750071272775, 87.248444675368], [-101.883847152, -96.437282786294, 89.223839878005], [-101.88440564752, -96.124494538232, 91.199227451247], [-101.88496414305, -95.811706051751, 93.174615024489]], "InstanceCreationTime": ["140443.543000", "140443.472000", "140443.545000", "140443.476000", "140443.547000", "140443.478000", "140443.549000", "140443.479000", "140443.551000", "140443.481000", "140443.553000", "140443.483000", "140443.554000", "140443.485000", "140443.556000", "140443.487000", "140443.558000", "140443.489000", "140443.560000", "140443.491000", "140443.562000", "140443.493000", "140443.565000", "140443.495000", "140443.567000", "140443.497000", "140443.569000", "140443.499000", "140443.571000", "140443.500000", "140443.573000", "140443.502000", "140443.575000", "140443.504000", "140443.577000", "140443.506000", "140443.579000", "140443.508000", "140443.581000", "140443.510000", "140443.583000", "140443.512000", "140443.585000", "140443.514000", "140443.587000", "140443.516000", "140443.589000", "140443.518000", "140443.591000", "140443.520000", "140443.593000", "140443.522000", "140443.595000", "140443.524000", "140443.597000", "140443.526000", "140443.599000", "140443.528000", "140443.601000", "140443.529000", "140443.603000", "140443.531000", "140443.605000", "140443.533000", "140443.607000", "140443.535000", "140443.609000", "140443.537000", "140443.611000", "140443.539000", "140443.613000", "140443.541000"], "InstanceNumber": [1, 2, 3, 4, 5, 6, 7, 8, 9, 10, 11, 12, 13, 14, 15, 16, 17, 18, 19, 20, 21, 22, 23, 24, 25, 26, 27, 28, 29, 30, 31, 32, 33, 34, 35, 36, 37, 38, 39, 40, 41, 42, 43, 44, 45, 46, 47, 48, 49, 50, 51, 52, 53, 54, 55, 56, 57, 58, 59, 60, 61, 62, 63, 64, 65, 66, 67, 68, 69, 70, 71, 72], "LargestImagePixelValue": [4094, 4093, 4095, 4094, 4094, 4095, 4094, 4094, 4095, 4094, 4095, 4094, 4095, 4095, 4095, 4095, 4094, 4095, 4095, 4092, 4095, 4094, 4093, 4094, 4091, 4095, 4094, 4095, 4095, 4092, 4094, 4095, 4092, 4094, 4094, 4094, 4094, 4090, 4093, 4092, 4094, 4095, 4085, 4095, 4091, 4095, 4094, 4094, 4094, 4095, 4093, 4091, 4092, 4090, 4094, 4094, 4090, 4094, 4094, 4092, 4095, 4095, 4095, 4094, 4094, 4091, 4094, 4093, 4093, 4095, 4093, 4094], "SliceLocation": [-64.927873017931, -62.927871071322, -60.92787289247, -58.927870647563, -56.92787246871, -54.927870522101, -52.927872343249, -50.927873866098, -48.927871919489, -46.92787374067, -44.927871794061, -42.927873466059, -40.92787151945, -38.927873340598, -36.92787124484, -34.927873065987, -32.927872854107, -30.927872791377, -28.927872579497, -26.927872516766, -24.927872454036, -22.927872242156, -20.927872179425, -18.927871967545, -16.927871904815, -14.927872784023, -12.927872572143, -10.927872509412, -8.9278722975327, -6.927872234802, -4.9278724075561, -2.9278723134186, -0.9278724273015, 1.0721276079647, 3.0721274352106, 5.0721274979413, 7.0721277098211, 9.0721278471264, 11.072127909857, 13.072128047162, 15.072128184468, 17.072128321773, 19.072128459078, 21.072128596383, 23.072126775236, 25.072126912541, 27.072127049846, 29.072127187152, 31.072129208335, 33.072127424475, 35.072129445658, 37.072127661798, 39.072125915225, 41.072127899121, 43.072126152548, 45.072128173732, 47.072126408515, 49.072128411055, 51.072126645839, 53.0721286577, 55.072126901805, 57.072128909006, 59.07212714845, 61.072129155651, 63.072127395095, 65.072129397635, 67.072127651062, 69.072125885846, 71.072124120629, 73.072129909569, 75.072128125709, 77.072126379136], "SmallestImagePixelValue": [0, 0, 0, 2, 0, 0, 0, 1, 0, 0, 0, 3, 0, 0, 0, 0, 0, 0, 1, 0, 2, 4, 2, 8, 0, 0, 1, 0, 5, 0, 2, 2, 0, 4, 0, 5, 0, 1, 2, 3, 1, 0, 0, 19, 0, 4, 0, 3, 4, 0, 0, 0, 0, 0, 3, 0, 1, 0, 3, 1, 0, 1, 1, 0, 0, 0, 0, 0, 0, 0, 0, 0], "WindowCenter": [-172.0, -170.0, -184.0, -240.0, -278.0, -316.0, -266.0, -202.0, -132.0, -78.0, -90.0, -94.0, -26.0, -102.0, -82.0, -94.0, -138.0, -164.0, -172.0, -244.0, -246.0, -238.0, -252.0, -260.0, -234.0, -192.0, -138.0, -100.0, -50.0, -88.0, -66.0, -90.0, -112.0, -138.0, -180.0, -196.0, -178.0, -164.0, -162.0, -132.0, -140.0, -116.0, -114.0, -74.0, -64.0, -48.0, -28.0, -180.0, 8.0, -150.0, 24.0, 26.0, 34.0, -12.0, 6.0, -12.0, 4.0, 8.0, -14.0, -26.0, -30.0, -46.0, -66.0, -78.0, -98.0, -136.0, -150.0, -228.0, -288.0, -282.0, -328.0, -314.0], "WindowWidth": [6082.0, 6214.0, 6242.0, 6286.0, 6330.0, 6392.0, 6410.0, 6448.0, 6496.0, 6468.0, 6432.0, 6514.0, 6676.0, 6752.0, 6792.0, 6756.0, 6610.0, 6432.0, 6336.0, 6192.0, 6048.0, 5990.0, 5842.0, 5734.0, 5730.0, 5650.0, 5658.0, 5700.0, 5724.0, 5660.0, 5646.0, 5548.0, 5518.0, 5496.0, 5460.0, 5552.0, 5574.0, 5532.0, 5480.0, 5484.0, 5446.0, 5364.0, 5394.0, 5384.0, 5378.0, 5348.0, 5332.0, 4594.0, 5370.0, 4586.0, 5318.0, 5330.0, 5366.0, 5300.0, 5362.0, 5342.0, 5560.0, 5538.0, 5612.0, 5636.0, 5744.0, 5764.0, 5814.0, 5892.0, 5910.0, 5974.0, 6008.0, 6016.0, 6016.0, 6018.0, 6046.0, 6140.0]}}, "IntendedFor": ["ses-action01/func/sub-16_ses-action01_task-action_run-02_bold.nii.gz", "ses-action01/func/sub-16_ses-action01_task-action_run-12_bold.nii.gz", "ses-action01/func/sub-16_ses-action01_task-action_run-10_bold.nii.gz", "ses-action01/func/sub-16_ses-action01_task-action_run-06_bold.nii.gz", "ses-action01/func/sub-16_ses-action01_task-action_run-09_bold.nii.gz", "ses-action01/func/sub-16_ses-action01_task-action_run-04_bold.nii.gz", "ses-action01/func/sub-16_ses-action01_task-action_run-08_bold.nii.gz", "ses-action01/func/sub-16_ses-action01_task-action_run-07_bold.nii.gz", "ses-action01/func/sub-16_ses-action01_task-action_run-05_bold.nii.gz", "ses-action01/func/sub-16_ses-action01_task-action_run-03_bold.nii.gz", "ses-action01/func/sub-16_ses-action01_task-action_run-01_bold.nii.gz", "ses-action01/func/sub-16_ses-action01_task-action_run-11_bold.nii.gz"]}