{
  "AcquisitionMatrixPE": 100,
  "AcquisitionNumber": 1,
  "AcquisitionTime": "11:12:11.007500",
  "BandwidthPerPixelPhaseEncode": 18.519,
  "BaseResolution": 100,
  "BodyPartExamined": "BRAIN",
  "CoilCombinationMethod": "Sum of Squares",
  "ConsistencyInfo": "N4_VE11C_LATEST_20160120",
  "ConversionSoftware": "dcm2niix",
  "ConversionSoftwareVersion": "v1.0.20211006",
  "DerivedVendorReportedEchoSpacing": 0.000539986,
  "DeviceSerialNumber": "166078",
  "DwellTime": 2.1e-06,
  "EchoTime": 0.034,
  "EchoTrainLength": 100,
  "EffectiveEchoSpacing": 0.000539986,
  "FlipAngle": 90,
  "ImageOrientationPatientDICOM": [0.999781, 0.00153383, 0.0208862, -4.39894e-08, 0.997314, -0.0732382],
  "ImageOrientationText": "Tra>Cor(-4.2)>Sag(1.2)",
  "ImageType": [
    "ORIGINAL",
    "PRIMARY",
    "M",
    "ND",
    "MOSAIC"
],
  "ImagingFrequency": 123.258,
  "InPlanePhaseEncodingDirectionDICOM": "COL",
  "InstitutionAddress": "Street StreetNo,Bei Jing,District,CN,ZIP",
  "InstitutionName": "BeiJing Normal University",
  "InstitutionalDepartmentName": "Department",
  "MRAcquisitionType": "2D",
  "MagneticFieldStrength": 3,
  "Manufacturer": "Siemens",
  "ManufacturersModelName": "Prisma",
  "Modality": "MR",
  "MultibandAccelerationFactor": 3,
  "PartialFourier": 1,
  "PatientPosition": "HFS",
  "PercentPhaseFOV": 100,
  "PercentSampling": 100,
  "PhaseEncodingDirection": "j-",
  "PhaseEncodingSteps": 100,
  "PhaseResolution": 1,
  "PixelBandwidth": 2380,
  "ProcedureStepDescription": "BNU_P2018_64CH^Zhen.ZongLei",
  "ProtocolName": "bold_100x100_s3_2x2x2_static_156",
  "PulseSequenceDetails": "%SiemensSeq%\\ep2d_bold",
  "ReceiveCoilActiveElements": "HC1-7;NC1",
  "ReceiveCoilName": "HeadNeck_64",
  "ReconMatrixPE": 100,
  "RefLinesPE": 32,
  "RepetitionTime": 2,
  "SAR": 0.0818343,
  "ScanOptions": "FS",
  "ScanningSequence": "EP",
  "SequenceName": "*epfid2d1_100",
  "SequenceVariant": "SK",
  "SeriesDescription": "bold_100x100_s3_2x2x2_static_156",
  "SeriesNumber": 11,
  "ShimSetting": [-5453, -11507, -1253, 220, -16, -160, -116, 33],
  "SliceThickness": 2,
  "SliceTiming": [1.485, 0, 0.99, 0.0825, 1.0725, 0.165, 1.155, 0.2475, 1.2375, 0.33, 1.32, 0.4125, 1.4025, 0.5775, 1.5675, 0.66, 1.65, 0.7425, 1.7325, 0.825, 1.815, 0.9075, 1.8975, 0.495, 1.485, 0, 0.99, 0.0825, 1.0725, 0.165, 1.155, 0.2475, 1.2375, 0.33, 1.32, 0.4125, 1.4025, 0.5775, 1.5675, 0.66, 1.65, 0.7425, 1.7325, 0.825, 1.815, 0.9075, 1.8975, 0.495, 1.485, 0, 0.99, 0.0825, 1.0725, 0.165, 1.155, 0.2475, 1.2375, 0.33, 1.32, 0.4125, 1.4025, 0.5775, 1.5675, 0.66, 1.65, 0.7425, 1.7325, 0.825, 1.815, 0.9075, 1.8975, 0.495],
  "SoftwareVersions": "syngo MR E11",
  "SpacingBetweenSlices": 2,
  "StationName": "AWP166078",
  "TaskName": "action",
  "TotalReadoutTime": 0.0534586,
  "TxRefAmp": 248.101,
  "dcmmeta_affine": [
    [-1.9995613098144531, -8.797884021305435e-08, 0.04188484698534012, 98.49115753173828],
    [-0.0030676585156470537, 1.99462890625, -0.14644427597522736, -84.2965087890625],
    [0.04177235811948776, 0.1464764028787613, 1.9941915273666382, -80.05976104736328],
    [0.0, 0.0, 0.0, 1.0]
],
  "dcmmeta_reorient_transform": [
    [0.0, -1.0, 0.0, 99.0],
    [1.0, 0.0, 0.0, 0.0],
    [0.0, 0.0, 1.0, 0.0],
    [0.0, 0.0, 0.0, 1.0]
],
  "dcmmeta_shape": [100, 100, 72, 156],
  "dcmmeta_slice_dim": 2,
  "dcmmeta_version": 0.6,
  "global": {
    "const": {
      "AcquisitionMatrix": [100, 0, 0, 100],
      "AngioFlag": "N",
      "BitsAllocated": 16,
      "BitsStored": 12,
      "BodyPartExamined": "BRAIN",
      "Columns": 900,
      "EchoNumbers": 1,
      "EchoTime": 34.0,
      "EchoTrainLength": 100,
      "FlipAngle": 90.0,
      "HighBit": 11,
      "ImageOrientationPatient": [0.99978068341424, 0.00153382924523, 0.02088617819523, -4.398942e-08, 0.9973144768881, -0.073238201708],
      "ImagePositionPatient": [-898.31566370866, -912.25040560423, -23.676979192522],
      "ImageType": [
        "ORIGINAL",
        "PRIMARY",
        "M",
        "ND",
        "MOSAIC"
],
      "ImagedNucleus": "1H",
      "ImagingFrequency": 123.25773,
      "InPlanePhaseEncodingDirection": "COL",
      "MRAcquisitionType": "2D",
      "MagneticFieldStrength": 3.0,
      "Manufacturer": "SIEMENS",
      "ManufacturerModelName": "Prisma",
      "Modality": "MR",
      "NumberOfAverages": 1.0,
      "NumberOfPhaseEncodingSteps": 100,
      "PercentPhaseFieldOfView": 100.0,
      "PercentSampling": 100.0,
      "PerformedProcedureStepStartTime": "101939.936000",
      "PhotometricInterpretation": "MONOCHROME2",
      "PixelBandwidth": 2380.0,
      "PixelRepresentation": 0,
      "PixelSpacing": [2.0, 2.0],
      "ProtocolName": "bold_100x100_s3_2x2x2_static_156",
      "RepetitionTime": 2000.0,
      "Rows": 900,
      "SAR": 0.08183426003667,
      "SamplesPerPixel": 1,
      "ScanOptions": "FS",
      "ScanningSequence": "EP",
      "SequenceName": "*epfid2d1_100",
      "SequenceVariant": "SK",
      "SeriesDescription": "bold_100x100_s3_2x2x2_static_156",
      "SeriesNumber": 11,
      "SeriesTime": "111213.764000",
      "SliceLocation": -71.592234382304,
      "SliceThickness": 2.0,
      "SmallestImagePixelValue": 0,
      "SoftwareVersions": "syngo MR E11",
      "SpacingBetweenSlices": 2.0000000592766,
      "SpecificCharacterSet": "ISO_IR 100",
      "StudyID": "1",
      "StudyTime": "101939.870000",
      "TransmitCoilName": "Body",
      "VariableFlipAngleFlag": "N",
      "WindowCenterWidthExplanation": "Algo1",
      "dBdt": 0.0},
    "slices": {}
  },
  "time": {
    "samples": {
      "AcquisitionNumber": [1, 2, 3, 4, 5, 6, 7, 8, 9, 10, 11, 12, 13, 14, 15, 16, 17, 18, 19, 20, 21, 22, 23, 24, 25, 26, 27, 28, 29, 30, 31, 32, 33, 34, 35, 36, 37, 38, 39, 40, 41, 42, 43, 44, 45, 46, 47, 48, 49, 50, 51, 52, 53, 54, 55, 56, 57, 58, 59, 60, 61, 62, 63, 64, 65, 66, 67, 68, 69, 70, 71, 72, 73, 74, 75, 76, 77, 78, 79, 80, 81, 82, 83, 84, 85, 86, 87, 88, 89, 90, 91, 92, 93, 94, 95, 96, 97, 98, 99, 100, 101, 102, 103, 104, 105, 106, 107, 108, 109, 110, 111, 112, 113, 114, 115, 116, 117, 118, 119, 120, 121, 122, 123, 124, 125, 126, 127, 128, 129, 130, 131, 132, 133, 134, 135, 136, 137, 138, 139, 140, 141, 142, 143, 144, 145, 146, 147, 148, 149, 150, 151, 152, 153, 154, 155, 156],
      "AcquisitionTime": ["111211.007500", "111213.007500", "111215.007500", "111217.007500", "111219.007500", "111221.007500", "111223.007500", "111225.007500", "111227.007500", "111229.007500", "111231.007500", "111233.007500", "111235.007500", "111237.007500", "111239.007500", "111241.007500", "111243.007500", "111245.007500", "111247.007500", "111249.007500", "111251.007500", "111253.007500", "111255.007500", "111257.007500", "111259.007500", "111301.007500", "111303.007500", "111305.007500", "111307.007500", "111309.007500", "111311.007500", "111313.007500", "111315.007500", "111317.007500", "111319.007500", "111321.007500", "111323.007500", "111325.007500", "111327.007500", "111329.007500", "111331.007500", "111333.007500", "111335.007500", "111337.007500", "111339.007500", "111341.007500", "111343.007500", "111345.007500", "111347.007500", "111349.007500", "111351.007500", "111353.007500", "111355.007500", "111357.007500", "111359.007500", "111401.007500", "111403.007500", "111405.007500", "111407.007500", "111409.007500", "111411.007500", "111413.007500", "111415.007500", "111417.007500", "111419.007500", "111421.007500", "111423.007500", "111425.007500", "111427.007500", "111429.007500", "111431.007500", "111433.007500", "111435.007500", "111437.007500", "111439.007500", "111441.007500", "111443.007500", "111445.007500", "111447.007500", "111449.007500", "111451.007500", "111453.007500", "111455.007500", "111457.007500", "111459.007500", "111501.007500", "111503.007500", "111505.007500", "111507.007500", "111509.007500", "111511.007500", "111513.007500", "111515.007500", "111517.007500", "111519.007500", "111521.007500", "111523.007500", "111525.007500", "111527.007500", "111529.007500", "111531.007500", "111533.007500", "111535.007500", "111537.007500", "111539.007500", "111541.007500", "111543.007500", "111545.007500", "111547.007500", "111549.007500", "111551.007500", "111553.007500", "111555.007500", "111557.007500", "111559.007500", "111601.007500", "111603.007500", "111605.007500", "111607.007500", "111609.007500", "111611.007500", "111613.007500", "111615.007500", "111617.007500", "111619.007500", "111621.007500", "111623.007500", "111625.007500", "111627.007500", "111629.007500", "111631.007500", "111633.007500", "111635.007500", "111637.007500", "111639.007500", "111641.007500", "111643.007500", "111645.007500", "111647.007500", "111649.007500", "111651.007500", "111653.007500", "111655.007500", "111657.007500", "111659.007500", "111701.007500", "111703.007500", "111705.007500", "111707.007500", "111709.007500", "111711.007500", "111713.007500", "111715.007500", "111717.007500", "111719.007500", "111721.007500"],
      "ContentTime": ["111213.767000", "111215.263000", "111217.763000", "111219.262000", "111221.263000", "111223.763000", "111225.263000", "111227.262000", "111229.263000", "111231.262000", "111233.262000", "111235.262000", "111237.262000", "111239.262000", "111241.263000", "111243.763000", "111245.262000", "111247.263000", "111249.262000", "111251.262000", "111253.263000", "111255.263000", "111257.263000", "111259.263000", "111301.262000", "111303.262000", "111305.263000", "111307.263000", "111309.263000", "111311.262000", "111313.263000", "111315.263000", "111317.264000", "111319.263000", "111321.763000", "111323.263000", "111325.263000", "111327.263000", "111329.262000", "111331.263000", "111333.263000", "111335.264000", "111337.262000", "111339.262000", "111341.263000", "111343.263000", "111345.262000", "111347.263000", "111349.263000", "111351.263000", "111353.263000", "111355.263000", "111357.263000", "111359.263000", "111401.263000", "111403.263000", "111405.262000", "111407.263000", "111409.264000", "111411.262000", "111413.263000", "111415.263000", "111417.262000", "111419.263000", "111421.263000", "111423.263000", "111425.264000", "111427.263000", "111429.263000", "111431.262000", "111433.262000", "111435.263000", "111437.262000", "111439.263000", "111441.262000", "111443.264000", "111445.263000", "111447.262000", "111449.262000", "111451.262000", "111453.263000", "111455.263000", "111457.262000", "111459.263000", "111501.263000", "111503.264000", "111505.263000", "111507.263000", "111509.263000", "111511.763000", "111513.263000", "111515.262000", "111517.263000", "111519.263000", "111521.262000", "111523.263000", "111525.763000", "111527.262000", "111529.262000", "111531.262000", "111533.763000", "111535.263000", "111537.763000", "111539.263000", "111541.262000", "111543.262000", "111545.262000", "111547.263000", "111549.262000", "111551.263000", "111553.264000", "111555.263000", "111557.262000", "111559.763000", "111601.762000", "111603.263000", "111605.262000", "111607.262000", "111609.264000", "111611.263000", "111613.263000", "111615.263000", "111617.263000", "111619.263000", "111621.263000", "111623.262000", "111625.263000", "111627.264000", "111629.264000", "111631.263000", "111633.263000", "111635.262000", "111637.263000", "111639.262000", "111641.263000", "111643.263000", "111645.264000", "111647.264000", "111649.263000", "111651.263000", "111653.262000", "111655.262000", "111657.262000", "111659.263000", "111701.262000", "111703.263000", "111705.264000", "111707.262000", "111709.262000", "111711.262000", "111713.262000", "111715.263000", "111717.263000", "111719.264000", "111721.264000", "111723.154000"],
      "InstanceCreationTime": ["111213.767000", "111215.263000", "111217.763000", "111219.262000", "111221.263000", "111223.763000", "111225.263000", "111227.262000", "111229.263000", "111231.262000", "111233.262000", "111235.262000", "111237.262000", "111239.262000", "111241.263000", "111243.763000", "111245.262000", "111247.263000", "111249.262000", "111251.262000", "111253.263000", "111255.263000", "111257.263000", "111259.263000", "111301.262000", "111303.262000", "111305.263000", "111307.263000", "111309.263000", "111311.262000", "111313.263000", "111315.263000", "111317.264000", "111319.263000", "111321.763000", "111323.263000", "111325.263000", "111327.263000", "111329.262000", "111331.263000", "111333.263000", "111335.264000", "111337.262000", "111339.262000", "111341.263000", "111343.263000", "111345.262000", "111347.263000", "111349.263000", "111351.263000", "111353.263000", "111355.263000", "111357.263000", "111359.263000", "111401.263000", "111403.263000", "111405.262000", "111407.263000", "111409.264000", "111411.262000", "111413.263000", "111415.263000", "111417.262000", "111419.263000", "111421.263000", "111423.263000", "111425.264000", "111427.263000", "111429.263000", "111431.262000", "111433.262000", "111435.263000", "111437.262000", "111439.263000", "111441.262000", "111443.264000", "111445.263000", "111447.262000", "111449.262000", "111451.262000", "111453.263000", "111455.263000", "111457.262000", "111459.263000", "111501.263000", "111503.264000", "111505.263000", "111507.263000", "111509.263000", "111511.763000", "111513.263000", "111515.262000", "111517.263000", "111519.263000", "111521.262000", "111523.263000", "111525.763000", "111527.262000", "111529.262000", "111531.262000", "111533.763000", "111535.263000", "111537.763000", "111539.263000", "111541.262000", "111543.262000", "111545.262000", "111547.263000", "111549.262000", "111551.263000", "111553.264000", "111555.263000", "111557.262000", "111559.763000", "111601.762000", "111603.263000", "111605.262000", "111607.262000", "111609.264000", "111611.263000", "111613.263000", "111615.263000", "111617.263000", "111619.263000", "111621.263000", "111623.262000", "111625.263000", "111627.264000", "111629.264000", "111631.263000", "111633.263000", "111635.262000", "111637.263000", "111639.262000", "111641.263000", "111643.263000", "111645.264000", "111647.264000", "111649.263000", "111651.263000", "111653.262000", "111655.262000", "111657.262000", "111659.263000", "111701.262000", "111703.263000", "111705.264000", "111707.262000", "111709.262000", "111711.262000", "111713.262000", "111715.263000", "111717.263000", "111719.264000", "111721.264000", "111723.154000"],
      "InstanceNumber": [1, 2, 3, 4, 5, 6, 7, 8, 9, 10, 11, 12, 13, 14, 15, 16, 17, 18, 19, 20, 21, 22, 23, 24, 25, 26, 27, 28, 29, 30, 31, 32, 33, 34, 35, 36, 37, 38, 39, 40, 41, 42, 43, 44, 45, 46, 47, 48, 49, 50, 51, 52, 53, 54, 55, 56, 57, 58, 59, 60, 61, 62, 63, 64, 65, 66, 67, 68, 69, 70, 71, 72, 73, 74, 75, 76, 77, 78, 79, 80, 81, 82, 83, 84, 85, 86, 87, 88, 89, 90, 91, 92, 93, 94, 95, 96, 97, 98, 99, 100, 101, 102, 103, 104, 105, 106, 107, 108, 109, 110, 111, 112, 113, 114, 115, 116, 117, 118, 119, 120, 121, 122, 123, 124, 125, 126, 127, 128, 129, 130, 131, 132, 133, 134, 135, 136, 137, 138, 139, 140, 141, 142, 143, 144, 145, 146, 147, 148, 149, 150, 151, 152, 153, 154, 155, 156],
      "LargestImagePixelValue": [3187, 3139, 3119, 3142, 3112, 3143, 3120, 3167, 3142, 3138, 3181, 3148, 3162, 3161, 3143, 3160, 3133, 3152, 3149, 3124, 3132, 3129, 3129, 3122, 3229, 3141, 3134, 3084, 3090, 3132, 3147, 3180, 3174, 3146, 3170, 3147, 3166, 3126, 3136, 3145, 3175, 3144, 3142, 3146, 3147, 3156, 3153, 3154, 3130, 3148, 3141, 3128, 3159, 3141, 3148, 3182, 3170, 3213, 3179, 3166, 3131, 3182, 3167, 3196, 3161, 3143, 3193, 3210, 3161, 3165, 3112, 3158, 3153, 3145, 3143, 3148, 3161, 3123, 3123, 3162, 3147, 3155, 3173, 3162, 3163, 3153, 3141, 3133, 3147, 3147, 3118, 3163, 3267, 3170, 3171, 3166, 3171, 3150, 3162, 3164, 3175, 3176, 3154, 3154, 3160, 3138, 3114, 3157, 3151, 3142, 3127, 3150, 3159, 3146, 3157, 3157, 3152, 3160, 3173, 3165, 3122, 3142, 3185, 3157, 3154, 3125, 3130, 3134, 3158, 3146, 3146, 3156, 3171, 3156, 3132, 3136, 3160, 3241, 3135, 3155, 3152, 3146, 3114, 3150, 3124, 3162, 3157, 3162, 3150, 3152, 3141, 3162, 3149, 3127, 3145, 3127],
      "WindowCenter": [819.0, 817.0, 817.0, 819.0, 819.0, 818.0, 816.0, 816.0, 817.0, 818.0, 817.0, 814.0, 815.0, 815.0, 816.0, 819.0, 818.0, 817.0, 816.0, 816.0, 816.0, 816.0, 817.0, 816.0, 816.0, 816.0, 818.0, 820.0, 819.0, 816.0, 813.0, 811.0, 810.0, 809.0, 811.0, 811.0, 814.0, 816.0, 816.0, 815.0, 812.0, 811.0, 812.0, 814.0, 814.0, 812.0, 812.0, 813.0, 816.0, 817.0, 815.0, 814.0, 814.0, 814.0, 815.0, 816.0, 816.0, 818.0, 819.0, 820.0, 819.0, 819.0, 819.0, 820.0, 821.0, 819.0, 817.0, 816.0, 818.0, 820.0, 817.0, 814.0, 812.0, 810.0, 810.0, 809.0, 809.0, 808.0, 808.0, 809.0, 809.0, 810.0, 811.0, 812.0, 814.0, 814.0, 815.0, 815.0, 815.0, 814.0, 814.0, 814.0, 815.0, 816.0, 816.0, 815.0, 815.0, 817.0, 817.0, 816.0, 814.0, 812.0, 812.0, 814.0, 816.0, 816.0, 814.0, 813.0, 812.0, 813.0, 812.0, 812.0, 811.0, 810.0, 810.0, 810.0, 811.0, 812.0, 812.0, 813.0, 814.0, 815.0, 814.0, 815.0, 815.0, 815.0, 813.0, 812.0, 812.0, 811.0, 810.0, 810.0, 811.0, 813.0, 815.0, 814.0, 814.0, 814.0, 813.0, 814.0, 817.0, 818.0, 816.0, 813.0, 812.0, 811.0, 810.0, 810.0, 810.0, 809.0, 809.0, 810.0, 812.0, 813.0, 813.0, 813.0],
      "WindowWidth": [1726.0, 1721.0, 1721.0, 1726.0, 1725.0, 1721.0, 1718.0, 1718.0, 1720.0, 1722.0, 1719.0, 1714.0, 1714.0, 1716.0, 1719.0, 1725.0, 1722.0, 1719.0, 1716.0, 1719.0, 1717.0, 1718.0, 1721.0, 1719.0, 1718.0, 1718.0, 1724.0, 1729.0, 1726.0, 1717.0, 1711.0, 1706.0, 1703.0, 1702.0, 1707.0, 1708.0, 1713.0, 1719.0, 1719.0, 1715.0, 1710.0, 1706.0, 1710.0, 1714.0, 1713.0, 1709.0, 1709.0, 1712.0, 1719.0, 1720.0, 1717.0, 1714.0, 1713.0, 1713.0, 1716.0, 1717.0, 1719.0, 1723.0, 1727.0, 1728.0, 1726.0, 1726.0, 1727.0, 1727.0, 1730.0, 1726.0, 1720.0, 1719.0, 1725.0, 1728.0, 1722.0, 1714.0, 1709.0, 1705.0, 1704.0, 1702.0, 1701.0, 1700.0, 1700.0, 1701.0, 1701.0, 1704.0, 1706.0, 1709.0, 1712.0, 1714.0, 1716.0, 1715.0, 1715.0, 1714.0, 1713.0, 1712.0, 1717.0, 1719.0, 1717.0, 1715.0, 1716.0, 1720.0, 1721.0, 1718.0, 1714.0, 1709.0, 1708.0, 1714.0, 1718.0, 1717.0, 1714.0, 1709.0, 1709.0, 1710.0, 1709.0, 1709.0, 1706.0, 1704.0, 1703.0, 1704.0, 1706.0, 1708.0, 1708.0, 1710.0, 1713.0, 1714.0, 1714.0, 1716.0, 1716.0, 1716.0, 1712.0, 1709.0, 1707.0, 1705.0, 1705.0, 1704.0, 1706.0, 1710.0, 1715.0, 1713.0, 1713.0, 1713.0, 1710.0, 1713.0, 1721.0, 1723.0, 1717.0, 1711.0, 1707.0, 1707.0, 1705.0, 1703.0, 1704.0, 1702.0, 1701.0, 1703.0, 1708.0, 1710.0, 1710.0, 1710.0]
    },
    "slices": {}
  }
}