{
  "AcquisitionMatrixPE": 100,
  "AcquisitionNumber": 1,
  "AcquisitionTime": "10:56:35.585000",
  "BandwidthPerPixelPhaseEncode": 18.519,
  "BaseResolution": 100,
  "BodyPartExamined": "BRAIN",
  "CoilCombinationMethod": "Sum of Squares",
  "ConsistencyInfo": "N4_VE11C_LATEST_20160120",
  "ConversionSoftware": "dcm2niix",
  "ConversionSoftwareVersion": "v1.0.20211006",
  "DerivedVendorReportedEchoSpacing": 0.000539986,
  "DeviceSerialNumber": "166078",
  "DwellTime": 2.1e-06,
  "EchoTime": 0.034,
  "EchoTrainLength": 100,
  "EffectiveEchoSpacing": 0.000539986,
  "FlipAngle": 90,
  "ImageOrientationPatientDICOM": [0.999781, 0.00153383, 0.0208862, -4.39894e-08, 0.997314, -0.0732382],
  "ImageOrientationText": "Tra>Cor(-4.2)>Sag(1.2)",
  "ImageType": [
    "ORIGINAL",
    "PRIMARY",
    "M",
    "ND",
    "MOSAIC"
],
  "ImagingFrequency": 123.258,
  "InPlanePhaseEncodingDirectionDICOM": "COL",
  "InstitutionAddress": "Street StreetNo,Bei Jing,District,CN,ZIP",
  "InstitutionName": "BeiJing Normal University",
  "InstitutionalDepartmentName": "Department",
  "MRAcquisitionType": "2D",
  "MagneticFieldStrength": 3,
  "Manufacturer": "Siemens",
  "ManufacturersModelName": "Prisma",
  "Modality": "MR",
  "MultibandAccelerationFactor": 3,
  "PartialFourier": 1,
  "PatientPosition": "HFS",
  "PercentPhaseFOV": 100,
  "PercentSampling": 100,
  "PhaseEncodingDirection": "j-",
  "PhaseEncodingSteps": 100,
  "PhaseResolution": 1,
  "PixelBandwidth": 2380,
  "ProcedureStepDescription": "BNU_P2018_64CH^Zhen.ZongLei",
  "ProtocolName": "bold_100x100_s3_2x2x2_static_156",
  "PulseSequenceDetails": "%SiemensSeq%\\ep2d_bold",
  "ReceiveCoilActiveElements": "HC1-7;NC1",
  "ReceiveCoilName": "HeadNeck_64",
  "ReconMatrixPE": 100,
  "RefLinesPE": 32,
  "RepetitionTime": 2,
  "SAR": 0.0818343,
  "ScanOptions": "FS",
  "ScanningSequence": "EP",
  "SequenceName": "*epfid2d1_100",
  "SequenceVariant": "SK",
  "SeriesDescription": "bold_100x100_s3_2x2x2_static_156",
  "SeriesNumber": 7,
  "ShimSetting": [-5453, -11507, -1253, 220, -16, -160, -116, 33],
  "SliceThickness": 2,
  "SliceTiming": [1.485, 0, 0.99, 0.0825, 1.0725, 0.165, 1.155, 0.2475, 1.2375, 0.33, 1.32, 0.4125, 1.4025, 0.5775, 1.5675, 0.66, 1.65, 0.7425, 1.7325, 0.825, 1.815, 0.9075, 1.8975, 0.495, 1.485, 0, 0.99, 0.0825, 1.0725, 0.165, 1.155, 0.2475, 1.2375, 0.33, 1.32, 0.4125, 1.4025, 0.5775, 1.5675, 0.66, 1.65, 0.7425, 1.7325, 0.825, 1.815, 0.9075, 1.8975, 0.495, 1.485, 0, 0.99, 0.0825, 1.0725, 0.165, 1.155, 0.2475, 1.2375, 0.33, 1.32, 0.4125, 1.4025, 0.5775, 1.5675, 0.66, 1.65, 0.7425, 1.7325, 0.825, 1.815, 0.9075, 1.8975, 0.495],
  "SoftwareVersions": "syngo MR E11",
  "SpacingBetweenSlices": 2,
  "StationName": "AWP166078",
  "TaskName": "action",
  "TotalReadoutTime": 0.0534586,
  "TxRefAmp": 248.101,
  "dcmmeta_affine": [
    [-1.9995613098144531, -8.797884021305435e-08, 0.04188484698534012, 98.49115753173828],
    [-0.0030676585156470537, 1.99462890625, -0.14644427597522736, -84.2965087890625],
    [0.04177235811948776, 0.1464764028787613, 1.9941915273666382, -80.05976104736328],
    [0.0, 0.0, 0.0, 1.0]
],
  "dcmmeta_reorient_transform": [
    [0.0, -1.0, 0.0, 99.0],
    [1.0, 0.0, 0.0, 0.0],
    [0.0, 0.0, 1.0, 0.0],
    [0.0, 0.0, 0.0, 1.0]
],
  "dcmmeta_shape": [100, 100, 72, 156],
  "dcmmeta_slice_dim": 2,
  "dcmmeta_version": 0.6,
  "global": {
    "const": {
      "AcquisitionMatrix": [100, 0, 0, 100],
      "AngioFlag": "N",
      "BitsAllocated": 16,
      "BitsStored": 12,
      "BodyPartExamined": "BRAIN",
      "Columns": 900,
      "EchoNumbers": 1,
      "EchoTime": 34.0,
      "EchoTrainLength": 100,
      "FlipAngle": 90.0,
      "HighBit": 11,
      "ImageOrientationPatient": [0.99978068341424, 0.00153382924523, 0.02088617819523, -4.398942e-08, 0.9973144768881, -0.073238201708],
      "ImagePositionPatient": [-898.31566370866, -912.25040560423, -23.676979192522],
      "ImageType": [
        "ORIGINAL",
        "PRIMARY",
        "M",
        "ND",
        "MOSAIC"
],
      "ImagedNucleus": "1H",
      "ImagingFrequency": 123.257732,
      "InPlanePhaseEncodingDirection": "COL",
      "MRAcquisitionType": "2D",
      "MagneticFieldStrength": 3.0,
      "Manufacturer": "SIEMENS",
      "ManufacturerModelName": "Prisma",
      "Modality": "MR",
      "NumberOfAverages": 1.0,
      "NumberOfPhaseEncodingSteps": 100,
      "PercentPhaseFieldOfView": 100.0,
      "PercentSampling": 100.0,
      "PerformedProcedureStepStartTime": "101939.936000",
      "PhotometricInterpretation": "MONOCHROME2",
      "PixelBandwidth": 2380.0,
      "PixelRepresentation": 0,
      "PixelSpacing": [2.0, 2.0],
      "ProtocolName": "bold_100x100_s3_2x2x2_static_156",
      "RepetitionTime": 2000.0,
      "Rows": 900,
      "SAR": 0.08183426003667,
      "SamplesPerPixel": 1,
      "ScanOptions": "FS",
      "ScanningSequence": "EP",
      "SequenceName": "*epfid2d1_100",
      "SequenceVariant": "SK",
      "SeriesDescription": "bold_100x100_s3_2x2x2_static_156",
      "SeriesNumber": 7,
      "SeriesTime": "105638.526000",
      "SliceLocation": -71.592234382304,
      "SliceThickness": 2.0,
      "SmallestImagePixelValue": 0,
      "SoftwareVersions": "syngo MR E11",
      "SpacingBetweenSlices": 2.0000000592766,
      "SpecificCharacterSet": "ISO_IR 100",
      "StudyID": "1",
      "StudyTime": "101939.870000",
      "TransmitCoilName": "Body",
      "VariableFlipAngleFlag": "N",
      "WindowCenterWidthExplanation": "Algo1",
      "dBdt": 0.0},
    "slices": {}
  },
  "time": {
    "samples": {
      "AcquisitionNumber": [1, 2, 3, 4, 5, 6, 7, 8, 9, 10, 11, 12, 13, 14, 15, 16, 17, 18, 19, 20, 21, 22, 23, 24, 25, 26, 27, 28, 29, 30, 31, 32, 33, 34, 35, 36, 37, 38, 39, 40, 41, 42, 43, 44, 45, 46, 47, 48, 49, 50, 51, 52, 53, 54, 55, 56, 57, 58, 59, 60, 61, 62, 63, 64, 65, 66, 67, 68, 69, 70, 71, 72, 73, 74, 75, 76, 77, 78, 79, 80, 81, 82, 83, 84, 85, 86, 87, 88, 89, 90, 91, 92, 93, 94, 95, 96, 97, 98, 99, 100, 101, 102, 103, 104, 105, 106, 107, 108, 109, 110, 111, 112, 113, 114, 115, 116, 117, 118, 119, 120, 121, 122, 123, 124, 125, 126, 127, 128, 129, 130, 131, 132, 133, 134, 135, 136, 137, 138, 139, 140, 141, 142, 143, 144, 145, 146, 147, 148, 149, 150, 151, 152, 153, 154, 155, 156],
      "AcquisitionTime": ["105635.585000", "105637.585000", "105639.585000", "105641.585000", "105643.585000", "105645.585000", "105647.585000", "105649.585000", "105651.585000", "105653.585000", "105655.585000", "105657.585000", "105659.585000", "105701.585000", "105703.585000", "105705.585000", "105707.585000", "105709.585000", "105711.585000", "105713.585000", "105715.585000", "105717.585000", "105719.585000", "105721.585000", "105723.585000", "105725.585000", "105727.585000", "105729.585000", "105731.585000", "105733.585000", "105735.585000", "105737.585000", "105739.585000", "105741.585000", "105743.585000", "105745.585000", "105747.585000", "105749.585000", "105751.585000", "105753.585000", "105755.585000", "105757.585000", "105759.585000", "105801.585000", "105803.585000", "105805.585000", "105807.585000", "105809.585000", "105811.585000", "105813.585000", "105815.585000", "105817.585000", "105819.585000", "105821.585000", "105823.585000", "105825.585000", "105827.585000", "105829.585000", "105831.585000", "105833.585000", "105835.585000", "105837.585000", "105839.585000", "105841.585000", "105843.585000", "105845.585000", "105847.585000", "105849.585000", "105851.585000", "105853.585000", "105855.585000", "105857.585000", "105859.585000", "105901.585000", "105903.585000", "105905.585000", "105907.585000", "105909.585000", "105911.585000", "105913.585000", "105915.585000", "105917.585000", "105919.585000", "105921.585000", "105923.585000", "105925.585000", "105927.585000", "105929.585000", "105931.585000", "105933.585000", "105935.585000", "105937.585000", "105939.585000", "105941.585000", "105943.585000", "105945.585000", "105947.585000", "105949.585000", "105951.585000", "105953.585000", "105955.585000", "105957.585000", "105959.585000", "110001.585000", "110003.585000", "110005.585000", "110007.585000", "110009.585000", "110011.585000", "110013.585000", "110015.585000", "110017.585000", "110019.585000", "110021.585000", "110023.585000", "110025.585000", "110027.585000", "110029.585000", "110031.585000", "110033.585000", "110035.585000", "110037.585000", "110039.585000", "110041.585000", "110043.585000", "110045.585000", "110047.585000", "110049.585000", "110051.585000", "110053.585000", "110055.585000", "110057.585000", "110059.585000", "110101.585000", "110103.585000", "110105.585000", "110107.585000", "110109.585000", "110111.585000", "110113.585000", "110115.585000", "110117.585000", "110119.585000", "110121.585000", "110123.585000", "110125.585000", "110127.585000", "110129.585000", "110131.585000", "110133.585000", "110135.585000", "110137.585000", "110139.585000", "110141.585000", "110143.585000", "110145.585000"],
      "ContentTime": ["105638.529000", "105640.025000", "105642.025000", "105644.025000", "105646.025000", "105648.024000", "105650.025000", "105652.025000", "105654.025000", "105656.025000", "105658.024000", "105700.024000", "105702.024000", "105704.025000", "105706.025000", "105708.025000", "105710.024000", "105712.024000", "105714.025000", "105716.025000", "105718.025000", "105720.025000", "105722.025000", "105724.024000", "105726.025000", "105728.024000", "105730.023000", "105732.024000", "105734.025000", "105736.024000", "105738.024000", "105740.024000", "105742.025000", "105744.024000", "105746.024000", "105748.024000", "105750.025000", "105752.025000", "105754.025000", "105756.025000", "105758.024000", "105800.025000", "105802.025000", "105804.025000", "105806.025000", "105808.025000", "105810.024000", "105812.025000", "105814.024000", "105816.024000", "105818.025000", "105820.024000", "105822.025000", "105824.025000", "105826.025000", "105828.024000", "105830.025000", "105832.025000", "105834.025000", "105836.024000", "105838.024000", "105840.024000", "105842.024000", "105844.025000", "105846.024000", "105848.025000", "105850.025000", "105852.025000", "105854.025000", "105856.025000", "105858.024000", "105900.024000", "105902.025000", "105904.025000", "105906.025000", "105908.025000", "105910.025000", "105912.024000", "105914.025000", "105916.025000", "105918.025000", "105920.024000", "105922.025000", "105924.025000", "105926.025000", "105928.025000", "105930.025000", "105932.025000", "105934.025000", "105936.024000", "105938.024000", "105940.025000", "105942.025000", "105944.025000", "105946.025000", "105948.025000", "105950.025000", "105952.024000", "105954.025000", "105956.025000", "105958.025000", "110000.025000", "110002.024000", "110004.024000", "110006.025000", "110008.025000", "110010.025000", "110012.025000", "110014.024000", "110016.025000", "110018.024000", "110020.025000", "110022.024000", "110024.025000", "110026.024000", "110028.025000", "110030.025000", "110032.025000", "110034.025000", "110036.025000", "110038.025000", "110040.025000", "110042.024000", "110044.024000", "110046.024000", "110048.025000", "110050.025000", "110052.025000", "110054.025000", "110056.025000", "110058.025000", "110100.025000", "110102.025000", "110104.025000", "110106.025000", "110108.025000", "110110.025000", "110112.025000", "110114.025000", "110116.025000", "110118.025000", "110120.025000", "110122.025000", "110124.024000", "110126.025000", "110128.025000", "110130.025000", "110132.024000", "110134.025000", "110136.025000", "110138.025000", "110140.025000", "110142.025000", "110144.025000", "110146.025000", "110147.554000"],
      "InstanceCreationTime": ["105638.529000", "105640.025000", "105642.025000", "105644.025000", "105646.025000", "105648.024000", "105650.025000", "105652.025000", "105654.025000", "105656.025000", "105658.024000", "105700.024000", "105702.024000", "105704.025000", "105706.025000", "105708.025000", "105710.024000", "105712.024000", "105714.025000", "105716.025000", "105718.025000", "105720.025000", "105722.025000", "105724.024000", "105726.025000", "105728.024000", "105730.023000", "105732.024000", "105734.025000", "105736.024000", "105738.024000", "105740.024000", "105742.025000", "105744.024000", "105746.024000", "105748.024000", "105750.025000", "105752.025000", "105754.025000", "105756.025000", "105758.024000", "105800.025000", "105802.025000", "105804.025000", "105806.025000", "105808.025000", "105810.024000", "105812.025000", "105814.024000", "105816.024000", "105818.025000", "105820.024000", "105822.025000", "105824.025000", "105826.025000", "105828.024000", "105830.025000", "105832.025000", "105834.025000", "105836.024000", "105838.024000", "105840.024000", "105842.024000", "105844.025000", "105846.024000", "105848.025000", "105850.025000", "105852.025000", "105854.025000", "105856.025000", "105858.024000", "105900.024000", "105902.025000", "105904.025000", "105906.025000", "105908.025000", "105910.025000", "105912.024000", "105914.025000", "105916.025000", "105918.025000", "105920.024000", "105922.025000", "105924.025000", "105926.025000", "105928.025000", "105930.025000", "105932.025000", "105934.025000", "105936.024000", "105938.024000", "105940.025000", "105942.025000", "105944.025000", "105946.025000", "105948.025000", "105950.025000", "105952.024000", "105954.025000", "105956.025000", "105958.025000", "110000.025000", "110002.024000", "110004.024000", "110006.025000", "110008.025000", "110010.025000", "110012.025000", "110014.024000", "110016.025000", "110018.024000", "110020.025000", "110022.024000", "110024.025000", "110026.024000", "110028.025000", "110030.025000", "110032.025000", "110034.025000", "110036.025000", "110038.025000", "110040.025000", "110042.024000", "110044.024000", "110046.024000", "110048.025000", "110050.025000", "110052.025000", "110054.025000", "110056.025000", "110058.025000", "110100.025000", "110102.025000", "110104.025000", "110106.025000", "110108.025000", "110110.025000", "110112.025000", "110114.025000", "110116.025000", "110118.025000", "110120.025000", "110122.025000", "110124.024000", "110126.025000", "110128.025000", "110130.025000", "110132.024000", "110134.025000", "110136.025000", "110138.025000", "110140.025000", "110142.025000", "110144.025000", "110146.025000", "110147.554000"],
      "InstanceNumber": [1, 2, 3, 4, 5, 6, 7, 8, 9, 10, 11, 12, 13, 14, 15, 16, 17, 18, 19, 20, 21, 22, 23, 24, 25, 26, 27, 28, 29, 30, 31, 32, 33, 34, 35, 36, 37, 38, 39, 40, 41, 42, 43, 44, 45, 46, 47, 48, 49, 50, 51, 52, 53, 54, 55, 56, 57, 58, 59, 60, 61, 62, 63, 64, 65, 66, 67, 68, 69, 70, 71, 72, 73, 74, 75, 76, 77, 78, 79, 80, 81, 82, 83, 84, 85, 86, 87, 88, 89, 90, 91, 92, 93, 94, 95, 96, 97, 98, 99, 100, 101, 102, 103, 104, 105, 106, 107, 108, 109, 110, 111, 112, 113, 114, 115, 116, 117, 118, 119, 120, 121, 122, 123, 124, 125, 126, 127, 128, 129, 130, 131, 132, 133, 134, 135, 136, 137, 138, 139, 140, 141, 142, 143, 144, 145, 146, 147, 148, 149, 150, 151, 152, 153, 154, 155, 156],
      "LargestImagePixelValue": [3330, 3287, 3308, 3258, 3276, 3277, 3257, 3253, 3271, 3266, 3283, 3321, 3314, 3334, 3282, 3256, 3273, 3251, 3233, 3268, 3279, 3255, 3212, 3235, 3214, 3254, 3255, 3269, 3298, 3303, 3272, 3253, 3250, 3276, 3259, 3288, 3287, 3265, 3267, 3293, 3274, 3259, 3250, 3260, 3271, 3272, 3287, 3251, 3285, 3265, 3230, 3241, 3237, 3285, 3250, 3268, 3296, 3264, 3262, 3288, 3261, 3279, 3296, 3249, 3228, 3200, 3231, 3251, 3264, 3248, 3231, 3247, 3289, 3280, 3303, 3283, 3252, 3249, 3225, 3276, 3257, 3252, 3248, 3251, 3265, 3287, 3258, 3259, 3275, 3228, 3210, 3226, 3233, 3231, 3217, 3273, 3237, 3202, 3245, 3257, 3265, 3280, 3252, 3221, 3233, 3259, 3224, 3230, 3226, 3224, 3212, 3204, 3246, 3252, 3247, 3208, 3212, 3229, 3237, 3247, 3268, 3278, 3333, 3269, 3232, 3239, 3202, 3214, 3233, 3233, 3189, 3231, 3243, 3269, 3262, 3241, 3251, 3223, 3234, 3251, 3250, 3265, 3226, 3247, 3233, 3239, 3234, 3209, 3199, 3254, 3234, 3271, 3200, 3215, 3233, 3236],
      "WindowCenter": [823.0, 819.0, 819.0, 818.0, 819.0, 818.0, 818.0, 817.0, 819.0, 819.0, 818.0, 818.0, 817.0, 817.0, 818.0, 818.0, 819.0, 819.0, 817.0, 815.0, 816.0, 816.0, 817.0, 817.0, 815.0, 816.0, 817.0, 817.0, 816.0, 817.0, 817.0, 817.0, 816.0, 815.0, 816.0, 817.0, 817.0, 815.0, 816.0, 818.0, 818.0, 817.0, 815.0, 816.0, 818.0, 818.0, 817.0, 816.0, 816.0, 816.0, 815.0, 815.0, 816.0, 816.0, 814.0, 814.0, 815.0, 818.0, 818.0, 817.0, 816.0, 815.0, 816.0, 817.0, 818.0, 817.0, 816.0, 815.0, 817.0, 820.0, 818.0, 816.0, 816.0, 815.0, 815.0, 817.0, 819.0, 819.0, 818.0, 818.0, 817.0, 817.0, 816.0, 817.0, 817.0, 816.0, 816.0, 817.0, 818.0, 817.0, 816.0, 815.0, 815.0, 815.0, 815.0, 819.0, 821.0, 819.0, 817.0, 814.0, 813.0, 813.0, 815.0, 818.0, 818.0, 818.0, 818.0, 818.0, 818.0, 820.0, 820.0, 819.0, 817.0, 818.0, 820.0, 821.0, 819.0, 817.0, 816.0, 816.0, 816.0, 816.0, 816.0, 815.0, 816.0, 819.0, 818.0, 817.0, 818.0, 820.0, 819.0, 818.0, 817.0, 816.0, 815.0, 815.0, 817.0, 819.0, 820.0, 819.0, 819.0, 818.0, 817.0, 816.0, 815.0, 818.0, 819.0, 820.0, 819.0, 818.0, 817.0, 819.0, 820.0, 819.0, 817.0, 815.0],
      "WindowWidth": [1736.0, 1727.0, 1727.0, 1725.0, 1726.0, 1725.0, 1725.0, 1724.0, 1726.0, 1728.0, 1726.0, 1725.0, 1724.0, 1723.0, 1724.0, 1726.0, 1728.0, 1727.0, 1721.0, 1718.0, 1720.0, 1721.0, 1722.0, 1722.0, 1718.0, 1721.0, 1722.0, 1723.0, 1721.0, 1722.0, 1723.0, 1722.0, 1721.0, 1719.0, 1720.0, 1723.0, 1723.0, 1720.0, 1722.0, 1727.0, 1726.0, 1723.0, 1718.0, 1719.0, 1725.0, 1725.0, 1723.0, 1721.0, 1721.0, 1721.0, 1718.0, 1719.0, 1721.0, 1719.0, 1715.0, 1714.0, 1719.0, 1724.0, 1726.0, 1722.0, 1721.0, 1718.0, 1720.0, 1724.0, 1726.0, 1723.0, 1720.0, 1719.0, 1724.0, 1731.0, 1726.0, 1721.0, 1719.0, 1717.0, 1718.0, 1722.0, 1727.0, 1727.0, 1726.0, 1724.0, 1722.0, 1723.0, 1720.0, 1721.0, 1722.0, 1721.0, 1721.0, 1723.0, 1725.0, 1723.0, 1719.0, 1716.0, 1718.0, 1719.0, 1718.0, 1726.0, 1732.0, 1727.0, 1721.0, 1715.0, 1714.0, 1714.0, 1718.0, 1723.0, 1725.0, 1725.0, 1725.0, 1724.0, 1724.0, 1730.0, 1730.0, 1727.0, 1722.0, 1725.0, 1730.0, 1732.0, 1726.0, 1722.0, 1719.0, 1719.0, 1720.0, 1720.0, 1720.0, 1717.0, 1720.0, 1726.0, 1725.0, 1722.0, 1724.0, 1729.0, 1727.0, 1723.0, 1720.0, 1720.0, 1718.0, 1718.0, 1721.0, 1727.0, 1728.0, 1726.0, 1726.0, 1725.0, 1722.0, 1719.0, 1717.0, 1724.0, 1728.0, 1728.0, 1727.0, 1724.0, 1722.0, 1726.0, 1729.0, 1725.0, 1721.0, 1717.0]
    },
    "slices": {}
  }
}