{
  "AcquisitionMatrixPE": 100,
  "AcquisitionNumber": 1,
  "AcquisitionTime": "15:02:13.487500",
  "BandwidthPerPixelPhaseEncode": 18.519,
  "BaseResolution": 100,
  "BodyPartExamined": "BRAIN",
  "CoilCombinationMethod": "Sum of Squares",
  "ConsistencyInfo": "N4_VE11C_LATEST_20160120",
  "ConversionSoftware": "dcm2niix",
  "ConversionSoftwareVersion": "v1.0.20211006",
  "DerivedVendorReportedEchoSpacing": 0.000539986,
  "DeviceSerialNumber": "166078",
  "DwellTime": 2.1e-06,
  "EchoTime": 0.034,
  "EchoTrainLength": 100,
  "EffectiveEchoSpacing": 0.000539986,
  "FlipAngle": 90,
  "ImageOrientationPatientDICOM": [1, 4.13517e-05, 0.000327312, -3.90952e-08, 0.992129, -0.125223],
  "ImageOrientationText": "Tra>Cor(-7.2)>Sag(0.0)",
  "ImageType": [
    "ORIGINAL",
    "PRIMARY",
    "M",
    "ND",
    "MOSAIC"
],
  "ImagingFrequency": 123.258,
  "InPlanePhaseEncodingDirectionDICOM": "COL",
  "InstitutionAddress": "Street StreetNo,Bei Jing,District,CN,ZIP",
  "InstitutionName": "BeiJing Normal University",
  "InstitutionalDepartmentName": "Department",
  "MRAcquisitionType": "2D",
  "MagneticFieldStrength": 3,
  "Manufacturer": "Siemens",
  "ManufacturersModelName": "Prisma",
  "Modality": "MR",
  "MultibandAccelerationFactor": 3,
  "PartialFourier": 1,
  "PatientPosition": "HFS",
  "PercentPhaseFOV": 100,
  "PercentSampling": 100,
  "PhaseEncodingDirection": "j-",
  "PhaseEncodingSteps": 100,
  "PhaseResolution": 1,
  "PixelBandwidth": 2380,
  "ProcedureStepDescription": "BNU_P2018_64CH^Zhen.ZongLei",
  "ProtocolName": "bold_100x100_s3_2x2x2_static_156",
  "PulseSequenceDetails": "%SiemensSeq%\\ep2d_bold",
  "ReceiveCoilActiveElements": "HC1-7;NC1",
  "ReceiveCoilName": "HeadNeck_64",
  "ReconMatrixPE": 100,
  "RefLinesPE": 32,
  "RepetitionTime": 2,
  "SAR": 0.080879,
  "ScanOptions": "FS",
  "ScanningSequence": "EP",
  "SequenceName": "*epfid2d1_100",
  "SequenceVariant": "SK",
  "SeriesDescription": "bold_100x100_s3_2x2x2_static_156",
  "SeriesNumber": 11,
  "ShimSetting": [-5474, -11505, -1255, 265, -37, -215, -59, 21],
  "SliceThickness": 2,
  "SliceTiming": [1.485, 0, 0.99, 0.0825, 1.0725, 0.165, 1.155, 0.2475, 1.2375, 0.33, 1.32, 0.4125, 1.4025, 0.5775, 1.5675, 0.66, 1.65, 0.7425, 1.7325, 0.825, 1.815, 0.9075, 1.8975, 0.495, 1.485, 0, 0.99, 0.0825, 1.0725, 0.165, 1.155, 0.2475, 1.2375, 0.33, 1.32, 0.4125, 1.4025, 0.5775, 1.5675, 0.66, 1.65, 0.7425, 1.7325, 0.825, 1.815, 0.9075, 1.8975, 0.495, 1.485, 0, 0.99, 0.0825, 1.0725, 0.165, 1.155, 0.2475, 1.2375, 0.33, 1.32, 0.4125, 1.4025, 0.5775, 1.5675, 0.66, 1.65, 0.7425, 1.7325, 0.825, 1.815, 0.9075, 1.8975, 0.495],
  "SoftwareVersions": "syngo MR E11",
  "SpacingBetweenSlices": 2,
  "StationName": "AWP166078",
  "TaskName": "action",
  "TotalReadoutTime": 0.0534586,
  "TxRefAmp": 252.632,
  "dcmmeta_affine": [
    [-1.9999998807907104, -7.81903892743685e-08, 0.0006598280742764473, 100.4209213256836],
    [-8.270342368632555e-05, 1.9842572212219238, -0.2504465878009796, -84.93669891357422],
    [0.000654624484013766, 0.2504465878009796, 1.9842571020126343, -77.17183685302734],
    [0.0, 0.0, 0.0, 1.0]
],
  "dcmmeta_reorient_transform": [
    [0.0, -1.0, 0.0, 99.0],
    [1.0, 0.0, 0.0, 0.0],
    [0.0, 0.0, 1.0, 0.0],
    [0.0, 0.0, 0.0, 1.0]
],
  "dcmmeta_shape": [100, 100, 72, 156],
  "dcmmeta_slice_dim": 2,
  "dcmmeta_version": 0.6,
  "global": {
    "const": {
      "AcquisitionMatrix": [100, 0, 0, 100],
      "AngioFlag": "N",
      "BitsAllocated": 16,
      "BitsStored": 12,
      "BodyPartExamined": "BRAIN",
      "Columns": 900,
      "EchoNumbers": 1,
      "EchoTime": 34.0,
      "EchoTrainLength": 100,
      "FlipAngle": 90.0,
      "HighBit": 11,
      "ImageOrientationPatient": [0.99999994557837, 4.135171023e-05, 0.00032731223654, -3.9095196e-08, 0.99212858292972, -0.1252233002834],
      "ImagePositionPatient": [-900.42084237595, -905.24070953991, 47.539163595227],
      "ImageType": [
        "ORIGINAL",
        "PRIMARY",
        "M",
        "ND",
        "MOSAIC"
],
      "ImagedNucleus": "1H",
      "ImagingFrequency": 123.257732,
      "InPlanePhaseEncodingDirection": "COL",
      "MRAcquisitionType": "2D",
      "MagneticFieldStrength": 3.0,
      "Manufacturer": "SIEMENS",
      "ManufacturerModelName": "Prisma",
      "Modality": "MR",
      "NumberOfAverages": 1.0,
      "NumberOfPhaseEncodingSteps": 100,
      "PercentPhaseFieldOfView": 100.0,
      "PercentSampling": 100.0,
      "PerformedProcedureStepStartTime": "142104.898000",
      "PhotometricInterpretation": "MONOCHROME2",
      "PixelBandwidth": 2380.0,
      "PixelRepresentation": 0,
      "PixelSpacing": [2.0, 2.0],
      "ProtocolName": "bold_100x100_s3_2x2x2_static_156",
      "RepetitionTime": 2000.0,
      "Rows": 900,
      "SAR": 0.0808789478676,
      "SamplesPerPixel": 1,
      "ScanOptions": "FS",
      "ScanningSequence": "EP",
      "SequenceName": "*epfid2d1_100",
      "SequenceVariant": "SK",
      "SeriesDescription": "bold_100x100_s3_2x2x2_static_156",
      "SeriesNumber": 11,
      "SeriesTime": "150215.946000",
      "SliceLocation": -65.895201111612,
      "SliceThickness": 2.0,
      "SmallestImagePixelValue": 0,
      "SoftwareVersions": "syngo MR E11",
      "SpacingBetweenSlices": 2.0000000622757,
      "SpecificCharacterSet": "ISO_IR 100",
      "StudyID": "1",
      "StudyTime": "142104.807000",
      "TransmitCoilName": "Body",
      "VariableFlipAngleFlag": "N",
      "WindowCenterWidthExplanation": "Algo1",
      "dBdt": 0.0},
    "slices": {}
  },
  "time": {
    "samples": {
      "AcquisitionNumber": [1, 2, 3, 4, 5, 6, 7, 8, 9, 10, 11, 12, 13, 14, 15, 16, 17, 18, 19, 20, 21, 22, 23, 24, 25, 26, 27, 28, 29, 30, 31, 32, 33, 34, 35, 36, 37, 38, 39, 40, 41, 42, 43, 44, 45, 46, 47, 48, 49, 50, 51, 52, 53, 54, 55, 56, 57, 58, 59, 60, 61, 62, 63, 64, 65, 66, 67, 68, 69, 70, 71, 72, 73, 74, 75, 76, 77, 78, 79, 80, 81, 82, 83, 84, 85, 86, 87, 88, 89, 90, 91, 92, 93, 94, 95, 96, 97, 98, 99, 100, 101, 102, 103, 104, 105, 106, 107, 108, 109, 110, 111, 112, 113, 114, 115, 116, 117, 118, 119, 120, 121, 122, 123, 124, 125, 126, 127, 128, 129, 130, 131, 132, 133, 134, 135, 136, 137, 138, 139, 140, 141, 142, 143, 144, 145, 146, 147, 148, 149, 150, 151, 152, 153, 154, 155, 156],
      "AcquisitionTime": ["150213.487500", "150215.487500", "150217.487500", "150219.487500", "150221.487500", "150223.487500", "150225.487500", "150227.487500", "150229.487500", "150231.487500", "150233.487500", "150235.487500", "150237.487500", "150239.487500", "150241.487500", "150243.487500", "150245.487500", "150247.487500", "150249.487500", "150251.487500", "150253.487500", "150255.487500", "150257.487500", "150259.487500", "150301.487500", "150303.487500", "150305.487500", "150307.487500", "150309.487500", "150311.487500", "150313.487500", "150315.487500", "150317.487500", "150319.487500", "150321.487500", "150323.487500", "150325.487500", "150327.487500", "150329.487500", "150331.487500", "150333.487500", "150335.487500", "150337.487500", "150339.487500", "150341.487500", "150343.487500", "150345.487500", "150347.487500", "150349.487500", "150351.487500", "150353.487500", "150355.487500", "150357.487500", "150359.487500", "150401.487500", "150403.487500", "150405.487500", "150407.487500", "150409.487500", "150411.487500", "150413.487500", "150415.487500", "150417.487500", "150419.487500", "150421.487500", "150423.487500", "150425.487500", "150427.487500", "150429.487500", "150431.487500", "150433.487500", "150435.487500", "150437.487500", "150439.487500", "150441.487500", "150443.487500", "150445.487500", "150447.487500", "150449.487500", "150451.487500", "150453.487500", "150455.487500", "150457.487500", "150459.487500", "150501.487500", "150503.487500", "150505.487500", "150507.487500", "150509.487500", "150511.487500", "150513.487500", "150515.487500", "150517.487500", "150519.487500", "150521.487500", "150523.487500", "150525.487500", "150527.487500", "150529.487500", "150531.487500", "150533.487500", "150535.487500", "150537.487500", "150539.487500", "150541.487500", "150543.487500", "150545.487500", "150547.487500", "150549.487500", "150551.487500", "150553.487500", "150555.487500", "150557.487500", "150559.487500", "150601.487500", "150603.487500", "150605.487500", "150607.487500", "150609.487500", "150611.487500", "150613.487500", "150615.487500", "150617.487500", "150619.487500", "150621.487500", "150623.487500", "150625.487500", "150627.487500", "150629.487500", "150631.487500", "150633.487500", "150635.487500", "150637.487500", "150639.487500", "150641.487500", "150643.487500", "150645.487500", "150647.487500", "150649.487500", "150651.487500", "150653.487500", "150655.487500", "150657.487500", "150659.487500", "150701.487500", "150703.487500", "150705.487500", "150707.487500", "150709.487500", "150711.487500", "150713.487500", "150715.487500", "150717.487500", "150719.487500", "150721.487500", "150723.487500"],
      "ContentTime": ["150215.950000", "150216.946000", "150218.945000", "150220.945000", "150222.944000", "150225.446000", "150226.945000", "150228.945000", "150230.945000", "150233.445000", "150234.945000", "150236.945000", "150238.945000", "150240.945000", "150242.946000", "150244.946000", "150246.946000", "150248.945000", "150250.946000", "150252.945000", "150255.445000", "150256.946000", "150258.945000", "150300.945000", "150302.945000", "150304.945000", "150306.945000", "150308.945000", "150310.945000", "150312.945000", "150314.945000", "150316.945000", "150318.945000", "150321.445000", "150322.946000", "150324.946000", "150327.445000", "150328.946000", "150330.945000", "150332.945000", "150334.945000", "150336.946000", "150338.945000", "150340.945000", "150342.945000", "150344.946000", "150347.445000", "150349.446000", "150350.944000", "150352.945000", "150354.946000", "150356.945000", "150359.446000", "150401.445000", "150402.945000", "150405.446000", "150406.945000", "150408.946000", "150410.946000", "150412.946000", "150414.946000", "150417.446000", "150418.945000", "150420.945000", "150423.446000", "150425.445000", "150426.945000", "150429.446000", "150431.445000", "150433.446000", "150434.946000", "150436.945000", "150439.445000", "150440.945000", "150442.944000", "150444.945000", "150446.946000", "150448.945000", "150450.945000", "150452.945000", "150454.946000", "150456.946000", "150458.945000", "150500.944000", "150502.945000", "150504.945000", "150507.446000", "150508.945000", "150510.945000", "150512.945000", "150514.945000", "150517.445000", "150518.946000", "150520.945000", "150522.946000", "150524.945000", "150526.946000", "150528.945000", "150530.945000", "150532.945000", "150535.444000", "150536.945000", "150538.946000", "150541.445000", "150542.945000", "150544.945000", "150546.945000", "150548.946000", "150550.945000", "150552.945000", "150554.945000", "150556.946000", "150559.445000", "150601.446000", "150603.446000", "150605.446000", "150606.945000", "150608.946000", "150610.944000", "150613.446000", "150615.446000", "150616.946000", "150618.945000", "150620.945000", "150622.946000", "150624.945000", "150626.946000", "150628.945000", "150630.946000", "150632.946000", "150634.945000", "150637.445000", "150639.445000", "150641.445000", "150642.945000", "150644.944000", "150646.945000", "150649.445000", "150650.946000", "150652.946000", "150654.946000", "150657.446000", "150658.946000", "150700.946000", "150702.944000", "150704.945000", "150706.946000", "150708.945000", "150711.445000", "150712.945000", "150714.946000", "150716.945000", "150718.945000", "150721.445000", "150723.446000", "150724.947000"],
      "InstanceCreationTime": ["150215.950000", "150216.946000", "150218.945000", "150220.945000", "150222.944000", "150225.446000", "150226.945000", "150228.945000", "150230.945000", "150233.445000", "150234.945000", "150236.945000", "150238.945000", "150240.945000", "150242.946000", "150244.946000", "150246.946000", "150248.945000", "150250.946000", "150252.945000", "150255.445000", "150256.946000", "150258.945000", "150300.945000", "150302.945000", "150304.945000", "150306.945000", "150308.945000", "150310.945000", "150312.945000", "150314.945000", "150316.945000", "150318.945000", "150321.445000", "150322.946000", "150324.946000", "150327.445000", "150328.946000", "150330.945000", "150332.945000", "150334.945000", "150336.946000", "150338.945000", "150340.945000", "150342.945000", "150344.946000", "150347.445000", "150349.446000", "150350.944000", "150352.945000", "150354.946000", "150356.945000", "150359.446000", "150401.445000", "150402.945000", "150405.446000", "150406.945000", "150408.946000", "150410.946000", "150412.946000", "150414.946000", "150417.446000", "150418.945000", "150420.945000", "150423.446000", "150425.445000", "150426.945000", "150429.446000", "150431.445000", "150433.446000", "150434.946000", "150436.945000", "150439.445000", "150440.945000", "150442.944000", "150444.945000", "150446.946000", "150448.945000", "150450.945000", "150452.945000", "150454.946000", "150456.946000", "150458.945000", "150500.944000", "150502.945000", "150504.945000", "150507.446000", "150508.945000", "150510.945000", "150512.945000", "150514.945000", "150517.445000", "150518.946000", "150520.945000", "150522.946000", "150524.945000", "150526.946000", "150528.945000", "150530.945000", "150532.945000", "150535.444000", "150536.945000", "150538.946000", "150541.445000", "150542.945000", "150544.945000", "150546.945000", "150548.946000", "150550.945000", "150552.945000", "150554.945000", "150556.946000", "150559.445000", "150601.446000", "150603.446000", "150605.446000", "150606.945000", "150608.946000", "150610.944000", "150613.446000", "150615.446000", "150616.946000", "150618.945000", "150620.945000", "150622.946000", "150624.945000", "150626.946000", "150628.945000", "150630.946000", "150632.946000", "150634.945000", "150637.445000", "150639.445000", "150641.445000", "150642.945000", "150644.944000", "150646.945000", "150649.445000", "150650.946000", "150652.946000", "150654.946000", "150657.446000", "150658.946000", "150700.946000", "150702.944000", "150704.945000", "150706.946000", "150708.945000", "150711.445000", "150712.945000", "150714.946000", "150716.945000", "150718.945000", "150721.445000", "150723.446000", "150724.947000"],
      "InstanceNumber": [1, 2, 3, 4, 5, 6, 7, 8, 9, 10, 11, 12, 13, 14, 15, 16, 17, 18, 19, 20, 21, 22, 23, 24, 25, 26, 27, 28, 29, 30, 31, 32, 33, 34, 35, 36, 37, 38, 39, 40, 41, 42, 43, 44, 45, 46, 47, 48, 49, 50, 51, 52, 53, 54, 55, 56, 57, 58, 59, 60, 61, 62, 63, 64, 65, 66, 67, 68, 69, 70, 71, 72, 73, 74, 75, 76, 77, 78, 79, 80, 81, 82, 83, 84, 85, 86, 87, 88, 89, 90, 91, 92, 93, 94, 95, 96, 97, 98, 99, 100, 101, 102, 103, 104, 105, 106, 107, 108, 109, 110, 111, 112, 113, 114, 115, 116, 117, 118, 119, 120, 121, 122, 123, 124, 125, 126, 127, 128, 129, 130, 131, 132, 133, 134, 135, 136, 137, 138, 139, 140, 141, 142, 143, 144, 145, 146, 147, 148, 149, 150, 151, 152, 153, 154, 155, 156],
      "LargestImagePixelValue": [2982, 2992, 2933, 2946, 2930, 2919, 3072, 2984, 3014, 3099, 2952, 2900, 2887, 2941, 2881, 2980, 2956, 2971, 2906, 2940, 3048, 3098, 2885, 2915, 2894, 3221, 3136, 2902, 2874, 2938, 3015, 3001, 3167, 3224, 3048, 3034, 3163, 3109, 3050, 3056, 3033, 2986, 3053, 3003, 3039, 2899, 2937, 2952, 2940, 2948, 2963, 2939, 2915, 2967, 2959, 3002, 3009, 2999, 2921, 2899, 2993, 2992, 3040, 2897, 2898, 3072, 3009, 2899, 2945, 2973, 2928, 2893, 2999, 3091, 3150, 2855, 2928, 3041, 2971, 2983, 3090, 3037, 3100, 2914, 2978, 3182, 2983, 3044, 2922, 2907, 2964, 2888, 2900, 2897, 2883, 2925, 2902, 2882, 2893, 2919, 3179, 2910, 3043, 2964, 2906, 2903, 2908, 2917, 2898, 2920, 2900, 2882, 2904, 2946, 3006, 2958, 3083, 3080, 3022, 2898, 2952, 2911, 2917, 2925, 2946, 2883, 2884, 2903, 2879, 2902, 3039, 2994, 2891, 3093, 3155, 2926, 3059, 3026, 3118, 2988, 2925, 3031, 2921, 2907, 2923, 2942, 2926, 2898, 3105, 3194, 2933, 2883, 2889, 2881, 2896, 2898],
      "WindowCenter": [753.0, 752.0, 751.0, 751.0, 752.0, 754.0, 754.0, 752.0, 751.0, 749.0, 746.0, 746.0, 747.0, 749.0, 749.0, 751.0, 752.0, 753.0, 751.0, 751.0, 753.0, 754.0, 752.0, 753.0, 754.0, 757.0, 755.0, 752.0, 753.0, 752.0, 752.0, 753.0, 755.0, 755.0, 753.0, 753.0, 754.0, 754.0, 754.0, 755.0, 754.0, 752.0, 751.0, 751.0, 753.0, 753.0, 754.0, 753.0, 752.0, 752.0, 752.0, 752.0, 751.0, 751.0, 751.0, 752.0, 752.0, 752.0, 750.0, 750.0, 751.0, 751.0, 752.0, 750.0, 751.0, 753.0, 751.0, 749.0, 750.0, 751.0, 751.0, 752.0, 754.0, 755.0, 756.0, 753.0, 753.0, 753.0, 751.0, 751.0, 753.0, 752.0, 753.0, 752.0, 753.0, 755.0, 752.0, 752.0, 751.0, 751.0, 751.0, 751.0, 752.0, 752.0, 752.0, 751.0, 751.0, 751.0, 751.0, 752.0, 756.0, 752.0, 752.0, 751.0, 750.0, 750.0, 750.0, 750.0, 750.0, 750.0, 751.0, 752.0, 753.0, 751.0, 750.0, 752.0, 755.0, 754.0, 753.0, 752.0, 753.0, 753.0, 753.0, 753.0, 753.0, 753.0, 752.0, 752.0, 752.0, 753.0, 753.0, 753.0, 753.0, 756.0, 755.0, 751.0, 754.0, 756.0, 755.0, 752.0, 750.0, 751.0, 749.0, 748.0, 749.0, 750.0, 750.0, 750.0, 755.0, 756.0, 753.0, 751.0, 752.0, 753.0, 753.0, 751.0],
      "WindowWidth": [1604.0, 1601.0, 1599.0, 1599.0, 1600.0, 1604.0, 1605.0, 1600.0, 1597.0, 1593.0, 1586.0, 1587.0, 1589.0, 1593.0, 1594.0, 1598.0, 1601.0, 1603.0, 1598.0, 1598.0, 1601.0, 1604.0, 1601.0, 1603.0, 1605.0, 1611.0, 1607.0, 1601.0, 1602.0, 1601.0, 1600.0, 1602.0, 1608.0, 1608.0, 1603.0, 1603.0, 1606.0, 1606.0, 1606.0, 1607.0, 1605.0, 1599.0, 1597.0, 1597.0, 1603.0, 1602.0, 1605.0, 1603.0, 1600.0, 1599.0, 1601.0, 1600.0, 1598.0, 1598.0, 1598.0, 1599.0, 1600.0, 1601.0, 1597.0, 1595.0, 1598.0, 1599.0, 1600.0, 1596.0, 1599.0, 1602.0, 1598.0, 1594.0, 1596.0, 1599.0, 1599.0, 1600.0, 1604.0, 1607.0, 1609.0, 1602.0, 1602.0, 1602.0, 1598.0, 1597.0, 1602.0, 1601.0, 1603.0, 1601.0, 1603.0, 1606.0, 1600.0, 1601.0, 1598.0, 1597.0, 1598.0, 1597.0, 1601.0, 1602.0, 1601.0, 1599.0, 1599.0, 1597.0, 1598.0, 1600.0, 1608.0, 1601.0, 1599.0, 1597.0, 1596.0, 1596.0, 1595.0, 1595.0, 1595.0, 1594.0, 1597.0, 1601.0, 1602.0, 1597.0, 1595.0, 1599.0, 1606.0, 1605.0, 1602.0, 1601.0, 1602.0, 1602.0, 1604.0, 1603.0, 1602.0, 1602.0, 1601.0, 1600.0, 1601.0, 1603.0, 1603.0, 1602.0, 1604.0, 1609.0, 1606.0, 1599.0, 1606.0, 1609.0, 1606.0, 1599.0, 1596.0, 1598.0, 1592.0, 1589.0, 1592.0, 1596.0, 1596.0, 1596.0, 1606.0, 1611.0, 1602.0, 1598.0, 1599.0, 1602.0, 1602.0, 1598.0]
    },
    "slices": {}
  }
}