{
  "AcquisitionMatrixPE": 100,
  "AcquisitionNumber": 1,
  "AcquisitionTime": "15:08:4.852500",
  "BandwidthPerPixelPhaseEncode": 18.519,
  "BaseResolution": 100,
  "BodyPartExamined": "BRAIN",
  "CoilCombinationMethod": "Sum of Squares",
  "ConsistencyInfo": "N4_VE11C_LATEST_20160120",
  "ConversionSoftware": "dcm2niix",
  "ConversionSoftwareVersion": "v1.0.20211006",
  "DerivedVendorReportedEchoSpacing": 0.000539986,
  "DeviceSerialNumber": "166078",
  "DwellTime": 2.1e-06,
  "EchoTime": 0.034,
  "EchoTrainLength": 100,
  "EffectiveEchoSpacing": 0.000539986,
  "FlipAngle": 90,
  "ImageOrientationPatientDICOM": [1, 4.13517e-05, 0.000327312, -3.90952e-08, 0.992129, -0.125223],
  "ImageOrientationText": "Tra>Cor(-7.2)>Sag(0.0)",
  "ImageType": [
    "ORIGINAL",
    "PRIMARY",
    "M",
    "ND",
    "MOSAIC"
],
  "ImagingFrequency": 123.258,
  "InPlanePhaseEncodingDirectionDICOM": "COL",
  "InstitutionAddress": "Street StreetNo,Bei Jing,District,CN,ZIP",
  "InstitutionName": "BeiJing Normal University",
  "InstitutionalDepartmentName": "Department",
  "MRAcquisitionType": "2D",
  "MagneticFieldStrength": 3,
  "Manufacturer": "Siemens",
  "ManufacturersModelName": "Prisma",
  "Modality": "MR",
  "MultibandAccelerationFactor": 3,
  "PartialFourier": 1,
  "PatientPosition": "HFS",
  "PercentPhaseFOV": 100,
  "PercentSampling": 100,
  "PhaseEncodingDirection": "j-",
  "PhaseEncodingSteps": 100,
  "PhaseResolution": 1,
  "PixelBandwidth": 2380,
  "ProcedureStepDescription": "BNU_P2018_64CH^Zhen.ZongLei",
  "ProtocolName": "bold_100x100_s3_2x2x2_static_156",
  "PulseSequenceDetails": "%SiemensSeq%\\ep2d_bold",
  "ReceiveCoilActiveElements": "HC1-7;NC1",
  "ReceiveCoilName": "HeadNeck_64",
  "ReconMatrixPE": 100,
  "RefLinesPE": 32,
  "RepetitionTime": 2,
  "SAR": 0.080879,
  "ScanOptions": "FS",
  "ScanningSequence": "EP",
  "SequenceName": "*epfid2d1_100",
  "SequenceVariant": "SK",
  "SeriesDescription": "bold_100x100_s3_2x2x2_static_156",
  "SeriesNumber": 12,
  "ShimSetting": [-5474, -11505, -1255, 265, -37, -215, -59, 21],
  "SliceThickness": 2,
  "SliceTiming": [1.485, 0, 0.99, 0.0825, 1.0725, 0.165, 1.155, 0.2475, 1.2375, 0.33, 1.32, 0.4125, 1.4025, 0.5775, 1.5675, 0.66, 1.65, 0.7425, 1.7325, 0.825, 1.815, 0.9075, 1.8975, 0.495, 1.485, 0, 0.99, 0.0825, 1.0725, 0.165, 1.155, 0.2475, 1.2375, 0.33, 1.32, 0.4125, 1.4025, 0.5775, 1.5675, 0.66, 1.65, 0.7425, 1.7325, 0.825, 1.815, 0.9075, 1.8975, 0.495, 1.485, 0, 0.99, 0.0825, 1.0725, 0.165, 1.155, 0.2475, 1.2375, 0.33, 1.32, 0.4125, 1.4025, 0.5775, 1.5675, 0.66, 1.65, 0.7425, 1.7325, 0.825, 1.815, 0.9075, 1.8975, 0.495],
  "SoftwareVersions": "syngo MR E11",
  "SpacingBetweenSlices": 2,
  "StationName": "AWP166078",
  "TaskName": "action",
  "TotalReadoutTime": 0.0534586,
  "TxRefAmp": 252.632,
  "dcmmeta_affine": [
    [-1.9999998807907104, -7.81903892743685e-08, 0.0006598280742764473, 100.4209213256836],
    [-8.270342368632555e-05, 1.9842572212219238, -0.2504465878009796, -84.93669891357422],
    [0.000654624484013766, 0.2504465878009796, 1.9842571020126343, -77.17183685302734],
    [0.0, 0.0, 0.0, 1.0]
],
  "dcmmeta_reorient_transform": [
    [0.0, -1.0, 0.0, 99.0],
    [1.0, 0.0, 0.0, 0.0],
    [0.0, 0.0, 1.0, 0.0],
    [0.0, 0.0, 0.0, 1.0]
],
  "dcmmeta_shape": [100, 100, 72, 156],
  "dcmmeta_slice_dim": 2,
  "dcmmeta_version": 0.6,
  "global": {
    "const": {
      "AcquisitionMatrix": [100, 0, 0, 100],
      "AngioFlag": "N",
      "BitsAllocated": 16,
      "BitsStored": 12,
      "BodyPartExamined": "BRAIN",
      "Columns": 900,
      "EchoNumbers": 1,
      "EchoTime": 34.0,
      "EchoTrainLength": 100,
      "FlipAngle": 90.0,
      "HighBit": 11,
      "ImageOrientationPatient": [0.99999994557837, 4.135171023e-05, 0.00032731223654, -3.9095196e-08, 0.99212858292972, -0.1252233002834],
      "ImagePositionPatient": [-900.42084237595, -905.24070953991, 47.539163595227],
      "ImageType": [
        "ORIGINAL",
        "PRIMARY",
        "M",
        "ND",
        "MOSAIC"
],
      "ImagedNucleus": "1H",
      "ImagingFrequency": 123.257735,
      "InPlanePhaseEncodingDirection": "COL",
      "MRAcquisitionType": "2D",
      "MagneticFieldStrength": 3.0,
      "Manufacturer": "SIEMENS",
      "ManufacturerModelName": "Prisma",
      "Modality": "MR",
      "NumberOfAverages": 1.0,
      "NumberOfPhaseEncodingSteps": 100,
      "PercentPhaseFieldOfView": 100.0,
      "PercentSampling": 100.0,
      "PerformedProcedureStepStartTime": "142104.898000",
      "PhotometricInterpretation": "MONOCHROME2",
      "PixelBandwidth": 2380.0,
      "PixelRepresentation": 0,
      "PixelSpacing": [2.0, 2.0],
      "ProtocolName": "bold_100x100_s3_2x2x2_static_156",
      "RepetitionTime": 2000.0,
      "Rows": 900,
      "SAR": 0.0808789478676,
      "SamplesPerPixel": 1,
      "ScanOptions": "FS",
      "ScanningSequence": "EP",
      "SequenceName": "*epfid2d1_100",
      "SequenceVariant": "SK",
      "SeriesDescription": "bold_100x100_s3_2x2x2_static_156",
      "SeriesNumber": 12,
      "SeriesTime": "150806.907000",
      "SliceLocation": -65.895201111612,
      "SliceThickness": 2.0,
      "SmallestImagePixelValue": 0,
      "SoftwareVersions": "syngo MR E11",
      "SpacingBetweenSlices": 2.0000000622757,
      "SpecificCharacterSet": "ISO_IR 100",
      "StudyID": "1",
      "StudyTime": "142104.807000",
      "TransmitCoilName": "Body",
      "VariableFlipAngleFlag": "N",
      "WindowCenterWidthExplanation": "Algo1",
      "dBdt": 0.0},
    "slices": {}
  },
  "time": {
    "samples": {
      "AcquisitionNumber": [1, 2, 3, 4, 5, 6, 7, 8, 9, 10, 11, 12, 13, 14, 15, 16, 17, 18, 19, 20, 21, 22, 23, 24, 25, 26, 27, 28, 29, 30, 31, 32, 33, 34, 35, 36, 37, 38, 39, 40, 41, 42, 43, 44, 45, 46, 47, 48, 49, 50, 51, 52, 53, 54, 55, 56, 57, 58, 59, 60, 61, 62, 63, 64, 65, 66, 67, 68, 69, 70, 71, 72, 73, 74, 75, 76, 77, 78, 79, 80, 81, 82, 83, 84, 85, 86, 87, 88, 89, 90, 91, 92, 93, 94, 95, 96, 97, 98, 99, 100, 101, 102, 103, 104, 105, 106, 107, 108, 109, 110, 111, 112, 113, 114, 115, 116, 117, 118, 119, 120, 121, 122, 123, 124, 125, 126, 127, 128, 129, 130, 131, 132, 133, 134, 135, 136, 137, 138, 139, 140, 141, 142, 143, 144, 145, 146, 147, 148, 149, 150, 151, 152, 153, 154, 155, 156],
      "AcquisitionTime": ["150804.852500", "150806.852500", "150808.852500", "150810.852500", "150812.852500", "150814.852500", "150816.852500", "150818.852500", "150820.852500", "150822.852500", "150824.852500", "150826.852500", "150828.852500", "150830.852500", "150832.852500", "150834.852500", "150836.852500", "150838.852500", "150840.852500", "150842.852500", "150844.852500", "150846.852500", "150848.852500", "150850.852500", "150852.852500", "150854.852500", "150856.852500", "150858.852500", "150900.852500", "150902.852500", "150904.852500", "150906.852500", "150908.852500", "150910.852500", "150912.852500", "150914.852500", "150916.852500", "150918.852500", "150920.852500", "150922.852500", "150924.852500", "150926.852500", "150928.852500", "150930.852500", "150932.852500", "150934.852500", "150936.852500", "150938.852500", "150940.852500", "150942.852500", "150944.852500", "150946.852500", "150948.852500", "150950.852500", "150952.852500", "150954.852500", "150956.852500", "150958.852500", "151000.852500", "151002.852500", "151004.852500", "151006.852500", "151008.852500", "151010.852500", "151012.852500", "151014.852500", "151016.852500", "151018.852500", "151020.852500", "151022.852500", "151024.852500", "151026.852500", "151028.852500", "151030.852500", "151032.852500", "151034.852500", "151036.852500", "151038.852500", "151040.852500", "151042.852500", "151044.852500", "151046.852500", "151048.852500", "151050.852500", "151052.852500", "151054.852500", "151056.852500", "151058.852500", "151100.852500", "151102.852500", "151104.852500", "151106.852500", "151108.852500", "151110.852500", "151112.852500", "151114.852500", "151116.852500", "151118.852500", "151120.852500", "151122.852500", "151124.852500", "151126.852500", "151128.852500", "151130.852500", "151132.852500", "151134.852500", "151136.852500", "151138.852500", "151140.852500", "151142.852500", "151144.852500", "151146.852500", "151148.852500", "151150.852500", "151152.852500", "151154.852500", "151156.852500", "151158.852500", "151200.852500", "151202.852500", "151204.852500", "151206.852500", "151208.852500", "151210.852500", "151212.852500", "151214.852500", "151216.852500", "151218.852500", "151220.852500", "151222.852500", "151224.852500", "151226.852500", "151228.852500", "151230.852500", "151232.852500", "151234.852500", "151236.852500", "151238.852500", "151240.852500", "151242.852500", "151244.852500", "151246.852500", "151248.852500", "151250.852500", "151252.852500", "151254.852500", "151256.852500", "151258.852500", "151300.852500", "151302.852500", "151304.852500", "151306.852500", "151308.852500", "151310.852500", "151312.852500", "151314.852500"],
      "ContentTime": ["150806.911000", "150808.407000", "150810.406000", "150812.406000", "150814.407000", "150816.407000", "150818.407000", "150820.406000", "150822.406000", "150824.406000", "150826.406000", "150828.407000", "150830.406000", "150832.407000", "150834.408000", "150836.406000", "150838.406000", "150840.407000", "150842.406000", "150844.406000", "150846.406000", "150848.408000", "150850.408000", "150852.407000", "150854.406000", "150856.406000", "150858.407000", "150900.407000", "150902.406000", "150904.406000", "150906.408000", "150908.407000", "150910.407000", "150912.406000", "150914.406000", "150916.406000", "150918.406000", "150920.407000", "150922.406000", "150924.407000", "150926.408000", "150928.408000", "150930.407000", "150932.407000", "150934.407000", "150936.406000", "150938.406000", "150940.407000", "150942.407000", "150944.407000", "150946.407000", "150948.407000", "150950.406000", "150952.406000", "150954.406000", "150956.407000", "150958.408000", "151000.408000", "151002.407000", "151004.406000", "151006.406000", "151008.406000", "151010.406000", "151012.406000", "151014.407000", "151016.408000", "151018.407000", "151020.408000", "151022.406000", "151024.406000", "151026.407000", "151028.406000", "151030.406000", "151032.406000", "151034.408000", "151036.408000", "151038.408000", "151040.406000", "151042.406000", "151044.407000", "151046.407000", "151048.407000", "151050.406000", "151052.407000", "151054.408000", "151056.407000", "151058.407000", "151100.407000", "151102.407000", "151104.406000", "151106.406000", "151108.408000", "151110.408000", "151112.407000", "151114.407000", "151116.406000", "151118.406000", "151120.406000", "151122.407000", "151124.406000", "151126.407000", "151128.407000", "151130.408000", "151132.407000", "151134.406000", "151136.406000", "151138.406000", "151140.407000", "151142.407000", "151144.407000", "151146.408000", "151148.408000", "151150.406000", "151152.407000", "151154.406000", "151156.406000", "151158.406000", "151200.406000", "151202.408000", "151204.408000", "151206.406000", "151208.406000", "151210.407000", "151212.406000", "151214.406000", "151216.406000", "151218.407000", "151220.407000", "151222.407000", "151224.407000", "151226.407000", "151228.406000", "151230.415000", "151232.407000", "151234.407000", "151236.407000", "151238.407000", "151240.407000", "151242.406000", "151244.407000", "151246.406000", "151248.406000", "151250.407000", "151252.407000", "151254.408000", "151256.407000", "151258.407000", "151300.406000", "151302.407000", "151304.406000", "151306.406000", "151308.407000", "151310.407000", "151312.407000", "151314.408000", "151316.171000"],
      "InstanceCreationTime": ["150806.911000", "150808.407000", "150810.406000", "150812.406000", "150814.407000", "150816.407000", "150818.407000", "150820.406000", "150822.406000", "150824.406000", "150826.406000", "150828.407000", "150830.406000", "150832.407000", "150834.408000", "150836.406000", "150838.406000", "150840.407000", "150842.406000", "150844.406000", "150846.406000", "150848.408000", "150850.408000", "150852.407000", "150854.406000", "150856.406000", "150858.407000", "150900.407000", "150902.406000", "150904.406000", "150906.408000", "150908.407000", "150910.407000", "150912.406000", "150914.406000", "150916.406000", "150918.406000", "150920.407000", "150922.406000", "150924.407000", "150926.408000", "150928.408000", "150930.407000", "150932.407000", "150934.407000", "150936.406000", "150938.406000", "150940.407000", "150942.407000", "150944.407000", "150946.407000", "150948.407000", "150950.406000", "150952.406000", "150954.406000", "150956.407000", "150958.408000", "151000.408000", "151002.407000", "151004.406000", "151006.406000", "151008.406000", "151010.406000", "151012.406000", "151014.407000", "151016.408000", "151018.407000", "151020.408000", "151022.406000", "151024.406000", "151026.407000", "151028.406000", "151030.406000", "151032.406000", "151034.408000", "151036.408000", "151038.408000", "151040.406000", "151042.406000", "151044.407000", "151046.407000", "151048.407000", "151050.406000", "151052.407000", "151054.408000", "151056.407000", "151058.407000", "151100.407000", "151102.407000", "151104.406000", "151106.406000", "151108.408000", "151110.408000", "151112.407000", "151114.407000", "151116.406000", "151118.406000", "151120.406000", "151122.407000", "151124.406000", "151126.407000", "151128.407000", "151130.408000", "151132.407000", "151134.406000", "151136.406000", "151138.406000", "151140.407000", "151142.407000", "151144.407000", "151146.408000", "151148.408000", "151150.406000", "151152.407000", "151154.406000", "151156.406000", "151158.406000", "151200.406000", "151202.408000", "151204.408000", "151206.406000", "151208.406000", "151210.407000", "151212.406000", "151214.406000", "151216.406000", "151218.407000", "151220.407000", "151222.407000", "151224.407000", "151226.407000", "151228.406000", "151230.415000", "151232.407000", "151234.407000", "151236.407000", "151238.407000", "151240.407000", "151242.406000", "151244.407000", "151246.406000", "151248.406000", "151250.407000", "151252.407000", "151254.408000", "151256.407000", "151258.407000", "151300.406000", "151302.407000", "151304.406000", "151306.406000", "151308.407000", "151310.407000", "151312.407000", "151314.408000", "151316.171000"],
      "InstanceNumber": [1, 2, 3, 4, 5, 6, 7, 8, 9, 10, 11, 12, 13, 14, 15, 16, 17, 18, 19, 20, 21, 22, 23, 24, 25, 26, 27, 28, 29, 30, 31, 32, 33, 34, 35, 36, 37, 38, 39, 40, 41, 42, 43, 44, 45, 46, 47, 48, 49, 50, 51, 52, 53, 54, 55, 56, 57, 58, 59, 60, 61, 62, 63, 64, 65, 66, 67, 68, 69, 70, 71, 72, 73, 74, 75, 76, 77, 78, 79, 80, 81, 82, 83, 84, 85, 86, 87, 88, 89, 90, 91, 92, 93, 94, 95, 96, 97, 98, 99, 100, 101, 102, 103, 104, 105, 106, 107, 108, 109, 110, 111, 112, 113, 114, 115, 116, 117, 118, 119, 120, 121, 122, 123, 124, 125, 126, 127, 128, 129, 130, 131, 132, 133, 134, 135, 136, 137, 138, 139, 140, 141, 142, 143, 144, 145, 146, 147, 148, 149, 150, 151, 152, 153, 154, 155, 156],
      "LargestImagePixelValue": [3147, 2953, 2935, 2974, 2917, 3135, 3038, 3062, 2897, 2931, 2977, 3177, 3012, 3149, 3176, 3162, 3059, 2998, 2952, 2926, 2987, 2933, 3027, 2923, 2939, 2926, 2926, 2944, 2934, 2939, 2938, 3069, 2926, 2947, 2968, 2940, 2916, 2885, 2929, 2943, 2945, 2954, 2930, 2906, 2920, 2917, 2914, 2902, 2913, 2940, 2945, 2971, 2924, 2976, 2908, 2896, 2909, 2934, 2921, 2897, 2906, 2971, 2945, 2908, 2915, 3082, 3050, 3079, 3116, 2913, 2900, 2900, 2895, 2908, 2916, 3110, 3087, 3147, 3150, 2968, 3117, 3068, 3045, 3034, 3056, 2938, 2977, 2938, 2897, 2933, 3087, 2985, 2923, 3126, 3110, 2980, 2905, 2898, 2902, 2938, 2890, 2890, 2915, 2983, 2951, 3077, 2901, 2871, 2910, 2969, 3021, 2999, 3040, 2890, 2896, 2906, 3027, 3014, 3079, 3140, 3014, 2998, 2955, 2897, 2920, 2928, 2934, 2972, 3082, 2976, 2927, 2925, 2909, 2869, 2939, 2904, 2975, 3031, 2919, 2920, 2901, 2897, 2961, 3220, 2871, 2879, 2901, 2919, 3026, 3065, 2890, 3086, 2989, 3140, 2939, 2907],
      "WindowCenter": [756.0, 753.0, 752.0, 752.0, 751.0, 753.0, 751.0, 751.0, 752.0, 755.0, 756.0, 756.0, 755.0, 756.0, 757.0, 756.0, 754.0, 752.0, 750.0, 749.0, 751.0, 751.0, 755.0, 753.0, 751.0, 750.0, 750.0, 750.0, 751.0, 751.0, 751.0, 752.0, 751.0, 751.0, 751.0, 752.0, 753.0, 753.0, 754.0, 755.0, 755.0, 753.0, 752.0, 751.0, 753.0, 753.0, 753.0, 753.0, 753.0, 752.0, 752.0, 752.0, 751.0, 752.0, 751.0, 751.0, 752.0, 752.0, 753.0, 753.0, 753.0, 753.0, 752.0, 751.0, 753.0, 755.0, 754.0, 754.0, 756.0, 754.0, 754.0, 753.0, 753.0, 753.0, 754.0, 755.0, 755.0, 755.0, 754.0, 752.0, 753.0, 752.0, 752.0, 753.0, 753.0, 753.0, 753.0, 753.0, 753.0, 753.0, 752.0, 751.0, 753.0, 755.0, 755.0, 752.0, 752.0, 753.0, 753.0, 752.0, 752.0, 751.0, 752.0, 752.0, 752.0, 753.0, 752.0, 752.0, 752.0, 752.0, 753.0, 752.0, 753.0, 752.0, 752.0, 753.0, 755.0, 756.0, 754.0, 754.0, 752.0, 750.0, 749.0, 749.0, 749.0, 749.0, 749.0, 751.0, 754.0, 754.0, 754.0, 753.0, 753.0, 754.0, 753.0, 752.0, 752.0, 752.0, 750.0, 750.0, 752.0, 754.0, 755.0, 757.0, 754.0, 753.0, 753.0, 753.0, 753.0, 753.0, 752.0, 753.0, 751.0, 754.0, 753.0, 752.0],
      "WindowWidth": [1609.0, 1604.0, 1600.0, 1600.0, 1598.0, 1601.0, 1597.0, 1598.0, 1601.0, 1607.0, 1610.0, 1610.0, 1607.0, 1611.0, 1612.0, 1609.0, 1605.0, 1600.0, 1595.0, 1593.0, 1597.0, 1598.0, 1606.0, 1603.0, 1599.0, 1595.0, 1594.0, 1595.0, 1597.0, 1598.0, 1597.0, 1600.0, 1598.0, 1598.0, 1599.0, 1599.0, 1602.0, 1602.0, 1605.0, 1607.0, 1607.0, 1603.0, 1600.0, 1597.0, 1602.0, 1602.0, 1603.0, 1603.0, 1602.0, 1602.0, 1601.0, 1601.0, 1599.0, 1600.0, 1596.0, 1598.0, 1601.0, 1601.0, 1603.0, 1603.0, 1602.0, 1603.0, 1599.0, 1598.0, 1604.0, 1608.0, 1606.0, 1606.0, 1610.0, 1606.0, 1605.0, 1603.0, 1601.0, 1603.0, 1604.0, 1607.0, 1607.0, 1607.0, 1604.0, 1599.0, 1601.0, 1600.0, 1601.0, 1602.0, 1603.0, 1603.0, 1604.0, 1603.0, 1603.0, 1602.0, 1600.0, 1597.0, 1601.0, 1608.0, 1607.0, 1600.0, 1599.0, 1602.0, 1602.0, 1600.0, 1600.0, 1597.0, 1600.0, 1600.0, 1599.0, 1603.0, 1600.0, 1600.0, 1601.0, 1601.0, 1603.0, 1601.0, 1602.0, 1601.0, 1602.0, 1601.0, 1606.0, 1609.0, 1605.0, 1605.0, 1600.0, 1596.0, 1593.0, 1592.0, 1594.0, 1594.0, 1593.0, 1597.0, 1606.0, 1606.0, 1605.0, 1604.0, 1604.0, 1606.0, 1602.0, 1600.0, 1601.0, 1600.0, 1594.0, 1596.0, 1601.0, 1606.0, 1607.0, 1611.0, 1606.0, 1604.0, 1604.0, 1602.0, 1602.0, 1603.0, 1600.0, 1602.0, 1598.0, 1605.0, 1602.0, 1600.0]
    },
    "slices": {}
  }
}