{"AcquisitionMatrixPE": 100, "AcquisitionNumber": 1, "AcquisitionTime": "09:59:11.160000", "BaseResolution": 100, "BodyPartExamined": "BRAIN", "CoilCombinationMethod": "Sum of Squares", "ConsistencyInfo": "N4_VE11C_LATEST_20160120", "ConversionSoftware": "dcm2niix", "ConversionSoftwareVersion": "v1.0.20211006", "DeviceSerialNumber": "166078", "DwellTime": 8.8e-06, "EchoNumber": 2, "EchoTime": 0.00738, "EchoTime1": 0.00492, "EchoTime2": 0.00738, "FlipAngle": 60, "ImageOrientationPatientDICOM": [0.99685, 0.0187054, 0.0770665, 3.9512e-11, 0.971785, -0.235869], "ImageOrientationText": "Tra>Cor(-13.6)>Sag(4.5)", "ImageType": ["ORIGINAL", "PRIMARY", "P", "ND", "PHASE"], "ImagingFrequency": 123.258, "InPlanePhaseEncodingDirectionDICOM": "ROW", "InstitutionAddress": "Street StreetNo,Bei Jing,District,CN,ZIP", "InstitutionName": "BeiJing Normal University", "InstitutionalDepartmentName": "Department", "MRAcquisitionType": "2D", "MagneticFieldStrength": 3, "Manufacturer": "Siemens", "ManufacturersModelName": "Prisma", "MatrixCoilMode": "SENSE", "Modality": "MR", "PartialFourier": 1, "PatientPosition": "HFS", "PercentPhaseFOV": 100, "PercentSampling": 100, "PhaseEncodingDirection": "i", "PhaseEncodingSteps": 100, "PhaseResolution": 1, "PixelBandwidth": 570, "ProcedureStepDescription": "BNU_P2018_64CH^Zhen.ZongLei", "ProtocolName": "field_mapping_2x2x2", "PulseSequenceDetails": "%SiemensSeq%\\gre_field_mapping", "ReceiveCoilActiveElements": "HC1-7;NC1", "ReceiveCoilName": "HeadNeck_64", "ReconMatrixPE": 100, "RepetitionTime": 0.72, "SAR": 0.112655, "ScanningSequence": "GR", "SequenceName": "*fm2d2r", "SequenceVariant": "SP", "SeriesDescription": "field_mapping_2x2x2", "SeriesNumber": 11, "ShimSetting": [-5428, -11517, -1313, 415, 115, -426, -218, -38], "SliceThickness": 2, "SliceTiming": [0.35938, 0, 0.375, 0.01562, 0.38281, 0.02344, 0.39062, 0.03125, 0.40625, 0.04688, 0.41406, 0.05469, 0.42188, 0.0625, 0.42969, 0.07031, 0.44531, 0.08594, 0.45312, 0.09375, 0.46094, 0.10156, 0.47656, 0.10938, 0.48438, 0.125, 0.49219, 0.13281, 0.5, 0.14062, 0.51562, 0.15625, 0.52344, 0.16406, 0.53125, 0.17188, 0.54688, 0.17969, 0.55469, 0.19531, 0.5625, 0.20312, 0.57031, 0.21094, 0.58594, 0.22656, 0.59375, 0.23438, 0.60156, 0.24219, 0.60938, 0.25, 0.625, 0.26562, 0.63281, 0.27344, 0.64062, 0.28125, 0.65625, 0.29688, 0.66406, 0.30469, 0.67188, 0.3125, 0.67969, 0.32031, 0.69531, 0.33594, 0.70312, 0.34375, 0.71094, 0.35156], "SoftwareVersions": "syngo MR E11", "SpacingBetweenSlices": 2, "StationName": "AWP166078", "TxRefAmp": 209.779, "dcmmeta_affine": [[-1.9937009811401367, 7.90240026193878e-11, 0.15860843658447266, 97.49835968017578], [-0.03741082549095154, 1.943569540977478, -0.47025299072265625, -70.97064208984375], [0.15413308143615723, 0.47173869609832764, 1.9374465942382812, -101.68789672851562], [0.0, 0.0, 0.0, 1.0]], "dcmmeta_reorient_transform": [[0.0, -1.0, 0.0, 99.0], [1.0, 0.0, 0.0, 0.0], [0.0, 0.0, -1.0, 71.0], [0.0, 0.0, 0.0, 1.0]], "dcmmeta_shape": [100, 100, 72], "dcmmeta_slice_dim": 2, "dcmmeta_version": 0.6, "global": {"const": {"AcquisitionMatrix": [0, 100, 100, 0], "AcquisitionNumber": 1, "AngioFlag": "N", "BitsAllocated": 16, "BitsStored": 12, "BodyPartExamined": "BRAIN", "Columns": 100, "EchoNumbers": 2, "EchoTime": 7.38, "EchoTrainLength": 0, "FlipAngle": 60.0, "HighBit": 11, "ImageOrientationPatient": [0.99685046785845, 0.01870541329889, 0.0770665442569, 3.9512e-11, 0.97178477481982, -0.2358693524568], "ImageType": ["ORIGINAL", "PRIMARY", "P", "ND"], "ImagedNucleus": "1H", "ImagingFrequency": 123.257743, "InPlanePhaseEncodingDirection": "ROW", "MRAcquisitionType": "2D", "MagneticFieldStrength": 3.0, "Manufacturer": "SIEMENS", "ManufacturerModelName": "Prisma", "Modality": "MR", "NumberOfAverages": 1.0, "NumberOfPhaseEncodingSteps": 100, "PercentPhaseFieldOfView": 100.0, "PercentSampling": 100.0, "PerformedProcedureStepStartTime": "090325.218000", "PhotometricInterpretation": "MONOCHROME2", "PixelBandwidth": 570.0, "PixelRepresentation": 0, "PixelSpacing": [2.0, 2.0], "ProtocolName": "field_mapping_2x2x2", "RepetitionTime": 720.0, "RescaleIntercept": -4096.0, "RescaleSlope": 2.0, "RescaleType": "US", "Rows": 100, "SAR": 0.11265526972245, "SamplesPerPixel": 1, "ScanningSequence": "GR", "SequenceName": "*fm2d2r", "SequenceVariant": "SP", "SeriesDescription": "field_mapping_2x2x2", "SeriesNumber": 11, "SeriesTime": "100135.631000", "SliceThickness": 2.0, "SoftwareVersions": "syngo MR E11", "SpacingBetweenSlices": 2.0, "SpecificCharacterSet": "ISO_IR 100", "StudyID": "1", "StudyTime": "090325.146000", "TransmitCoilName": "Body", "VariableFlipAngleFlag": "N", "WindowCenterWidthExplanation": "Algo1", "dBdt": 0.0}, "slices": {"AcquisitionTime": ["095911.160000", "095910.800000", "095911.170000", "095910.810000", "095911.180000", "095910.820000", "095911.190000", "095910.830000", "095911.200000", "095910.840000", "095911.210000", "095910.850000", "095911.220000", "095910.860000", "095911.230000", "095910.870000", "095911.240000", "095910.880000", "095911.250000", "095910.890000", "095911.260000", "095910.900000", "095911.270000", "095910.910000", "095911.280000", "095910.920000", "095911.290000", "095910.930000", "095911.300000", "095910.940000", "095911.310000", "095910.950000", "095911.320000", "095910.960000", "095911.330000", "095910.970000", "095911.340000", "095910.980000", "095911.350000", "095910.990000", "095911.360000", "095911.000000", "095911.370000", "095911.010000", "095911.380000", "095911.020000", "095911.390000", "095911.030000", "095911.400000", "095911.040000", "095911.410000", "095911.050000", "095911.420000", "095911.060000", "095911.430000", "095911.070000", "095911.440000", "095911.080000", "095911.450000", "095911.090000", "095911.460000", "095911.100000", "095911.470000", "095911.110000", "095911.480000", "095911.120000", "095911.490000", "095911.130000", "095911.500000", "095911.140000", "095911.510000", "095911.150000"], "ContentTime": ["100135.704000", "100135.633000", "100135.706000", "100135.636000", "100135.708000", "100135.638000", "100135.710000", "100135.640000", "100135.712000", "100135.642000", "100135.714000", "100135.645000", "100135.716000", "100135.647000", "100135.718000", "100135.648000", "100135.719000", "100135.650000", "100135.721000", "100135.652000", "100135.723000", "100135.654000", "100135.725000", "100135.656000", "100135.727000", "100135.658000", "100135.729000", "100135.660000", "100135.731000", "100135.662000", "100135.733000", "100135.664000", "100135.735000", "100135.665000", "100135.737000", "100135.667000", "100135.739000", "100135.669000", "100135.741000", "100135.671000", "100135.743000", "100135.673000", "100135.745000", "100135.675000", "100135.747000", "100135.677000", "100135.748000", "100135.679000", "100135.750000", "100135.681000", "100135.752000", "100135.683000", "100135.754000", "100135.685000", "100135.756000", "100135.687000", "100135.758000", "100135.689000", "100135.760000", "100135.691000", "100135.762000", "100135.693000", "100135.764000", "100135.695000", "100135.765000", "100135.697000", "100135.767000", "100135.699000", "100135.769000", "100135.700000", "100135.771000", "100135.702000"], "CsaImage.GSWDDataType": ["measured", "predicted", "measured", "predicted", "measured", "predicted", "measured", "predicted", "measured", "predicted", "measured", "predicted", "measured", "predicted", "measured", "predicted", "measured", "predicted", "measured", "predicted", "measured", "predicted", "measured", "predicted", "measured", "predicted", "measured", "predicted", "measured", "predicted", "measured", "predicted", "measured", "predicted", "measured", "predicted", "measured", "predicted", "measured", "predicted", "measured", "predicted", "measured", "predicted", "measured", "predicted", "measured", "predicted", "measured", "predicted", "measured", "predicted", "measured", "predicted", "measured", "predicted", "measured", "predicted", "measured", "predicted", "measured", "predicted", "measured", "measured", "measured", "measured", "measured", "measured", "measured", "measured", "measured", "measured"], "CsaImage.ICE_Dims": ["X_2_1_1_1_1_1_37_1_1_1_1_56", "X_2_1_1_1_1_1_1_1_1_2_1_56", "X_2_1_1_1_1_1_38_1_1_3_1_56", "X_2_1_1_1_1_1_2_1_1_4_1_56", "X_2_1_1_1_1_1_39_1_1_5_1_56", "X_2_1_1_1_1_1_3_1_1_6_1_56", "X_2_1_1_1_1_1_40_1_1_7_1_56", "X_2_1_1_1_1_1_4_1_1_8_1_56", "X_2_1_1_1_1_1_41_1_1_9_1_56", "X_2_1_1_1_1_1_5_1_1_10_1_56", "X_2_1_1_1_1_1_42_1_1_11_1_56", "X_2_1_1_1_1_1_6_1_1_12_1_56", "X_2_1_1_1_1_1_43_1_1_13_1_56", "X_2_1_1_1_1_1_7_1_1_14_1_56", "X_2_1_1_1_1_1_44_1_1_15_1_56", "X_2_1_1_1_1_1_8_1_1_16_1_56", "X_2_1_1_1_1_1_45_1_1_17_1_56", "X_2_1_1_1_1_1_9_1_1_18_1_56", "X_2_1_1_1_1_1_46_1_1_19_1_56", "X_2_1_1_1_1_1_10_1_1_20_1_56", "X_2_1_1_1_1_1_47_1_1_21_1_56", "X_2_1_1_1_1_1_11_1_1_22_1_56", "X_2_1_1_1_1_1_48_1_1_23_1_56", "X_2_1_1_1_1_1_12_1_1_24_1_56", "X_2_1_1_1_1_1_49_1_1_25_1_56", "X_2_1_1_1_1_1_13_1_1_26_1_56", "X_2_1_1_1_1_1_50_1_1_27_1_56", "X_2_1_1_1_1_1_14_1_1_28_1_56", "X_2_1_1_1_1_1_51_1_1_29_1_56", "X_2_1_1_1_1_1_15_1_1_30_1_56", "X_2_1_1_1_1_1_52_1_1_31_1_56", "X_2_1_1_1_1_1_16_1_1_32_1_56", "X_2_1_1_1_1_1_53_1_1_33_1_56", "X_2_1_1_1_1_1_17_1_1_34_1_56", "X_2_1_1_1_1_1_54_1_1_35_1_56", "X_2_1_1_1_1_1_18_1_1_36_1_56", "X_2_1_1_1_1_1_55_1_1_37_1_56", "X_2_1_1_1_1_1_19_1_1_38_1_56", "X_2_1_1_1_1_1_56_1_1_39_1_56", "X_2_1_1_1_1_1_20_1_1_40_1_56", "X_2_1_1_1_1_1_57_1_1_41_1_56", "X_2_1_1_1_1_1_21_1_1_42_1_56", "X_2_1_1_1_1_1_58_1_1_43_1_56", "X_2_1_1_1_1_1_22_1_1_44_1_56", "X_2_1_1_1_1_1_59_1_1_45_1_56", "X_2_1_1_1_1_1_23_1_1_46_1_56", "X_2_1_1_1_1_1_60_1_1_47_1_56", "X_2_1_1_1_1_1_24_1_1_48_1_56", "X_2_1_1_1_1_1_61_1_1_49_1_56", "X_2_1_1_1_1_1_25_1_1_50_1_56", "X_2_1_1_1_1_1_62_1_1_51_1_56", "X_2_1_1_1_1_1_26_1_1_52_1_56", "X_2_1_1_1_1_1_63_1_1_53_1_56", "X_2_1_1_1_1_1_27_1_1_54_1_56", "X_2_1_1_1_1_1_64_1_1_55_1_56", "X_2_1_1_1_1_1_28_1_1_56_1_56", "X_2_1_1_1_1_1_65_1_1_57_1_56", "X_2_1_1_1_1_1_29_1_1_58_1_56", "X_2_1_1_1_1_1_66_1_1_59_1_56", "X_2_1_1_1_1_1_30_1_1_60_1_56", "X_2_1_1_1_1_1_67_1_1_61_1_56", "X_2_1_1_1_1_1_31_1_1_62_1_56", "X_2_1_1_1_1_1_68_1_1_63_1_56", "X_2_1_1_1_1_1_32_1_1_64_1_56", "X_2_1_1_1_1_1_69_1_1_65_1_56", "X_2_1_1_1_1_1_33_1_1_66_1_56", "X_2_1_1_1_1_1_70_1_1_67_1_56", "X_2_1_1_1_1_1_34_1_1_68_1_56", "X_2_1_1_1_1_1_71_1_1_69_1_56", "X_2_1_1_1_1_1_35_1_1_70_1_56", "X_2_1_1_1_1_1_72_1_1_71_1_56", "X_2_1_1_1_1_1_36_1_1_72_1_56"], "CsaImage.ProtocolSliceNumber": [0, 1, 2, 3, 4, 5, 6, 7, 8, 9, 10, 11, 12, 13, 14, 15, 16, 17, 18, 19, 20, 21, 22, 23, 24, 25, 26, 27, 28, 29, 30, 31, 32, 33, 34, 35, 36, 37, 38, 39, 40, 41, 42, 43, 44, 45, 46, 47, 48, 49, 50, 51, 52, 53, 54, 55, 56, 57, 58, 59, 60, 61, 62, 63, 64, 65, 66, 67, 68, 69, 70, 71], "CsaImage.RFSWDDataType": ["measured", "predicted", "measured", "predicted", "measured", "predicted", "measured", "predicted", "measured", "predicted", "measured", "predicted", "measured", "predicted", "measured", "predicted", "measured", "predicted", "measured", "predicted", "measured", "predicted", "measured", "predicted", "measured", "predicted", "measured", "predicted", "measured", "predicted", "measured", "predicted", "measured", "predicted", "measured", "predicted", "measured", "predicted", "measured", "predicted", "measured", "predicted", "measured", "predicted", "measured", "predicted", "measured", "predicted", "measured", "predicted", "measured", "predicted", "measured", "predicted", "measured", "predicted", "measured", "predicted", "measured", "measured", "measured", "measured", "measured", "measured", "measured", "measured", "measured", "measured", "measured", "measured", "measured", "measured"], "CsaImage.SlicePosition_PCS": [[-97.49837243, -121.44274325, -54.98587671], [-97.65698063, -120.97249026, -53.04843012], [-97.81558883, -120.50223727, -51.11098352], [-97.97419715, -120.03198428, -49.1735293], [-98.13280535, -119.56173129, -47.23608271], [-98.29141366, -119.0914783, -45.29863611], [-98.45002186, -118.62122531, -43.36118952], [-98.60863018, -118.15097232, -41.42373911], [-98.76723844, -117.68071933, -39.48629251], [-98.92584669, -117.21046634, -37.5488421], [-99.08445495, -116.74021335, -35.61139551], [-99.24306324, -116.26996036, -33.6739451], [-99.4016715, -115.79970736, -31.73649851], [-99.56027976, -115.32945437, -29.79905191], [-99.71888803, -114.85920138, -27.8616015], [-99.87749628, -114.38894839, -25.92415491], [-100.03610456, -113.9186954, -23.9867045], [-100.19471282, -113.44844336, -22.04925791], [-100.35332107, -112.97819037, -20.1118075], [-100.51192933, -112.50793738, -18.1743609], [-100.67053759, -112.03768439, -16.23691431], [-100.82914591, -111.5674314, -14.2994639], [-100.9877541, -111.09717841, -12.36201731], [-101.14636242, -110.62692542, -10.4245688], [-101.30497062, -110.15667243, -8.4871203], [-101.46357894, -109.68641944, -6.5496718], [-101.62218725, -109.21616645, -4.6122233], [-101.78079545, -108.74591346, -2.6747748], [-101.93940365, -108.27566047, -0.7373263], [-102.09801209, -107.80540748, 1.20012125], [-102.25662029, -107.33515449, 3.13756975], [-102.41522848, -106.86490149, 5.0750173], [-102.57383668, -106.3946485, 7.0124658], [-102.73244512, -105.92439551, 8.94991383], [-102.89105332, -105.454143, 10.88736233], [-103.04966151, -104.98389001, 12.82481035], [-103.20826995, -104.51363702, 14.76225862], [-103.36687815, -104.04338403, 16.69970682], [-103.52548635, -103.57313104, 18.63715514], [-103.68409455, -103.10287805, 20.57460341], [-103.84270298, -102.63262506, 22.51205143], [-104.00131094, -102.16237206, 24.44949946], [-104.15991938, -101.69211907, 26.38694796], [-104.31852782, -101.22186632, 28.32439646], [-104.47713578, -100.75161333, 30.26184401], [-104.63574421, -100.28136034, 32.19929251], [-104.79435265, -99.81110741, 34.13674101], [-104.95296061, -99.34085445, 36.07418951], [-105.11156904, -98.87060149, 38.01163801], [-105.27017748, -98.40034856, 39.94908461], [-105.42878544, -97.93009562, 41.88653311], [-105.58739388, -97.45984263, 43.82398161], [-105.74600231, -96.98958964, 45.76143011], [-105.90461027, -96.51933665, 47.69887861], [-106.06321871, -96.0490839, 49.63632712], [-106.22182667, -95.57883091, 51.57377371], [-106.38043511, -95.10857792, 53.51122412], [-106.53904354, -94.63832517, 55.44867071], [-106.6976515, -94.16807218, 57.38612112], [-106.85625994, -93.69781918, 59.32356772], [-107.01486838, -93.22756619, 61.26101431], [-107.17347634, -92.7573132, 63.19846472], [-107.33208477, -92.28706021, 65.13591131], [-107.49069321, -91.81680722, 67.07336172], [-107.64930117, -91.34655423, 69.01080832], [-107.80790961, -90.87630172, 70.94825491], [-107.96651804, -90.40604873, 72.88570532], [-108.12512648, -89.93579574, 74.82315191], [-108.28373396, -89.46554275, 76.76060232], [-108.4423424, -88.99528975, 78.69804892], [-108.60095083, -88.52503676, 80.63549933], [-108.75955927, -88.05478377, 82.57294592]], "CsaImage.TimeAfterStart": [1.0825, 0.7225, 1.0925, 0.7325, 1.1025, 0.7425, 1.1125, 0.7525, 1.1225, 0.7625, 1.1325, 0.7725, 1.1425, 0.7825, 1.1525, 0.7925, 1.1625, 0.8025, 1.1725, 0.8125, 1.1825, 0.8225, 1.1925, 0.8325, 1.2025, 0.8425, 1.2125, 0.8525, 1.2225, 0.8625, 1.2325, 0.8725, 1.2425, 0.8825, 1.2525, 0.8925, 1.2625, 0.9025, 1.2725, 0.9125, 1.2825, 0.9225, 1.2925, 0.9325, 1.3025, 0.9425, 1.3125, 0.9525, 1.3225, 0.9625, 1.3325, 0.9725, 1.3425, 0.9825, 1.3525, 0.9925, 1.3625, 1.0025, 1.3725, 1.0125, 1.3825, 1.0225, 1.3925, 1.0325, 1.4025, 1.0425, 1.4125, 1.0525, 1.4225, 1.0625, 1.4325, 1.0725], "ImagePositionPatient": [[-97.498372433336, -121.4427432534, -54.985876711748], [-97.656980631502, -120.97249026268, -53.04843011751], [-97.815588829667, -120.50223727195, -51.110983523272], [-97.974197147043, -120.03198428123, -49.173529299639], [-98.132805345208, -119.56173129051, -47.2360827054], [-98.291413662584, -119.09147829979, -45.298636111162], [-98.45002186075, -118.62122530906, -43.361189516924], [-98.608630178125, -118.15097231834, -41.423739107988], [-98.767238435895, -117.68071932762, -39.48629251375], [-98.925846693666, -117.2104663369, -37.548842104814], [-99.084454951436, -116.74021334617, -35.611395510576], [-99.243063239009, -116.26996035545, -33.673945101641], [-99.40167149678, -115.79970736473, -31.736498507402], [-99.560279762001, -115.329454374, -29.799051913164], [-99.718888027222, -114.85920138328, -27.861601504229], [-99.877496284993, -114.38894839256, -25.92415490999], [-100.03610455766, -113.91869540184, -23.986704501055], [-100.19471281543, -113.44844336479, -22.049257906816], [-100.35332107321, -112.97819037407, -20.111807497881], [-100.51192933098, -112.50793738334, -18.174360903643], [-100.67053758875, -112.03768439262, -16.236914309404], [-100.82914590612, -111.5674314019, -14.299463900469], [-100.98775410429, -111.09717841117, -12.362017306231], [-101.14636242166, -110.62692542045, -10.424568804644], [-101.30497061983, -110.15667242973, -8.4871203030567], [-101.4635789372, -109.68641943901, -6.5496718014698], [-101.62218725458, -109.21616644828, -4.6122232998828], [-101.78079545274, -108.74591345756, -2.6747747982959], [-101.93940365091, -108.27566046684, -0.737326296709], [-102.0980120875, -107.80540747612, 1.2001212512036], [-102.25662028566, -107.33515448539, 3.1375697527905], [-102.41522848383, -106.86490149467, 5.0750173007031], [-102.57383668199, -106.39464850395, 7.01246580229], [-102.73244511858, -105.92439551323, 8.9499138270398], [-102.89105331674, -105.45414299934, 10.887362328627], [-103.04966151491, -104.98389000862, 12.824810353376], [-103.20826995149, -104.51363701789, 14.762258616545], [-103.36687814966, -104.04338402717, 16.699706820108], [-103.52548634783, -103.57313103645, 18.637155142881], [-103.68409454599, -103.10287804573, 20.57460340605], [-103.84270298258, -102.632625055, 22.5120514308], [-104.00131094232, -102.16237206428, 24.449499455549], [-104.15991937891, -101.69211907356, 26.386947957136], [-104.31852781549, -101.22186632125, 28.324396458723], [-104.47713577524, -100.75161333053, 30.261844006636], [-104.63574421182, -100.28136033981, 32.199292508223], [-104.79435264841, -99.811107408692, 34.13674100981], [-104.95296060816, -99.340854447771, 36.074189511396], [-105.11156904474, -98.870601486851, 38.011638012983], [-105.27017748132, -98.400348555733, 39.949084607222], [-105.42878544107, -97.930095624615, 41.886533108809], [-105.58739387766, -97.459842633892, 43.823981610395], [-105.74600231424, -96.98958964317, 45.761430111982], [-105.90461027399, -96.519336652447, 47.698878613569], [-106.06321871057, -96.049083900143, 49.636327115156], [-106.22182667032, -95.57883090942, 51.573773709395], [-106.3804351069, -95.108577918697, 53.51122411833], [-106.53904354349, -94.638325166393, 55.448670712568], [-106.69765150324, -94.168072175671, 57.386121121504], [-106.85625993982, -93.697819184948, 59.323567715742], [-107.01486837641, -93.227566194225, 61.26101430998], [-107.17347633615, -92.757313203503, 63.198464718916], [-107.33208477274, -92.28706021278, 65.135911313154], [-107.49069320932, -91.816807222057, 67.07336172209], [-107.64930116907, -91.346554231335, 69.010808316328], [-107.80790960565, -90.876301717449, 70.948254910566], [-107.96651804224, -90.406048726727, 72.885705319502], [-108.12512647882, -89.935795736004, 74.82315191374], [-108.28373396173, -89.465542745281, 76.760602322676], [-108.44234239832, -88.995289754559, 78.698048916914], [-108.6009508349, -88.525036763836, 80.63549932585], [-108.75955927149, -88.054783773113, 82.572945920088]], "InstanceCreationTime": ["100135.704000", "100135.633000", "100135.706000", "100135.636000", "100135.708000", "100135.638000", "100135.710000", "100135.640000", "100135.712000", "100135.642000", "100135.714000", "100135.645000", "100135.716000", "100135.647000", "100135.718000", "100135.648000", "100135.719000", "100135.650000", "100135.721000", "100135.652000", "100135.723000", "100135.654000", "100135.725000", "100135.656000", "100135.727000", "100135.658000", "100135.729000", "100135.660000", "100135.731000", "100135.662000", "100135.733000", "100135.664000", "100135.735000", "100135.665000", "100135.737000", "100135.667000", "100135.739000", "100135.669000", "100135.741000", "100135.671000", "100135.743000", "100135.673000", "100135.745000", "100135.675000", "100135.747000", "100135.677000", "100135.748000", "100135.679000", "100135.750000", "100135.681000", "100135.752000", "100135.683000", "100135.754000", "100135.685000", "100135.756000", "100135.687000", "100135.758000", "100135.689000", "100135.760000", "100135.691000", "100135.762000", "100135.693000", "100135.764000", "100135.695000", "100135.765000", "100135.697000", "100135.767000", "100135.699000", "100135.769000", "100135.700000", "100135.771000", "100135.702000"], "InstanceNumber": [1, 2, 3, 4, 5, 6, 7, 8, 9, 10, 11, 12, 13, 14, 15, 16, 17, 18, 19, 20, 21, 22, 23, 24, 25, 26, 27, 28, 29, 30, 31, 32, 33, 34, 35, 36, 37, 38, 39, 40, 41, 42, 43, 44, 45, 46, 47, 48, 49, 50, 51, 52, 53, 54, 55, 56, 57, 58, 59, 60, 61, 62, 63, 64, 65, 66, 67, 68, 69, 70, 71, 72], "LargestImagePixelValue": [4093, 4095, 4095, 4095, 4093, 4095, 4094, 4094, 4094, 4095, 4093, 4092, 4095, 4095, 4093, 4095, 4094, 4093, 4094, 4094, 4094, 4092, 4089, 4095, 4090, 4095, 4094, 4094, 4090, 4089, 4095, 4093, 4093, 4082, 4093, 4092, 4095, 4094, 4094, 4093, 4092, 4094, 4089, 4083, 4094, 4095, 4093, 4095, 4092, 4094, 4094, 4094, 4088, 4095, 4095, 4095, 4091, 4093, 4093, 4093, 4094, 4093, 4095, 4094, 4091, 4094, 4094, 4095, 4094, 4094, 4095, 4095], "SliceLocation": [-74.088524981164, -72.088526545831, -70.088528110498, -68.088522274932, -66.088523839599, -64.088525394813, -62.08852695948, -60.088524819304, -58.088526379244, -56.088524243795, -54.088525803735, -52.088523665922, -50.088525225862, -48.088526785212, -46.088524649172, -44.088526209112, -42.088524072481, -40.088525856655, -38.088523721206, -36.088525281146, -34.088526841087, -32.088524700911, -30.088526265578, -28.088525973096, -26.088525690069, -24.088525397587, -22.088525105106, -20.088524822078, -18.088524539051, -16.088525160963, -14.088524877935, -12.088525518755, -10.088525235727, -8.0885253957159, -6.0885252248054, -4.0885254037014, -2.0885253327281, -0.0885253384028, 1.9114747714034, 3.9114748234692, 5.9114746634807, 7.911474465677, 9.9114747676122, 11.911475013489, 13.911474353762, 15.911474655697, 17.911474943617, 19.91147520073, 21.911475495658, 23.911473935884, 25.911474185989, 27.911474487924, 29.911474789859, 31.911475053979, 33.911475299856, 35.911473716281, 37.911475865911, 39.911474264093, 41.911476375908, 43.911474830148, 45.911473284389, 47.911475396204, 49.911473850444, 51.911476000074, 53.911474416499, 55.911472758623, 57.911474908253, 59.911473362493, 61.911475436493, 63.911473890733, 65.911476040363, 67.911474494603], "SmallestImagePixelValue": [0, 0, 0, 0, 0, 0, 0, 0, 1, 2, 1, 0, 0, 2, 0, 0, 0, 0, 0, 0, 0, 0, 0, 0, 0, 0, 0, 1, 1, 2, 1, 4, 7, 0, 1, 1, 1, 0, 7, 0, 2, 4, 5, 5, 0, 4, 0, 7, 3, 1, 0, 6, 0, 3, 3, 1, 0, 0, 2, 0, 2, 0, 0, 3, 0, 0, 0, 0, 0, 0, 0, 0], "WindowCenter": [-254.0, -122.0, -140.0, -132.0, -150.0, -166.0, -206.0, -226.0, -216.0, -182.0, -168.0, -204.0, -206.0, -176.0, -174.0, -114.0, -114.0, -82.0, -70.0, -134.0, -160.0, -220.0, -242.0, -262.0, -254.0, -258.0, -204.0, -158.0, -134.0, -100.0, -80.0, -74.0, -60.0, -74.0, -72.0, -112.0, -120.0, -138.0, -124.0, -126.0, -128.0, -96.0, -122.0, -112.0, -112.0, -100.0, -224.0, -190.0, -184.0, -170.0, -176.0, -162.0, -156.0, -158.0, -158.0, -170.0, -156.0, -166.0, -188.0, -164.0, -16.0, -14.0, -4.0, -40.0, -34.0, -70.0, -116.0, -146.0, -150.0, -212.0, -204.0, -280.0], "WindowWidth": [6048.0, 6248.0, 6166.0, 6164.0, 6162.0, 6194.0, 6268.0, 6274.0, 6274.0, 6300.0, 6308.0, 6288.0, 6214.0, 6244.0, 6262.0, 6340.0, 6378.0, 6436.0, 6374.0, 6308.0, 6300.0, 6170.0, 6084.0, 5972.0, 5828.0, 5736.0, 5682.0, 5704.0, 5662.0, 5586.0, 5476.0, 5464.0, 5366.0, 5304.0, 5414.0, 5370.0, 5354.0, 5256.0, 5330.0, 5308.0, 5224.0, 5320.0, 5166.0, 5188.0, 5122.0, 5134.0, 4598.0, 4578.0, 4576.0, 4572.0, 4574.0, 4564.0, 4556.0, 4568.0, 4580.0, 4600.0, 4598.0, 4624.0, 4636.0, 4648.0, 5426.0, 5516.0, 5604.0, 5672.0, 5680.0, 5770.0, 5856.0, 5940.0, 5926.0, 5974.0, 6036.0, 6052.0]}}, "IntendedFor": ["ses-action01/func/sub-17_ses-action01_task-action_run-06_bold.nii.gz", "ses-action01/func/sub-17_ses-action01_task-action_run-09_bold.nii.gz", "ses-action01/func/sub-17_ses-action01_task-action_run-04_bold.nii.gz", "ses-action01/func/sub-17_ses-action01_task-action_run-12_bold.nii.gz", "ses-action01/func/sub-17_ses-action01_task-action_run-02_bold.nii.gz", "ses-action01/func/sub-17_ses-action01_task-action_run-10_bold.nii.gz", "ses-action01/func/sub-17_ses-action01_task-action_run-03_bold.nii.gz", "ses-action01/func/sub-17_ses-action01_task-action_run-11_bold.nii.gz", "ses-action01/func/sub-17_ses-action01_task-action_run-01_bold.nii.gz", "ses-action01/func/sub-17_ses-action01_task-action_run-08_bold.nii.gz", "ses-action01/func/sub-17_ses-action01_task-action_run-07_bold.nii.gz", "ses-action01/func/sub-17_ses-action01_task-action_run-05_bold.nii.gz"]}