{
  "AcquisitionMatrixPE": 100,
  "AcquisitionNumber": 1,
  "AcquisitionTime": "11:41:45.345000",
  "BandwidthPerPixelPhaseEncode": 18.519,
  "BaseResolution": 100,
  "BodyPartExamined": "BRAIN",
  "CoilCombinationMethod": "Sum of Squares",
  "ConsistencyInfo": "N4_VE11C_LATEST_20160120",
  "ConversionSoftware": "dcm2niix",
  "ConversionSoftwareVersion": "v1.0.20211006",
  "DerivedVendorReportedEchoSpacing": 0.000539986,
  "DeviceSerialNumber": "166078",
  "DwellTime": 2.1e-06,
  "EchoTime": 0.034,
  "EchoTrainLength": 100,
  "EffectiveEchoSpacing": 0.000539986,
  "FlipAngle": 90,
  "ImageOrientationPatientDICOM": [1, 0, 0, 0, 0.999507, 0.0314108],
  "ImageOrientationText": "Tra>Cor(1.8)",
  "ImageType": [
    "ORIGINAL",
    "PRIMARY",
    "M",
    "ND",
    "MOSAIC"
],
  "ImagingFrequency": 123.258,
  "InPlanePhaseEncodingDirectionDICOM": "COL",
  "InstitutionAddress": "Street StreetNo,Bei Jing,District,CN,ZIP",
  "InstitutionName": "BeiJing Normal University",
  "InstitutionalDepartmentName": "Department",
  "MRAcquisitionType": "2D",
  "MagneticFieldStrength": 3,
  "Manufacturer": "Siemens",
  "ManufacturersModelName": "Prisma",
  "Modality": "MR",
  "MultibandAccelerationFactor": 3,
  "PartialFourier": 1,
  "PatientPosition": "HFS",
  "PercentPhaseFOV": 100,
  "PercentSampling": 100,
  "PhaseEncodingDirection": "j-",
  "PhaseEncodingSteps": 100,
  "PhaseResolution": 1,
  "PixelBandwidth": 2380,
  "ProcedureStepDescription": "BNU_P2018_64CH^Zhen.ZongLei",
  "ProtocolName": "bold_100x100_s3_2x2x2_static_156",
  "PulseSequenceDetails": "%SiemensSeq%\\ep2d_bold",
  "ReceiveCoilActiveElements": "HC1-7;NC1",
  "ReceiveCoilName": "HeadNeck_64",
  "ReconMatrixPE": 100,
  "RefLinesPE": 32,
  "RepetitionTime": 2,
  "SAR": 0.0769418,
  "ScanOptions": "FS",
  "ScanningSequence": "EP",
  "SequenceName": "*epfid2d1_100",
  "SequenceVariant": "SK",
  "SeriesDescription": "bold_100x100_s3_2x2x2_static_156",
  "SeriesNumber": 16,
  "ShimSetting": [-5481, -11537, -1253, 118, -76, -310, -24, 7],
  "SliceThickness": 2,
  "SliceTiming": [1.485, 0, 0.99, 0.0825, 1.0725, 0.165, 1.155, 0.2475, 1.2375, 0.33, 1.32, 0.4125, 1.4025, 0.5775, 1.5675, 0.66, 1.65, 0.7425, 1.7325, 0.825, 1.815, 0.9075, 1.8975, 0.495, 1.485, 0, 0.99, 0.0825, 1.0725, 0.165, 1.155, 0.2475, 1.2375, 0.33, 1.32, 0.4125, 1.4025, 0.5775, 1.5675, 0.66, 1.65, 0.7425, 1.7325, 0.825, 1.815, 0.9075, 1.8975, 0.495, 1.485, 0, 0.99, 0.0825, 1.0725, 0.165, 1.155, 0.2475, 1.2375, 0.33, 1.32, 0.4125, 1.4025, 0.5775, 1.5675, 0.66, 1.65, 0.7425, 1.7325, 0.825, 1.815, 0.9075, 1.8975, 0.495],
  "SoftwareVersions": "syngo MR E11",
  "SpacingBetweenSlices": 2,
  "StationName": "AWP166078",
  "TaskName": "action",
  "TotalReadoutTime": 0.0534586,
  "TxRefAmp": 235.836,
  "dcmmeta_affine": [
    [-2.0, 0.0, 0.0, 100.0],
    [0.0, 1.999013066291809, 0.06282151490449905, -90.89851379394531],
    [0.0, -0.06282151490449905, 1.999013066291809, -62.28865051269531],
    [0.0, 0.0, 0.0, 1.0]
],
  "dcmmeta_reorient_transform": [
    [0.0, -1.0, 0.0, 99.0],
    [1.0, 0.0, 0.0, 0.0],
    [0.0, 0.0, 1.0, 0.0],
    [0.0, 0.0, 0.0, 1.0]
],
  "dcmmeta_shape": [100, 100, 72, 156],
  "dcmmeta_slice_dim": 2,
  "dcmmeta_version": 0.6,
  "global": {
    "const": {
      "AcquisitionMatrix": [100, 0, 0, 100],
      "AngioFlag": "N",
      "BitsAllocated": 16,
      "BitsStored": 12,
      "BodyPartExamined": "BRAIN",
      "Columns": 900,
      "EchoNumbers": 1,
      "EchoTime": 34.0,
      "EchoTrainLength": 100,
      "FlipAngle": 90.0,
      "HighBit": 11,
      "ImageOrientationPatient": [1.0, 0.0, 0.0, 0.0, 0.99950656036366, 0.03141075914411],
      "ImagePositionPatient": [-900.0, -906.60903352346, -93.636588442105],
      "ImageType": [
        "ORIGINAL",
        "PRIMARY",
        "M",
        "ND",
        "MOSAIC"
],
      "ImagedNucleus": "1H",
      "ImagingFrequency": 123.257674,
      "InPlanePhaseEncodingDirection": "COL",
      "MRAcquisitionType": "2D",
      "MagneticFieldStrength": 3.0,
      "Manufacturer": "SIEMENS",
      "ManufacturerModelName": "Prisma",
      "Modality": "MR",
      "NumberOfAverages": 1.0,
      "NumberOfPhaseEncodingSteps": 100,
      "PercentPhaseFieldOfView": 100.0,
      "PercentSampling": 100.0,
      "PerformedProcedureStepStartTime": "103104.889000",
      "PhotometricInterpretation": "MONOCHROME2",
      "PixelBandwidth": 2380.0,
      "PixelRepresentation": 0,
      "PixelSpacing": [2.0, 2.0],
      "ProtocolName": "bold_100x100_s3_2x2x2_static_156",
      "RepetitionTime": 2000.0,
      "Rows": 900,
      "SAR": 0.07694175689097,
      "SamplesPerPixel": 1,
      "ScanOptions": "FS",
      "ScanningSequence": "EP",
      "SequenceName": "*epfid2d1_100",
      "SequenceVariant": "SK",
      "SeriesDescription": "bold_100x100_s3_2x2x2_static_156",
      "SeriesNumber": 16,
      "SeriesTime": "114147.992000",
      "SliceLocation": -65.113106448072,
      "SliceThickness": 2.0,
      "SmallestImagePixelValue": 0,
      "SoftwareVersions": "syngo MR E11",
      "SpacingBetweenSlices": 2.0000000011055,
      "SpecificCharacterSet": "ISO_IR 100",
      "StudyID": "1",
      "StudyTime": "103104.850000",
      "TransmitCoilName": "Body",
      "VariableFlipAngleFlag": "N",
      "WindowCenterWidthExplanation": "Algo1",
      "dBdt": 0.0},
    "slices": {}
  },
  "time": {
    "samples": {
      "AcquisitionNumber": [1, 2, 3, 4, 5, 6, 7, 8, 9, 10, 11, 12, 13, 14, 15, 16, 17, 18, 19, 20, 21, 22, 23, 24, 25, 26, 27, 28, 29, 30, 31, 32, 33, 34, 35, 36, 37, 38, 39, 40, 41, 42, 43, 44, 45, 46, 47, 48, 49, 50, 51, 52, 53, 54, 55, 56, 57, 58, 59, 60, 61, 62, 63, 64, 65, 66, 67, 68, 69, 70, 71, 72, 73, 74, 75, 76, 77, 78, 79, 80, 81, 82, 83, 84, 85, 86, 87, 88, 89, 90, 91, 92, 93, 94, 95, 96, 97, 98, 99, 100, 101, 102, 103, 104, 105, 106, 107, 108, 109, 110, 111, 112, 113, 114, 115, 116, 117, 118, 119, 120, 121, 122, 123, 124, 125, 126, 127, 128, 129, 130, 131, 132, 133, 134, 135, 136, 137, 138, 139, 140, 141, 142, 143, 144, 145, 146, 147, 148, 149, 150, 151, 152, 153, 154, 155, 156],
      "AcquisitionTime": ["114145.345000", "114147.345000", "114149.345000", "114151.345000", "114153.345000", "114155.345000", "114157.345000", "114159.345000", "114201.345000", "114203.345000", "114205.345000", "114207.345000", "114209.345000", "114211.345000", "114213.345000", "114215.345000", "114217.345000", "114219.345000", "114221.345000", "114223.345000", "114225.345000", "114227.345000", "114229.345000", "114231.345000", "114233.345000", "114235.345000", "114237.345000", "114239.345000", "114241.345000", "114243.345000", "114245.345000", "114247.345000", "114249.345000", "114251.345000", "114253.345000", "114255.345000", "114257.345000", "114259.345000", "114301.345000", "114303.345000", "114305.345000", "114307.345000", "114309.345000", "114311.345000", "114313.345000", "114315.345000", "114317.345000", "114319.345000", "114321.345000", "114323.345000", "114325.345000", "114327.345000", "114329.345000", "114331.345000", "114333.345000", "114335.345000", "114337.345000", "114339.345000", "114341.345000", "114343.345000", "114345.345000", "114347.345000", "114349.345000", "114351.345000", "114353.345000", "114355.345000", "114357.345000", "114359.345000", "114401.345000", "114403.345000", "114405.345000", "114407.345000", "114409.345000", "114411.345000", "114413.345000", "114415.345000", "114417.345000", "114419.345000", "114421.345000", "114423.345000", "114425.345000", "114427.345000", "114429.345000", "114431.345000", "114433.345000", "114435.345000", "114437.345000", "114439.345000", "114441.345000", "114443.345000", "114445.345000", "114447.345000", "114449.345000", "114451.345000", "114453.345000", "114455.345000", "114457.345000", "114459.345000", "114501.345000", "114503.345000", "114505.345000", "114507.345000", "114509.345000", "114511.345000", "114513.345000", "114515.345000", "114517.345000", "114519.345000", "114521.345000", "114523.345000", "114525.345000", "114527.345000", "114529.345000", "114531.345000", "114533.345000", "114535.345000", "114537.345000", "114539.345000", "114541.345000", "114543.345000", "114545.345000", "114547.345000", "114549.345000", "114551.345000", "114553.345000", "114555.345000", "114557.345000", "114559.345000", "114601.345000", "114603.345000", "114605.345000", "114607.345000", "114609.345000", "114611.345000", "114613.345000", "114615.345000", "114617.345000", "114619.345000", "114621.345000", "114623.345000", "114625.345000", "114627.345000", "114629.345000", "114631.345000", "114633.345000", "114635.345000", "114637.345000", "114639.345000", "114641.345000", "114643.345000", "114645.345000", "114647.345000", "114649.345000", "114651.345000", "114653.345000", "114655.345000"],
      "ContentTime": ["114147.996000", "114149.492000", "114151.491000", "114153.491000", "114155.492000", "114157.492000", "114159.492000", "114201.492000", "114203.491000", "114205.491000", "114207.491000", "114209.491000", "114211.491000", "114213.492000", "114215.493000", "114217.492000", "114219.492000", "114221.491000", "114223.491000", "114225.492000", "114227.492000", "114229.492000", "114231.492000", "114233.493000", "114235.493000", "114237.491000", "114239.492000", "114241.492000", "114243.491000", "114245.491000", "114247.493000", "114249.492000", "114251.493000", "114253.493000", "114255.491000", "114257.491000", "114259.491000", "114301.491000", "114303.491000", "114305.492000", "114307.492000", "114309.493000", "114311.493000", "114313.491000", "114315.492000", "114317.491000", "114319.492000", "114321.492000", "114323.493000", "114325.492000", "114327.493000", "114329.492000", "114331.491000", "114333.491000", "114335.491000", "114337.491000", "114339.492000", "114341.493000", "114343.493000", "114345.493000", "114347.491000", "114349.492000", "114351.491000", "114353.492000", "114355.492000", "114357.492000", "114359.493000", "114401.492000", "114403.493000", "114405.491000", "114407.491000", "114409.491000", "114411.491000", "114413.491000", "114415.493000", "114417.492000", "114419.493000", "114421.492000", "114423.491000", "114425.491000", "114427.491000", "114429.491000", "114431.492000", "114433.492000", "114435.493000", "114437.492000", "114439.493000", "114441.492000", "114443.491000", "114445.491000", "114447.491000", "114449.493000", "114451.492000", "114453.492000", "114455.492000", "114457.492000", "114459.491000", "114501.491000", "114503.492000", "114505.491000", "114507.493000", "114509.493000", "114511.493000", "114513.492000", "114515.491000", "114517.491000", "114519.491000", "114521.491000", "114523.491000", "114525.493000", "114527.492000", "114529.492000", "114531.493000", "114533.492000", "114535.492000", "114537.491000", "114539.491000", "114541.493000", "114543.492000", "114545.492000", "114547.492000", "114549.493000", "114551.492000", "114553.491000", "114555.491000", "114557.491000", "114559.492000", "114601.492000", "114603.492000", "114605.493000", "114607.491000", "114609.492000", "114611.492000", "114613.491000", "114615.492000", "114617.493000", "114619.493000", "114621.493000", "114623.492000", "114625.491000", "114627.491000", "114629.491000", "114631.491000", "114633.492000", "114635.492000", "114637.493000", "114639.492000", "114641.493000", "114643.492000", "114645.492000", "114647.492000", "114649.492000", "114651.492000", "114653.493000", "114655.493000", "114657.330000"],
      "InstanceCreationTime": ["114147.996000", "114149.492000", "114151.491000", "114153.491000", "114155.492000", "114157.492000", "114159.492000", "114201.492000", "114203.491000", "114205.491000", "114207.491000", "114209.491000", "114211.491000", "114213.492000", "114215.493000", "114217.492000", "114219.492000", "114221.491000", "114223.491000", "114225.492000", "114227.492000", "114229.492000", "114231.492000", "114233.493000", "114235.493000", "114237.491000", "114239.492000", "114241.492000", "114243.491000", "114245.491000", "114247.493000", "114249.492000", "114251.493000", "114253.493000", "114255.491000", "114257.491000", "114259.491000", "114301.491000", "114303.491000", "114305.492000", "114307.492000", "114309.493000", "114311.493000", "114313.491000", "114315.492000", "114317.491000", "114319.492000", "114321.492000", "114323.493000", "114325.492000", "114327.493000", "114329.492000", "114331.491000", "114333.491000", "114335.491000", "114337.491000", "114339.492000", "114341.493000", "114343.493000", "114345.493000", "114347.491000", "114349.492000", "114351.491000", "114353.492000", "114355.492000", "114357.492000", "114359.493000", "114401.492000", "114403.493000", "114405.491000", "114407.491000", "114409.491000", "114411.491000", "114413.491000", "114415.493000", "114417.492000", "114419.493000", "114421.492000", "114423.491000", "114425.491000", "114427.491000", "114429.491000", "114431.492000", "114433.492000", "114435.493000", "114437.492000", "114439.493000", "114441.492000", "114443.491000", "114445.491000", "114447.491000", "114449.493000", "114451.492000", "114453.492000", "114455.492000", "114457.492000", "114459.491000", "114501.491000", "114503.492000", "114505.491000", "114507.493000", "114509.493000", "114511.493000", "114513.492000", "114515.491000", "114517.491000", "114519.491000", "114521.491000", "114523.491000", "114525.493000", "114527.492000", "114529.492000", "114531.493000", "114533.492000", "114535.492000", "114537.491000", "114539.491000", "114541.493000", "114543.492000", "114545.492000", "114547.492000", "114549.493000", "114551.492000", "114553.491000", "114555.491000", "114557.491000", "114559.492000", "114601.492000", "114603.492000", "114605.493000", "114607.491000", "114609.492000", "114611.492000", "114613.491000", "114615.492000", "114617.493000", "114619.493000", "114621.493000", "114623.492000", "114625.491000", "114627.491000", "114629.491000", "114631.491000", "114633.492000", "114635.492000", "114637.493000", "114639.492000", "114641.493000", "114643.492000", "114645.492000", "114647.492000", "114649.492000", "114651.492000", "114653.493000", "114655.493000", "114657.330000"],
      "InstanceNumber": [1, 2, 3, 4, 5, 6, 7, 8, 9, 10, 11, 12, 13, 14, 15, 16, 17, 18, 19, 20, 21, 22, 23, 24, 25, 26, 27, 28, 29, 30, 31, 32, 33, 34, 35, 36, 37, 38, 39, 40, 41, 42, 43, 44, 45, 46, 47, 48, 49, 50, 51, 52, 53, 54, 55, 56, 57, 58, 59, 60, 61, 62, 63, 64, 65, 66, 67, 68, 69, 70, 71, 72, 73, 74, 75, 76, 77, 78, 79, 80, 81, 82, 83, 84, 85, 86, 87, 88, 89, 90, 91, 92, 93, 94, 95, 96, 97, 98, 99, 100, 101, 102, 103, 104, 105, 106, 107, 108, 109, 110, 111, 112, 113, 114, 115, 116, 117, 118, 119, 120, 121, 122, 123, 124, 125, 126, 127, 128, 129, 130, 131, 132, 133, 134, 135, 136, 137, 138, 139, 140, 141, 142, 143, 144, 145, 146, 147, 148, 149, 150, 151, 152, 153, 154, 155, 156],
      "LargestImagePixelValue": [2851, 2783, 2784, 2779, 2788, 2743, 2779, 2750, 2761, 2740, 2766, 2775, 2757, 2773, 2784, 2780, 2786, 2764, 2768, 2747, 2770, 2746, 2772, 2795, 2771, 2767, 2788, 2755, 2771, 2756, 2771, 2775, 2769, 2761, 2760, 2764, 2761, 2789, 2806, 2785, 2756, 2762, 2765, 2776, 2778, 2775, 2782, 2767, 2787, 2748, 2741, 2780, 2777, 2799, 2796, 2771, 2792, 2791, 2771, 2788, 2777, 2785, 2797, 2790, 2774, 2803, 2789, 2773, 2777, 2766, 2783, 2788, 2782, 2790, 2775, 2778, 2794, 2756, 2778, 2789, 2757, 2788, 2778, 2782, 2774, 2778, 2748, 2790, 2777, 2756, 2801, 2771, 2772, 2798, 2793, 2774, 2802, 2787, 2769, 2765, 2818, 2772, 2774, 2820, 2783, 2793, 2790, 2799, 2807, 2775, 2773, 2800, 2774, 2821, 2793, 2786, 2784, 2784, 2797, 2790, 2809, 2757, 2827, 2768, 2815, 2813, 2776, 2815, 2775, 2788, 2823, 2788, 2815, 2796, 2797, 2818, 2760, 2780, 2816, 2779, 2804, 2821, 2774, 2793, 2804, 2778, 2775, 2846, 2778, 2810, 2789, 2790, 2822, 2757, 2802, 2772],
      "WindowCenter": [773.0, 771.0, 770.0, 769.0, 769.0, 769.0, 769.0, 770.0, 771.0, 771.0, 771.0, 771.0, 771.0, 771.0, 771.0, 771.0, 771.0, 770.0, 770.0, 769.0, 770.0, 769.0, 770.0, 771.0, 771.0, 771.0, 771.0, 771.0, 771.0, 771.0, 770.0, 770.0, 770.0, 771.0, 770.0, 770.0, 770.0, 771.0, 772.0, 771.0, 771.0, 771.0, 770.0, 770.0, 770.0, 771.0, 771.0, 770.0, 770.0, 770.0, 771.0, 771.0, 770.0, 770.0, 770.0, 771.0, 772.0, 771.0, 770.0, 770.0, 770.0, 770.0, 771.0, 770.0, 770.0, 770.0, 770.0, 771.0, 773.0, 772.0, 771.0, 770.0, 771.0, 771.0, 771.0, 770.0, 770.0, 770.0, 771.0, 770.0, 770.0, 770.0, 770.0, 771.0, 771.0, 771.0, 770.0, 772.0, 772.0, 770.0, 770.0, 770.0, 770.0, 770.0, 770.0, 770.0, 771.0, 771.0, 772.0, 771.0, 772.0, 771.0, 771.0, 771.0, 771.0, 771.0, 771.0, 772.0, 773.0, 772.0, 772.0, 772.0, 771.0, 771.0, 771.0, 771.0, 771.0, 770.0, 771.0, 771.0, 771.0, 771.0, 773.0, 773.0, 773.0, 773.0, 772.0, 773.0, 772.0, 770.0, 770.0, 771.0, 771.0, 771.0, 772.0, 772.0, 771.0, 770.0, 770.0, 769.0, 770.0, 771.0, 771.0, 772.0, 772.0, 771.0, 771.0, 772.0, 771.0, 771.0, 770.0, 770.0, 770.0, 769.0, 770.0, 770.0],
      "WindowWidth": [1642.0, 1636.0, 1632.0, 1631.0, 1631.0, 1631.0, 1632.0, 1633.0, 1636.0, 1637.0, 1636.0, 1636.0, 1636.0, 1636.0, 1637.0, 1636.0, 1636.0, 1633.0, 1632.0, 1631.0, 1632.0, 1631.0, 1633.0, 1636.0, 1637.0, 1637.0, 1638.0, 1636.0, 1636.0, 1636.0, 1634.0, 1635.0, 1635.0, 1636.0, 1635.0, 1634.0, 1634.0, 1635.0, 1638.0, 1637.0, 1637.0, 1636.0, 1634.0, 1634.0, 1635.0, 1636.0, 1636.0, 1633.0, 1633.0, 1635.0, 1637.0, 1636.0, 1635.0, 1635.0, 1635.0, 1636.0, 1638.0, 1637.0, 1635.0, 1634.0, 1635.0, 1635.0, 1636.0, 1635.0, 1634.0, 1634.0, 1635.0, 1637.0, 1641.0, 1639.0, 1636.0, 1635.0, 1636.0, 1637.0, 1636.0, 1634.0, 1634.0, 1635.0, 1636.0, 1634.0, 1633.0, 1635.0, 1635.0, 1635.0, 1636.0, 1636.0, 1635.0, 1639.0, 1639.0, 1635.0, 1634.0, 1634.0, 1635.0, 1635.0, 1635.0, 1635.0, 1636.0, 1637.0, 1638.0, 1636.0, 1638.0, 1637.0, 1636.0, 1637.0, 1635.0, 1635.0, 1637.0, 1638.0, 1640.0, 1639.0, 1638.0, 1638.0, 1636.0, 1636.0, 1636.0, 1636.0, 1636.0, 1635.0, 1636.0, 1636.0, 1637.0, 1637.0, 1642.0, 1640.0, 1640.0, 1640.0, 1638.0, 1640.0, 1639.0, 1634.0, 1634.0, 1636.0, 1637.0, 1637.0, 1638.0, 1639.0, 1636.0, 1634.0, 1633.0, 1631.0, 1635.0, 1637.0, 1636.0, 1637.0, 1637.0, 1637.0, 1636.0, 1639.0, 1636.0, 1636.0, 1634.0, 1634.0, 1634.0, 1631.0, 1634.0, 1635.0]
    },
    "slices": {}
  }
}