{
  "AcquisitionMatrixPE": 100,
  "AcquisitionNumber": 1,
  "AcquisitionTime": "10:39:50.437500",
  "BandwidthPerPixelPhaseEncode": 18.519,
  "BaseResolution": 100,
  "BodyPartExamined": "BRAIN",
  "CoilCombinationMethod": "Sum of Squares",
  "ConsistencyInfo": "N4_VE11C_LATEST_20160120",
  "ConversionSoftware": "dcm2niix",
  "ConversionSoftwareVersion": "v1.0.20211006",
  "DerivedVendorReportedEchoSpacing": 0.000539986,
  "DeviceSerialNumber": "166078",
  "DwellTime": 2.1e-06,
  "EchoTime": 0.034,
  "EchoTrainLength": 100,
  "EffectiveEchoSpacing": 0.000539986,
  "FlipAngle": 90,
  "ImageOrientationPatientDICOM": [1, 0, 0, 0, 0.999507, 0.0314108],
  "ImageOrientationText": "Tra>Cor(1.8)",
  "ImageType": [
    "ORIGINAL",
    "PRIMARY",
    "M",
    "ND",
    "MOSAIC"
],
  "ImagingFrequency": 123.258,
  "InPlanePhaseEncodingDirectionDICOM": "COL",
  "InstitutionAddress": "Street StreetNo,Bei Jing,District,CN,ZIP",
  "InstitutionName": "BeiJing Normal University",
  "InstitutionalDepartmentName": "Department",
  "MRAcquisitionType": "2D",
  "MagneticFieldStrength": 3,
  "Manufacturer": "Siemens",
  "ManufacturersModelName": "Prisma",
  "Modality": "MR",
  "MultibandAccelerationFactor": 3,
  "PartialFourier": 1,
  "PatientPosition": "HFS",
  "PercentPhaseFOV": 100,
  "PercentSampling": 100,
  "PhaseEncodingDirection": "j-",
  "PhaseEncodingSteps": 100,
  "PhaseResolution": 1,
  "PixelBandwidth": 2380,
  "ProcedureStepDescription": "BNU_P2018_64CH^Zhen.ZongLei",
  "ProtocolName": "bold_100x100_s3_2x2x2_static_156",
  "PulseSequenceDetails": "%SiemensSeq%\\ep2d_bold",
  "ReceiveCoilActiveElements": "HC1-7;NC1",
  "ReceiveCoilName": "HeadNeck_64",
  "ReconMatrixPE": 100,
  "RefLinesPE": 32,
  "RepetitionTime": 2,
  "SAR": 0.0769418,
  "ScanOptions": "FS",
  "ScanningSequence": "EP",
  "SequenceName": "*epfid2d1_100",
  "SequenceVariant": "SK",
  "SeriesDescription": "bold_100x100_s3_2x2x2_static_156",
  "SeriesNumber": 4,
  "ShimSetting": [-5481, -11537, -1253, 118, -76, -310, -24, 7],
  "SliceThickness": 2,
  "SliceTiming": [1.4825, 0, 0.9875, 0.0825, 1.07, 0.165, 1.1525, 0.2475, 1.235, 0.33, 1.3175, 0.4125, 1.4, 0.5775, 1.565, 0.66, 1.6475, 0.7425, 1.73, 0.825, 1.8125, 0.905, 1.895, 0.495, 1.4825, 0, 0.9875, 0.0825, 1.07, 0.165, 1.1525, 0.2475, 1.235, 0.33, 1.3175, 0.4125, 1.4, 0.5775, 1.565, 0.66, 1.6475, 0.7425, 1.73, 0.825, 1.8125, 0.905, 1.895, 0.495, 1.4825, 0, 0.9875, 0.0825, 1.07, 0.165, 1.1525, 0.2475, 1.235, 0.33, 1.3175, 0.4125, 1.4, 0.5775, 1.565, 0.66, 1.6475, 0.7425, 1.73, 0.825, 1.8125, 0.905, 1.895, 0.495],
  "SoftwareVersions": "syngo MR E11",
  "SpacingBetweenSlices": 2,
  "StationName": "AWP166078",
  "TaskName": "action",
  "TotalReadoutTime": 0.0534586,
  "TxRefAmp": 235.836,
  "dcmmeta_affine": [
    [-2.0, 0.0, 0.0, 100.0],
    [0.0, 1.999013066291809, 0.06282151490449905, -90.89851379394531],
    [0.0, -0.06282151490449905, 1.999013066291809, -62.28865051269531],
    [0.0, 0.0, 0.0, 1.0]
],
  "dcmmeta_reorient_transform": [
    [0.0, -1.0, 0.0, 99.0],
    [1.0, 0.0, 0.0, 0.0],
    [0.0, 0.0, 1.0, 0.0],
    [0.0, 0.0, 0.0, 1.0]
],
  "dcmmeta_shape": [100, 100, 72, 156],
  "dcmmeta_slice_dim": 2,
  "dcmmeta_version": 0.6,
  "global": {
    "const": {
      "AcquisitionMatrix": [100, 0, 0, 100],
      "AngioFlag": "N",
      "BitsAllocated": 16,
      "BitsStored": 12,
      "BodyPartExamined": "BRAIN",
      "Columns": 900,
      "EchoNumbers": 1,
      "EchoTime": 34.0,
      "EchoTrainLength": 100,
      "FlipAngle": 90.0,
      "HighBit": 11,
      "ImageOrientationPatient": [1.0, 0.0, 0.0, 0.0, 0.99950656036366, 0.03141075914411],
      "ImagePositionPatient": [-900.0, -906.60903352346, -93.636588442105],
      "ImageType": [
        "ORIGINAL",
        "PRIMARY",
        "M",
        "ND",
        "MOSAIC"
],
      "ImagedNucleus": "1H",
      "ImagingFrequency": 123.25764,
      "InPlanePhaseEncodingDirection": "COL",
      "MRAcquisitionType": "2D",
      "MagneticFieldStrength": 3.0,
      "Manufacturer": "SIEMENS",
      "ManufacturerModelName": "Prisma",
      "Modality": "MR",
      "NumberOfAverages": 1.0,
      "NumberOfPhaseEncodingSteps": 100,
      "PercentPhaseFieldOfView": 100.0,
      "PercentSampling": 100.0,
      "PerformedProcedureStepStartTime": "103104.889000",
      "PhotometricInterpretation": "MONOCHROME2",
      "PixelBandwidth": 2380.0,
      "PixelRepresentation": 0,
      "PixelSpacing": [2.0, 2.0],
      "ProtocolName": "bold_100x100_s3_2x2x2_static_156",
      "RepetitionTime": 2000.0,
      "Rows": 900,
      "SAR": 0.07694175689097,
      "SamplesPerPixel": 1,
      "ScanOptions": "FS",
      "ScanningSequence": "EP",
      "SequenceName": "*epfid2d1_100",
      "SequenceVariant": "SK",
      "SeriesDescription": "bold_100x100_s3_2x2x2_static_156",
      "SeriesNumber": 4,
      "SeriesTime": "103952.585000",
      "SliceLocation": -65.113106448072,
      "SliceThickness": 2.0,
      "SmallestImagePixelValue": 0,
      "SoftwareVersions": "syngo MR E11",
      "SpacingBetweenSlices": 2.0000000011055,
      "SpecificCharacterSet": "ISO_IR 100",
      "StudyID": "1",
      "StudyTime": "103104.850000",
      "TransmitCoilName": "Body",
      "VariableFlipAngleFlag": "N",
      "WindowCenterWidthExplanation": "Algo1",
      "dBdt": 0.0},
    "slices": {}
  },
  "time": {
    "samples": {
      "AcquisitionNumber": [1, 2, 3, 4, 5, 6, 7, 8, 9, 10, 11, 12, 13, 14, 15, 16, 17, 18, 19, 20, 21, 22, 23, 24, 25, 26, 27, 28, 29, 30, 31, 32, 33, 34, 35, 36, 37, 38, 39, 40, 41, 42, 43, 44, 45, 46, 47, 48, 49, 50, 51, 52, 53, 54, 55, 56, 57, 58, 59, 60, 61, 62, 63, 64, 65, 66, 67, 68, 69, 70, 71, 72, 73, 74, 75, 76, 77, 78, 79, 80, 81, 82, 83, 84, 85, 86, 87, 88, 89, 90, 91, 92, 93, 94, 95, 96, 97, 98, 99, 100, 101, 102, 103, 104, 105, 106, 107, 108, 109, 110, 111, 112, 113, 114, 115, 116, 117, 118, 119, 120, 121, 122, 123, 124, 125, 126, 127, 128, 129, 130, 131, 132, 133, 134, 135, 136, 137, 138, 139, 140, 141, 142, 143, 144, 145, 146, 147, 148, 149, 150, 151, 152, 153, 154, 155, 156],
      "AcquisitionTime": ["103950.437500", "103952.437500", "103954.437500", "103956.437500", "103958.437500", "104000.437500", "104002.437500", "104004.437500", "104006.437500", "104008.437500", "104010.437500", "104012.437500", "104014.437500", "104016.437500", "104018.437500", "104020.437500", "104022.437500", "104024.437500", "104026.437500", "104028.437500", "104030.437500", "104032.437500", "104034.437500", "104036.437500", "104038.437500", "104040.437500", "104042.437500", "104044.437500", "104046.437500", "104048.437500", "104050.437500", "104052.437500", "104054.437500", "104056.437500", "104058.437500", "104100.437500", "104102.437500", "104104.437500", "104106.437500", "104108.437500", "104110.437500", "104112.437500", "104114.437500", "104116.437500", "104118.437500", "104120.437500", "104122.437500", "104124.437500", "104126.437500", "104128.437500", "104130.437500", "104132.437500", "104134.437500", "104136.437500", "104138.437500", "104140.437500", "104142.437500", "104144.437500", "104146.437500", "104148.437500", "104150.437500", "104152.437500", "104154.437500", "104156.437500", "104158.437500", "104200.437500", "104202.437500", "104204.437500", "104206.437500", "104208.437500", "104210.437500", "104212.437500", "104214.437500", "104216.437500", "104218.437500", "104220.437500", "104222.437500", "104224.437500", "104226.437500", "104228.437500", "104230.437500", "104232.437500", "104234.437500", "104236.437500", "104238.437500", "104240.437500", "104242.437500", "104244.437500", "104246.437500", "104248.437500", "104250.437500", "104252.437500", "104254.437500", "104256.437500", "104258.437500", "104300.437500", "104302.437500", "104304.437500", "104306.437500", "104308.437500", "104310.437500", "104312.437500", "104314.437500", "104316.437500", "104318.437500", "104320.437500", "104322.437500", "104324.437500", "104326.437500", "104328.437500", "104330.437500", "104332.437500", "104334.437500", "104336.437500", "104338.437500", "104340.437500", "104342.437500", "104344.437500", "104346.437500", "104348.437500", "104350.437500", "104352.437500", "104354.437500", "104356.437500", "104358.437500", "104400.437500", "104402.437500", "104404.437500", "104406.437500", "104408.437500", "104410.437500", "104412.437500", "104414.437500", "104416.437500", "104418.437500", "104420.437500", "104422.437500", "104424.437500", "104426.437500", "104428.437500", "104430.437500", "104432.437500", "104434.437500", "104436.437500", "104438.437500", "104440.437500", "104442.437500", "104444.437500", "104446.437500", "104448.437500", "104450.437500", "104452.437500", "104454.437500", "104456.437500", "104458.437500", "104500.437500"],
      "ContentTime": ["103952.589000", "103954.084000", "103956.585000", "103958.084000", "104000.084000", "104002.085000", "104004.083000", "104006.084000", "104008.085000", "104010.084000", "104012.084000", "104014.085000", "104016.084000", "104018.084000", "104020.085000", "104022.084000", "104024.084000", "104026.584000", "104028.085000", "104030.085000", "104032.085000", "104034.084000", "104036.085000", "104038.583000", "104040.084000", "104042.083000", "104044.084000", "104046.085000", "104048.084000", "104050.084000", "104052.085000", "104054.085000", "104056.083000", "104058.083000", "104100.084000", "104102.084000", "104104.085000", "104106.085000", "104108.085000", "104110.085000", "104112.084000", "104114.083000", "104116.083000", "104118.085000", "104120.084000", "104122.084000", "104124.085000", "104126.084000", "104128.084000", "104130.084000", "104132.083000", "104134.083000", "104136.084000", "104138.085000", "104140.085000", "104142.084000", "104144.084000", "104146.084000", "104148.084000", "104150.084000", "104152.084000", "104154.085000", "104156.084000", "104158.084000", "104200.085000", "104202.085000", "104204.084000", "104206.083000", "104208.083000", "104210.085000", "104212.084000", "104214.085000", "104216.085000", "104218.084000", "104220.085000", "104222.084000", "104224.083000", "104226.083000", "104228.084000", "104230.085000", "104232.085000", "104234.085000", "104236.084000", "104238.084000", "104240.084000", "104242.083000", "104244.583000", "104246.084000", "104248.085000", "104250.084000", "104252.084000", "104254.085000", "104256.085000", "104258.084000", "104300.083000", "104302.084000", "104304.084000", "104306.085000", "104308.085000", "104310.085000", "104312.085000", "104314.085000", "104316.083000", "104318.083000", "104320.084000", "104322.085000", "104324.085000", "104326.085000", "104328.085000", "104330.085000", "104332.085000", "104334.083000", "104336.084000", "104338.085000", "104340.084000", "104342.084000", "104344.085000", "104346.085000", "104348.085000", "104350.084000", "104352.583000", "104354.115000", "104356.085000", "104358.084000", "104400.084000", "104402.084000", "104404.085000", "104406.084000", "104408.083000", "104410.083000", "104412.083000", "104414.084000", "104416.085000", "104418.085000", "104420.085000", "104422.084000", "104424.085000", "104426.083000", "104428.083000", "104430.085000", "104432.084000", "104434.084000", "104436.085000", "104438.085000", "104440.084000", "104442.585000", "104444.083000", "104446.083000", "104448.085000", "104450.085000", "104452.085000", "104454.085000", "104456.085000", "104458.085000", "104500.084000", "104501.951000"],
      "InstanceCreationTime": ["103952.589000", "103954.084000", "103956.585000", "103958.084000", "104000.084000", "104002.085000", "104004.083000", "104006.084000", "104008.085000", "104010.084000", "104012.084000", "104014.085000", "104016.084000", "104018.084000", "104020.085000", "104022.084000", "104024.084000", "104026.584000", "104028.085000", "104030.085000", "104032.085000", "104034.084000", "104036.085000", "104038.583000", "104040.084000", "104042.083000", "104044.084000", "104046.085000", "104048.084000", "104050.084000", "104052.085000", "104054.085000", "104056.083000", "104058.083000", "104100.084000", "104102.084000", "104104.085000", "104106.085000", "104108.085000", "104110.085000", "104112.084000", "104114.083000", "104116.083000", "104118.085000", "104120.084000", "104122.084000", "104124.085000", "104126.084000", "104128.084000", "104130.084000", "104132.083000", "104134.083000", "104136.084000", "104138.085000", "104140.085000", "104142.084000", "104144.084000", "104146.084000", "104148.084000", "104150.084000", "104152.084000", "104154.085000", "104156.084000", "104158.084000", "104200.085000", "104202.085000", "104204.084000", "104206.083000", "104208.083000", "104210.085000", "104212.084000", "104214.085000", "104216.085000", "104218.084000", "104220.085000", "104222.084000", "104224.083000", "104226.083000", "104228.084000", "104230.085000", "104232.085000", "104234.085000", "104236.084000", "104238.084000", "104240.084000", "104242.083000", "104244.583000", "104246.084000", "104248.085000", "104250.084000", "104252.084000", "104254.085000", "104256.085000", "104258.084000", "104300.083000", "104302.084000", "104304.084000", "104306.085000", "104308.085000", "104310.085000", "104312.085000", "104314.085000", "104316.083000", "104318.083000", "104320.084000", "104322.085000", "104324.085000", "104326.085000", "104328.085000", "104330.085000", "104332.085000", "104334.083000", "104336.084000", "104338.085000", "104340.084000", "104342.084000", "104344.085000", "104346.085000", "104348.085000", "104350.084000", "104352.583000", "104354.115000", "104356.085000", "104358.084000", "104400.084000", "104402.084000", "104404.085000", "104406.084000", "104408.083000", "104410.083000", "104412.083000", "104414.084000", "104416.085000", "104418.085000", "104420.085000", "104422.084000", "104424.085000", "104426.083000", "104428.083000", "104430.085000", "104432.084000", "104434.084000", "104436.085000", "104438.085000", "104440.084000", "104442.585000", "104444.083000", "104446.083000", "104448.085000", "104450.085000", "104452.085000", "104454.085000", "104456.085000", "104458.085000", "104500.084000", "104501.951000"],
      "InstanceNumber": [1, 2, 3, 4, 5, 6, 7, 8, 9, 10, 11, 12, 13, 14, 15, 16, 17, 18, 19, 20, 21, 22, 23, 24, 25, 26, 27, 28, 29, 30, 31, 32, 33, 34, 35, 36, 37, 38, 39, 40, 41, 42, 43, 44, 45, 46, 47, 48, 49, 50, 51, 52, 53, 54, 55, 56, 57, 58, 59, 60, 61, 62, 63, 64, 65, 66, 67, 68, 69, 70, 71, 72, 73, 74, 75, 76, 77, 78, 79, 80, 81, 82, 83, 84, 85, 86, 87, 88, 89, 90, 91, 92, 93, 94, 95, 96, 97, 98, 99, 100, 101, 102, 103, 104, 105, 106, 107, 108, 109, 110, 111, 112, 113, 114, 115, 116, 117, 118, 119, 120, 121, 122, 123, 124, 125, 126, 127, 128, 129, 130, 131, 132, 133, 134, 135, 136, 137, 138, 139, 140, 141, 142, 143, 144, 145, 146, 147, 148, 149, 150, 151, 152, 153, 154, 155, 156],
      "LargestImagePixelValue": [2807, 2820, 2781, 2795, 2833, 2793, 2814, 2778, 2799, 2799, 2805, 2817, 2786, 2806, 2818, 2792, 2769, 2828, 2796, 2798, 2811, 2770, 2786, 2777, 2819, 2787, 2803, 2787, 2776, 2793, 2818, 2755, 2810, 2797, 2811, 2801, 2809, 2794, 2775, 2789, 2784, 2772, 2793, 2805, 2793, 2803, 2796, 2776, 2813, 2809, 2799, 2800, 2795, 2779, 2830, 2801, 2793, 2801, 2830, 2798, 2818, 2823, 2840, 2814, 2805, 2815, 2810, 2811, 2794, 2804, 2799, 2794, 2795, 2790, 2819, 2810, 2779, 2822, 2800, 2793, 2812, 2822, 2807, 2803, 2820, 2817, 2812, 2819, 2835, 2799, 2801, 2803, 2806, 2802, 2800, 2796, 2781, 2815, 2818, 2807, 2791, 2813, 2829, 2785, 2813, 2798, 2804, 2813, 2813, 2810, 2826, 2808, 2816, 2813, 2795, 2806, 2829, 2832, 2822, 2814, 2857, 2797, 2830, 2802, 2833, 2830, 2836, 2820, 2826, 2835, 2842, 2824, 2824, 2828, 2832, 2845, 2843, 2839, 2860, 2807, 2819, 2820, 2834, 2814, 2829, 2839, 2826, 2825, 2840, 2808, 2821, 2827, 2828, 2808, 2827, 2823],
      "WindowCenter": [773.0, 772.0, 771.0, 772.0, 774.0, 773.0, 772.0, 771.0, 772.0, 773.0, 773.0, 773.0, 772.0, 771.0, 772.0, 772.0, 772.0, 773.0, 773.0, 772.0, 772.0, 771.0, 771.0, 771.0, 772.0, 772.0, 772.0, 771.0, 771.0, 771.0, 772.0, 770.0, 772.0, 771.0, 772.0, 772.0, 772.0, 771.0, 771.0, 771.0, 771.0, 771.0, 771.0, 771.0, 771.0, 771.0, 771.0, 771.0, 772.0, 772.0, 772.0, 771.0, 771.0, 771.0, 771.0, 771.0, 771.0, 771.0, 772.0, 772.0, 773.0, 772.0, 773.0, 772.0, 772.0, 772.0, 771.0, 771.0, 772.0, 773.0, 773.0, 772.0, 771.0, 771.0, 771.0, 772.0, 771.0, 771.0, 770.0, 770.0, 771.0, 771.0, 771.0, 772.0, 773.0, 772.0, 772.0, 772.0, 772.0, 772.0, 772.0, 772.0, 772.0, 771.0, 771.0, 771.0, 771.0, 772.0, 772.0, 771.0, 772.0, 773.0, 772.0, 771.0, 771.0, 771.0, 771.0, 771.0, 771.0, 771.0, 772.0, 773.0, 772.0, 770.0, 769.0, 770.0, 772.0, 772.0, 771.0, 771.0, 772.0, 771.0, 772.0, 771.0, 772.0, 772.0, 772.0, 772.0, 773.0, 773.0, 772.0, 770.0, 770.0, 770.0, 772.0, 772.0, 772.0, 772.0, 773.0, 772.0, 772.0, 771.0, 772.0, 771.0, 771.0, 772.0, 772.0, 772.0, 772.0, 772.0, 772.0, 772.0, 772.0, 772.0, 772.0, 772.0],
      "WindowWidth": [1645.0, 1641.0, 1639.0, 1641.0, 1645.0, 1643.0, 1641.0, 1639.0, 1642.0, 1645.0, 1645.0, 1644.0, 1641.0, 1640.0, 1643.0, 1642.0, 1641.0, 1644.0, 1643.0, 1641.0, 1641.0, 1639.0, 1639.0, 1640.0, 1643.0, 1642.0, 1642.0, 1639.0, 1639.0, 1639.0, 1640.0, 1638.0, 1640.0, 1639.0, 1640.0, 1641.0, 1641.0, 1640.0, 1639.0, 1639.0, 1638.0, 1638.0, 1638.0, 1639.0, 1639.0, 1638.0, 1639.0, 1639.0, 1642.0, 1643.0, 1641.0, 1640.0, 1639.0, 1639.0, 1639.0, 1638.0, 1640.0, 1640.0, 1642.0, 1641.0, 1643.0, 1643.0, 1644.0, 1642.0, 1642.0, 1642.0, 1639.0, 1639.0, 1641.0, 1643.0, 1644.0, 1641.0, 1640.0, 1639.0, 1638.0, 1641.0, 1640.0, 1639.0, 1636.0, 1636.0, 1638.0, 1640.0, 1640.0, 1641.0, 1643.0, 1642.0, 1641.0, 1641.0, 1641.0, 1641.0, 1640.0, 1641.0, 1640.0, 1639.0, 1638.0, 1639.0, 1639.0, 1642.0, 1641.0, 1639.0, 1642.0, 1643.0, 1641.0, 1638.0, 1639.0, 1639.0, 1639.0, 1639.0, 1638.0, 1638.0, 1642.0, 1644.0, 1641.0, 1638.0, 1635.0, 1637.0, 1641.0, 1641.0, 1640.0, 1640.0, 1641.0, 1639.0, 1641.0, 1639.0, 1642.0, 1642.0, 1641.0, 1642.0, 1645.0, 1644.0, 1642.0, 1637.0, 1636.0, 1636.0, 1640.0, 1642.0, 1642.0, 1642.0, 1642.0, 1641.0, 1642.0, 1640.0, 1640.0, 1639.0, 1639.0, 1640.0, 1641.0, 1641.0, 1642.0, 1641.0, 1642.0, 1641.0, 1641.0, 1640.0, 1640.0, 1640.0]
    },
    "slices": {}
  }
}