{
  "AcquisitionMatrixPE": 100,
  "AcquisitionNumber": 1,
  "AcquisitionTime": "15:06:55.572500",
  "BandwidthPerPixelPhaseEncode": 18.519,
  "BaseResolution": 100,
  "BodyPartExamined": "BRAIN",
  "CoilCombinationMethod": "Sum of Squares",
  "ConsistencyInfo": "N4_VE11C_LATEST_20160120",
  "ConversionSoftware": "dcm2niix",
  "ConversionSoftwareVersion": "v1.0.20211006",
  "DerivedVendorReportedEchoSpacing": 0.000539986,
  "DeviceSerialNumber": "166078",
  "DwellTime": 2.1e-06,
  "EchoTime": 0.034,
  "EchoTrainLength": 100,
  "EffectiveEchoSpacing": 0.000539986,
  "FlipAngle": 90,
  "ImageOrientationPatientDICOM": [0.99956, 0.00397483, 0.0293988, 3.50823e-08, 0.990983, -0.133986],
  "ImageOrientationText": "Tra>Cor(-7.7)>Sag(1.7)",
  "ImageType": [
    "ORIGINAL",
    "PRIMARY",
    "M",
    "ND",
    "MOSAIC"
],
  "ImagingFrequency": 123.258,
  "InPlanePhaseEncodingDirectionDICOM": "COL",
  "InstitutionAddress": "Street StreetNo,Bei Jing,District,CN,ZIP",
  "InstitutionName": "BeiJing Normal University",
  "InstitutionalDepartmentName": "Department",
  "MRAcquisitionType": "2D",
  "MagneticFieldStrength": 3,
  "Manufacturer": "Siemens",
  "ManufacturersModelName": "Prisma",
  "Modality": "MR",
  "MultibandAccelerationFactor": 3,
  "PartialFourier": 1,
  "PatientPosition": "HFS",
  "PercentPhaseFOV": 100,
  "PercentSampling": 100,
  "PhaseEncodingDirection": "j-",
  "PhaseEncodingSteps": 100,
  "PhaseResolution": 1,
  "PixelBandwidth": 2380,
  "ProcedureStepDescription": "BNU_P2018_64CH^Zhen.ZongLei",
  "ProtocolName": "bold_100x100_s3_2x2x2_static_156",
  "PulseSequenceDetails": "%SiemensSeq%\\ep2d_bold",
  "ReceiveCoilActiveElements": "HC1-7;NC1",
  "ReceiveCoilName": "HeadNeck_64",
  "ReconMatrixPE": 100,
  "RefLinesPE": 32,
  "RepetitionTime": 2,
  "SAR": 0.0729632,
  "ScanOptions": "FS",
  "ScanningSequence": "EP",
  "SequenceName": "*epfid2d1_100",
  "SequenceVariant": "SK",
  "SeriesDescription": "bold_100x100_s3_2x2x2_static_156",
  "SeriesNumber": 11,
  "ShimSetting": [-5454, -11514, -1271, 412, -53, -231, -17, 15],
  "SliceThickness": 2,
  "SliceTiming": [1.485, 0, 0.99, 0.0825, 1.0725, 0.165, 1.155, 0.2475, 1.2375, 0.33, 1.32, 0.4125, 1.4025, 0.5775, 1.5675, 0.66, 1.65, 0.7425, 1.7325, 0.825, 1.815, 0.9075, 1.8975, 0.495, 1.485, 0, 0.99, 0.0825, 1.0725, 0.165, 1.155, 0.2475, 1.2375, 0.33, 1.32, 0.4125, 1.4025, 0.5775, 1.5675, 0.66, 1.65, 0.7425, 1.7325, 0.825, 1.815, 0.9075, 1.8975, 0.495, 1.485, 0, 0.99, 0.0825, 1.0725, 0.165, 1.155, 0.2475, 1.2375, 0.33, 1.32, 0.4125, 1.4025, 0.5775, 1.5675, 0.66, 1.65, 0.7425, 1.7325, 0.825, 1.815, 0.9075, 1.8975, 0.495],
  "SoftwareVersions": "syngo MR E11",
  "SpacingBetweenSlices": 2,
  "StationName": "AWP166078",
  "TaskName": "action",
  "TotalReadoutTime": 0.0534586,
  "TxRefAmp": 219.297,
  "dcmmeta_affine": [
    [-1.999119758605957, 7.016463854370159e-08, 0.05933248996734619, 97.84967803955078],
    [-0.007949664257466793, 1.9819663763046265, -0.2678544223308563, -77.21003723144531],
    [0.05879750847816467, 0.26797235012054443, 1.9810941219329834, -86.39936065673828],
    [0.0, 0.0, 0.0, 1.0]
],
  "dcmmeta_reorient_transform": [
    [0.0, -1.0, 0.0, 99.0],
    [1.0, 0.0, 0.0, 0.0],
    [0.0, 0.0, 1.0, 0.0],
    [0.0, 0.0, 0.0, 1.0]
],
  "dcmmeta_shape": [100, 100, 72, 156],
  "dcmmeta_slice_dim": 2,
  "dcmmeta_version": 0.6,
  "global": {
    "const": {
      "AcquisitionMatrix": [100, 0, 0, 100],
      "AngioFlag": "N",
      "BitsAllocated": 16,
      "BitsStored": 12,
      "BodyPartExamined": "BRAIN",
      "Columns": 900,
      "EchoNumbers": 1,
      "EchoTime": 34.0,
      "EchoTrainLength": 100,
      "FlipAngle": 90.0,
      "HighBit": 11,
      "ImageOrientationPatient": [0.99955986011195, 0.00397483206519, 0.02939875444708, 3.5082318e-08, 0.99098320016309, -0.1339861821029],
      "ImagePositionPatient": [-897.49760245981, -914.97106193697, 23.799842727195],
      "ImageType": [
        "ORIGINAL",
        "PRIMARY",
        "M",
        "ND",
        "MOSAIC"
],
      "ImagedNucleus": "1H",
      "ImagingFrequency": 123.25774,
      "InPlanePhaseEncodingDirection": "COL",
      "MRAcquisitionType": "2D",
      "MagneticFieldStrength": 3.0,
      "Manufacturer": "SIEMENS",
      "ManufacturerModelName": "Prisma",
      "Modality": "MR",
      "NumberOfAverages": 1.0,
      "NumberOfPhaseEncodingSteps": 100,
      "PercentPhaseFieldOfView": 100.0,
      "PercentSampling": 100.0,
      "PerformedProcedureStepStartTime": "142154.535000",
      "PhotometricInterpretation": "MONOCHROME2",
      "PixelBandwidth": 2380.0,
      "PixelRepresentation": 0,
      "PixelSpacing": [2.0, 2.0],
      "ProtocolName": "bold_100x100_s3_2x2x2_static_156",
      "RepetitionTime": 2000.0,
      "Rows": 900,
      "SAR": 0.07296322133878,
      "SamplesPerPixel": 1,
      "ScanOptions": "FS",
      "ScanningSequence": "EP",
      "SequenceName": "*epfid2d1_100",
      "SequenceVariant": "SK",
      "SeriesDescription": "bold_100x100_s3_2x2x2_static_156",
      "SeriesNumber": 11,
      "SeriesTime": "150657.896000",
      "SliceLocation": -72.339275322693,
      "SliceThickness": 2.0,
      "SmallestImagePixelValue": 0,
      "SoftwareVersions": "syngo MR E11",
      "SpacingBetweenSlices": 2.0000000890733,
      "SpecificCharacterSet": "ISO_IR 100",
      "StudyID": "1",
      "StudyTime": "142154.468000",
      "TransmitCoilName": "Body",
      "VariableFlipAngleFlag": "N",
      "WindowCenterWidthExplanation": "Algo1",
      "dBdt": 0.0},
    "slices": {}
  },
  "time": {
    "samples": {
      "AcquisitionNumber": [1, 2, 3, 4, 5, 6, 7, 8, 9, 10, 11, 12, 13, 14, 15, 16, 17, 18, 19, 20, 21, 22, 23, 24, 25, 26, 27, 28, 29, 30, 31, 32, 33, 34, 35, 36, 37, 38, 39, 40, 41, 42, 43, 44, 45, 46, 47, 48, 49, 50, 51, 52, 53, 54, 55, 56, 57, 58, 59, 60, 61, 62, 63, 64, 65, 66, 67, 68, 69, 70, 71, 72, 73, 74, 75, 76, 77, 78, 79, 80, 81, 82, 83, 84, 85, 86, 87, 88, 89, 90, 91, 92, 93, 94, 95, 96, 97, 98, 99, 100, 101, 102, 103, 104, 105, 106, 107, 108, 109, 110, 111, 112, 113, 114, 115, 116, 117, 118, 119, 120, 121, 122, 123, 124, 125, 126, 127, 128, 129, 130, 131, 132, 133, 134, 135, 136, 137, 138, 139, 140, 141, 142, 143, 144, 145, 146, 147, 148, 149, 150, 151, 152, 153, 154, 155, 156],
      "AcquisitionTime": ["150655.572500", "150657.572500", "150659.572500", "150701.572500", "150703.572500", "150705.572500", "150707.572500", "150709.572500", "150711.572500", "150713.572500", "150715.572500", "150717.572500", "150719.572500", "150721.572500", "150723.572500", "150725.572500", "150727.572500", "150729.572500", "150731.572500", "150733.572500", "150735.572500", "150737.572500", "150739.572500", "150741.572500", "150743.572500", "150745.572500", "150747.572500", "150749.572500", "150751.572500", "150753.572500", "150755.572500", "150757.572500", "150759.572500", "150801.572500", "150803.572500", "150805.572500", "150807.572500", "150809.572500", "150811.572500", "150813.572500", "150815.572500", "150817.572500", "150819.572500", "150821.572500", "150823.572500", "150825.572500", "150827.572500", "150829.572500", "150831.572500", "150833.572500", "150835.572500", "150837.572500", "150839.572500", "150841.572500", "150843.572500", "150845.572500", "150847.572500", "150849.572500", "150851.572500", "150853.572500", "150855.572500", "150857.572500", "150859.572500", "150901.572500", "150903.572500", "150905.572500", "150907.572500", "150909.572500", "150911.572500", "150913.572500", "150915.572500", "150917.572500", "150919.572500", "150921.572500", "150923.572500", "150925.572500", "150927.572500", "150929.572500", "150931.572500", "150933.572500", "150935.572500", "150937.572500", "150939.572500", "150941.572500", "150943.572500", "150945.572500", "150947.572500", "150949.572500", "150951.572500", "150953.572500", "150955.572500", "150957.572500", "150959.572500", "151001.572500", "151003.572500", "151005.572500", "151007.572500", "151009.572500", "151011.572500", "151013.572500", "151015.572500", "151017.572500", "151019.572500", "151021.572500", "151023.572500", "151025.572500", "151027.572500", "151029.572500", "151031.572500", "151033.572500", "151035.572500", "151037.572500", "151039.572500", "151041.572500", "151043.572500", "151045.572500", "151047.572500", "151049.572500", "151051.572500", "151053.572500", "151055.572500", "151057.572500", "151059.572500", "151101.572500", "151103.572500", "151105.572500", "151107.572500", "151109.572500", "151111.572500", "151113.572500", "151115.572500", "151117.572500", "151119.572500", "151121.572500", "151123.572500", "151125.572500", "151127.572500", "151129.572500", "151131.572500", "151133.572500", "151135.572500", "151137.572500", "151139.572500", "151141.572500", "151143.572500", "151145.572500", "151147.572500", "151149.572500", "151151.572500", "151153.572500", "151155.572500", "151157.572500", "151159.572500", "151201.572500", "151203.572500", "151205.572500"],
      "ContentTime": ["150657.899000", "150658.894000", "150701.395000", "150703.394000", "150705.393000", "150707.393000", "150709.395000", "150711.395000", "150713.394000", "150715.394000", "150717.395000", "150719.395000", "150721.393000", "150723.393000", "150725.395000", "150727.395000", "150729.394000", "150731.395000", "150733.394000", "150735.395000", "150737.394000", "150739.394000", "150741.394000", "150743.395000", "150745.394000", "150747.394000", "150749.394000", "150750.894000", "150753.395000", "150755.393000", "150757.393000", "150759.393000", "150801.395000", "150803.394000", "150805.395000", "150807.394000", "150808.894000", "150811.394000", "150812.894000", "150815.394000", "150817.393000", "150819.395000", "150821.395000", "150823.394000", "150825.395000", "150827.394000", "150829.395000", "150831.394000", "150833.394000", "150835.395000", "150837.395000", "150839.394000", "150841.395000", "150843.395000", "150845.394000", "150847.393000", "150849.394000", "150851.394000", "150853.395000", "150855.395000", "150857.395000", "150859.395000", "150900.895000", "150903.394000", "150904.894000", "150907.393000", "150909.394000", "150911.395000", "150913.395000", "150915.394000", "150917.394000", "150919.395000", "150921.394000", "150923.393000", "150924.894000", "150927.394000", "150929.395000", "150931.395000", "150933.394000", "150935.394000", "150937.394000", "150939.394000", "150941.393000", "150943.393000", "150945.395000", "150947.395000", "150948.895000", "150951.395000", "150953.395000", "150955.394000", "150957.393000", "150959.394000", "151001.394000", "151002.895000", "151005.395000", "151007.395000", "151009.394000", "151011.395000", "151013.394000", "151015.394000", "151017.393000", "151019.393000", "151021.395000", "151023.395000", "151025.395000", "151027.394000", "151029.394000", "151031.395000", "151033.393000", "151035.393000", "151037.394000", "151039.394000", "151041.395000", "151043.395000", "151045.394000", "151047.395000", "151049.395000", "151051.393000", "151053.393000", "151055.395000", "151057.394000", "151059.395000", "151101.395000", "151103.394000", "151105.394000", "151107.394000", "151109.394000", "151111.394000", "151113.395000", "151115.395000", "151117.395000", "151119.394000", "151121.394000", "151123.395000", "151125.393000", "151127.393000", "151129.394000", "151131.395000", "151133.395000", "151135.395000", "151137.395000", "151139.395000", "151141.395000", "151143.394000", "151145.394000", "151147.394000", "151149.395000", "151151.395000", "151153.395000", "151155.394000", "151157.394000", "151159.395000", "151201.393000", "151203.394000", "151205.395000", "151206.984000"],
      "InstanceCreationTime": ["150657.899000", "150658.894000", "150701.395000", "150703.394000", "150705.393000", "150707.393000", "150709.395000", "150711.395000", "150713.394000", "150715.394000", "150717.395000", "150719.395000", "150721.393000", "150723.393000", "150725.395000", "150727.395000", "150729.394000", "150731.395000", "150733.394000", "150735.395000", "150737.394000", "150739.394000", "150741.394000", "150743.395000", "150745.394000", "150747.394000", "150749.394000", "150750.894000", "150753.395000", "150755.393000", "150757.393000", "150759.393000", "150801.395000", "150803.394000", "150805.395000", "150807.394000", "150808.894000", "150811.394000", "150812.894000", "150815.394000", "150817.393000", "150819.395000", "150821.395000", "150823.394000", "150825.395000", "150827.394000", "150829.395000", "150831.394000", "150833.394000", "150835.395000", "150837.395000", "150839.394000", "150841.395000", "150843.395000", "150845.394000", "150847.393000", "150849.394000", "150851.394000", "150853.395000", "150855.395000", "150857.395000", "150859.395000", "150900.895000", "150903.394000", "150904.894000", "150907.393000", "150909.394000", "150911.395000", "150913.395000", "150915.394000", "150917.394000", "150919.395000", "150921.394000", "150923.393000", "150924.894000", "150927.394000", "150929.395000", "150931.395000", "150933.394000", "150935.394000", "150937.394000", "150939.394000", "150941.393000", "150943.393000", "150945.395000", "150947.395000", "150948.895000", "150951.395000", "150953.395000", "150955.394000", "150957.393000", "150959.394000", "151001.394000", "151002.895000", "151005.395000", "151007.395000", "151009.394000", "151011.395000", "151013.394000", "151015.394000", "151017.393000", "151019.393000", "151021.395000", "151023.395000", "151025.395000", "151027.394000", "151029.394000", "151031.395000", "151033.393000", "151035.393000", "151037.394000", "151039.394000", "151041.395000", "151043.395000", "151045.394000", "151047.395000", "151049.395000", "151051.393000", "151053.393000", "151055.395000", "151057.394000", "151059.395000", "151101.395000", "151103.394000", "151105.394000", "151107.394000", "151109.394000", "151111.394000", "151113.395000", "151115.395000", "151117.395000", "151119.394000", "151121.394000", "151123.395000", "151125.393000", "151127.393000", "151129.394000", "151131.395000", "151133.395000", "151135.395000", "151137.395000", "151139.395000", "151141.395000", "151143.394000", "151145.394000", "151147.394000", "151149.395000", "151151.395000", "151153.395000", "151155.394000", "151157.394000", "151159.395000", "151201.393000", "151203.394000", "151205.395000", "151206.984000"],
      "InstanceNumber": [1, 2, 3, 4, 5, 6, 7, 8, 9, 10, 11, 12, 13, 14, 15, 16, 17, 18, 19, 20, 21, 22, 23, 24, 25, 26, 27, 28, 29, 30, 31, 32, 33, 34, 35, 36, 37, 38, 39, 40, 41, 42, 43, 44, 45, 46, 47, 48, 49, 50, 51, 52, 53, 54, 55, 56, 57, 58, 59, 60, 61, 62, 63, 64, 65, 66, 67, 68, 69, 70, 71, 72, 73, 74, 75, 76, 77, 78, 79, 80, 81, 82, 83, 84, 85, 86, 87, 88, 89, 90, 91, 92, 93, 94, 95, 96, 97, 98, 99, 100, 101, 102, 103, 104, 105, 106, 107, 108, 109, 110, 111, 112, 113, 114, 115, 116, 117, 118, 119, 120, 121, 122, 123, 124, 125, 126, 127, 128, 129, 130, 131, 132, 133, 134, 135, 136, 137, 138, 139, 140, 141, 142, 143, 144, 145, 146, 147, 148, 149, 150, 151, 152, 153, 154, 155, 156],
      "LargestImagePixelValue": [2389, 2286, 2245, 2361, 2269, 2255, 2274, 2257, 2265, 2269, 2285, 2275, 2386, 2362, 2344, 2318, 2262, 2279, 2261, 2255, 2262, 2292, 2264, 2448, 2300, 2491, 2270, 2254, 2278, 2292, 2310, 2281, 2295, 2307, 2287, 2282, 2286, 2282, 2278, 2281, 2291, 2365, 2270, 2288, 2284, 2271, 2306, 2312, 2321, 2278, 2281, 2273, 2289, 2279, 2290, 2284, 2423, 2291, 2275, 2304, 2301, 2302, 2290, 2298, 2327, 2273, 2314, 2302, 2294, 2284, 2319, 2333, 2304, 2295, 2291, 2292, 2317, 2326, 2321, 2323, 2293, 2277, 2305, 2302, 2310, 2316, 2293, 2329, 2301, 2292, 2293, 2318, 2319, 2290, 2446, 2309, 2388, 2310, 2309, 2303, 2324, 2321, 2305, 2329, 2328, 2324, 2314, 2313, 2321, 2308, 2301, 2309, 2325, 2345, 2328, 2301, 2325, 2318, 2334, 2317, 2331, 2305, 2314, 2329, 2345, 2323, 2351, 2372, 2332, 2322, 2328, 2338, 2326, 2352, 2323, 2319, 2314, 2335, 2307, 2328, 2330, 2495, 2323, 2348, 2324, 2367, 2337, 2308, 2320, 2331, 2332, 2336, 2342, 2424, 2389, 2605],
      "WindowCenter": [706.0, 704.0, 703.0, 706.0, 704.0, 703.0, 704.0, 703.0, 703.0, 704.0, 705.0, 705.0, 707.0, 707.0, 706.0, 706.0, 704.0, 704.0, 704.0, 704.0, 703.0, 705.0, 704.0, 708.0, 705.0, 708.0, 704.0, 703.0, 703.0, 703.0, 703.0, 703.0, 703.0, 703.0, 703.0, 703.0, 703.0, 704.0, 704.0, 704.0, 704.0, 704.0, 703.0, 704.0, 703.0, 703.0, 703.0, 704.0, 704.0, 704.0, 703.0, 703.0, 703.0, 703.0, 703.0, 703.0, 706.0, 705.0, 704.0, 704.0, 703.0, 703.0, 703.0, 703.0, 703.0, 703.0, 703.0, 703.0, 703.0, 703.0, 703.0, 704.0, 703.0, 704.0, 703.0, 704.0, 704.0, 705.0, 706.0, 706.0, 705.0, 705.0, 705.0, 704.0, 704.0, 704.0, 704.0, 704.0, 703.0, 703.0, 704.0, 704.0, 704.0, 704.0, 706.0, 704.0, 705.0, 703.0, 703.0, 702.0, 702.0, 703.0, 703.0, 704.0, 704.0, 705.0, 706.0, 705.0, 704.0, 704.0, 704.0, 704.0, 704.0, 705.0, 705.0, 704.0, 704.0, 703.0, 704.0, 704.0, 704.0, 704.0, 704.0, 704.0, 704.0, 704.0, 704.0, 705.0, 705.0, 704.0, 704.0, 704.0, 703.0, 704.0, 703.0, 704.0, 704.0, 704.0, 703.0, 704.0, 704.0, 707.0, 705.0, 705.0, 705.0, 705.0, 704.0, 703.0, 704.0, 704.0, 704.0, 704.0, 703.0, 704.0, 704.0, 708.0],
      "WindowWidth": [1492.0, 1488.0, 1486.0, 1491.0, 1487.0, 1486.0, 1486.0, 1486.0, 1487.0, 1488.0, 1490.0, 1492.0, 1495.0, 1495.0, 1493.0, 1492.0, 1489.0, 1489.0, 1488.0, 1488.0, 1486.0, 1490.0, 1489.0, 1496.0, 1491.0, 1497.0, 1489.0, 1486.0, 1486.0, 1486.0, 1486.0, 1485.0, 1486.0, 1486.0, 1485.0, 1486.0, 1487.0, 1488.0, 1488.0, 1488.0, 1487.0, 1489.0, 1486.0, 1488.0, 1486.0, 1487.0, 1487.0, 1488.0, 1488.0, 1487.0, 1486.0, 1486.0, 1486.0, 1486.0, 1486.0, 1487.0, 1493.0, 1490.0, 1488.0, 1488.0, 1487.0, 1487.0, 1486.0, 1485.0, 1486.0, 1485.0, 1487.0, 1486.0, 1486.0, 1486.0, 1486.0, 1487.0, 1486.0, 1487.0, 1487.0, 1488.0, 1489.0, 1490.0, 1493.0, 1493.0, 1491.0, 1491.0, 1490.0, 1489.0, 1489.0, 1489.0, 1488.0, 1488.0, 1486.0, 1487.0, 1488.0, 1489.0, 1488.0, 1488.0, 1492.0, 1487.0, 1490.0, 1487.0, 1485.0, 1484.0, 1484.0, 1486.0, 1486.0, 1488.0, 1488.0, 1490.0, 1492.0, 1491.0, 1489.0, 1488.0, 1488.0, 1488.0, 1488.0, 1490.0, 1491.0, 1490.0, 1489.0, 1486.0, 1487.0, 1487.0, 1489.0, 1488.0, 1489.0, 1487.0, 1488.0, 1489.0, 1489.0, 1490.0, 1490.0, 1489.0, 1488.0, 1489.0, 1486.0, 1488.0, 1487.0, 1488.0, 1489.0, 1489.0, 1487.0, 1487.0, 1487.0, 1495.0, 1491.0, 1492.0, 1490.0, 1491.0, 1489.0, 1487.0, 1488.0, 1489.0, 1489.0, 1488.0, 1486.0, 1489.0, 1487.0, 1497.0]
    },
    "slices": {}
  }
}