{
  "AcquisitionMatrixPE": 100,
  "AcquisitionNumber": 1,
  "AcquisitionTime": "14:52:21.782500",
  "BandwidthPerPixelPhaseEncode": 18.519,
  "BaseResolution": 100,
  "BodyPartExamined": "BRAIN",
  "CoilCombinationMethod": "Sum of Squares",
  "ConsistencyInfo": "N4_VE11C_LATEST_20160120",
  "ConversionSoftware": "dcm2niix",
  "ConversionSoftwareVersion": "v1.0.20211006",
  "DerivedVendorReportedEchoSpacing": 0.000539986,
  "DeviceSerialNumber": "166078",
  "DwellTime": 2.1e-06,
  "EchoTime": 0.034,
  "EchoTrainLength": 100,
  "EffectiveEchoSpacing": 0.000539986,
  "FlipAngle": 90,
  "ImageOrientationPatientDICOM": [0.99956, 0.00397483, 0.0293988, 3.50823e-08, 0.990983, -0.133986],
  "ImageOrientationText": "Tra>Cor(-7.7)>Sag(1.7)",
  "ImageType": [
    "ORIGINAL",
    "PRIMARY",
    "M",
    "ND",
    "MOSAIC"
],
  "ImagingFrequency": 123.258,
  "InPlanePhaseEncodingDirectionDICOM": "COL",
  "InstitutionAddress": "Street StreetNo,Bei Jing,District,CN,ZIP",
  "InstitutionName": "BeiJing Normal University",
  "InstitutionalDepartmentName": "Department",
  "MRAcquisitionType": "2D",
  "MagneticFieldStrength": 3,
  "Manufacturer": "Siemens",
  "ManufacturersModelName": "Prisma",
  "Modality": "MR",
  "MultibandAccelerationFactor": 3,
  "PartialFourier": 1,
  "PatientPosition": "HFS",
  "PercentPhaseFOV": 100,
  "PercentSampling": 100,
  "PhaseEncodingDirection": "j-",
  "PhaseEncodingSteps": 100,
  "PhaseResolution": 1,
  "PixelBandwidth": 2380,
  "ProcedureStepDescription": "BNU_P2018_64CH^Zhen.ZongLei",
  "ProtocolName": "bold_100x100_s3_2x2x2_static_156",
  "PulseSequenceDetails": "%SiemensSeq%\\ep2d_bold",
  "ReceiveCoilActiveElements": "HC1-7;NC1",
  "ReceiveCoilName": "HeadNeck_64",
  "ReconMatrixPE": 100,
  "RefLinesPE": 32,
  "RepetitionTime": 2,
  "SAR": 0.0729632,
  "ScanOptions": "FS",
  "ScanningSequence": "EP",
  "SequenceName": "*epfid2d1_100",
  "SequenceVariant": "SK",
  "SeriesDescription": "bold_100x100_s3_2x2x2_static_156",
  "SeriesNumber": 7,
  "ShimSetting": [-5454, -11514, -1271, 412, -53, -231, -17, 15],
  "SliceThickness": 2,
  "SliceTiming": [1.485, 0, 0.99, 0.0825, 1.0725, 0.165, 1.155, 0.2475, 1.2375, 0.33, 1.32, 0.4125, 1.4025, 0.5775, 1.5675, 0.66, 1.65, 0.7425, 1.7325, 0.825, 1.815, 0.9075, 1.8975, 0.495, 1.485, 0, 0.99, 0.0825, 1.0725, 0.165, 1.155, 0.2475, 1.2375, 0.33, 1.32, 0.4125, 1.4025, 0.5775, 1.5675, 0.66, 1.65, 0.7425, 1.7325, 0.825, 1.815, 0.9075, 1.8975, 0.495, 1.485, 0, 0.99, 0.0825, 1.0725, 0.165, 1.155, 0.2475, 1.2375, 0.33, 1.32, 0.4125, 1.4025, 0.5775, 1.5675, 0.66, 1.65, 0.7425, 1.7325, 0.825, 1.815, 0.9075, 1.8975, 0.495],
  "SoftwareVersions": "syngo MR E11",
  "SpacingBetweenSlices": 2,
  "StationName": "AWP166078",
  "TaskName": "action",
  "TotalReadoutTime": 0.0534586,
  "TxRefAmp": 219.297,
  "dcmmeta_affine": [
    [-1.999119758605957, 7.016463854370159e-08, 0.05933248996734619, 97.84967803955078],
    [-0.007949664257466793, 1.9819663763046265, -0.2678544223308563, -77.21003723144531],
    [0.05879750847816467, 0.26797235012054443, 1.9810941219329834, -86.39936065673828],
    [0.0, 0.0, 0.0, 1.0]
],
  "dcmmeta_reorient_transform": [
    [0.0, -1.0, 0.0, 99.0],
    [1.0, 0.0, 0.0, 0.0],
    [0.0, 0.0, 1.0, 0.0],
    [0.0, 0.0, 0.0, 1.0]
],
  "dcmmeta_shape": [100, 100, 72, 156],
  "dcmmeta_slice_dim": 2,
  "dcmmeta_version": 0.6,
  "global": {
    "const": {
      "AcquisitionMatrix": [100, 0, 0, 100],
      "AngioFlag": "N",
      "BitsAllocated": 16,
      "BitsStored": 12,
      "BodyPartExamined": "BRAIN",
      "Columns": 900,
      "EchoNumbers": 1,
      "EchoTime": 34.0,
      "EchoTrainLength": 100,
      "FlipAngle": 90.0,
      "HighBit": 11,
      "ImageOrientationPatient": [0.99955986011195, 0.00397483206519, 0.02939875444708, 3.5082318e-08, 0.99098320016309, -0.1339861821029],
      "ImagePositionPatient": [-897.49760245981, -914.97106193697, 23.799842727195],
      "ImageType": [
        "ORIGINAL",
        "PRIMARY",
        "M",
        "ND",
        "MOSAIC"
],
      "ImagedNucleus": "1H",
      "ImagingFrequency": 123.257742,
      "InPlanePhaseEncodingDirection": "COL",
      "MRAcquisitionType": "2D",
      "MagneticFieldStrength": 3.0,
      "Manufacturer": "SIEMENS",
      "ManufacturerModelName": "Prisma",
      "Modality": "MR",
      "NumberOfAverages": 1.0,
      "NumberOfPhaseEncodingSteps": 100,
      "PercentPhaseFieldOfView": 100.0,
      "PercentSampling": 100.0,
      "PerformedProcedureStepStartTime": "142154.535000",
      "PhotometricInterpretation": "MONOCHROME2",
      "PixelBandwidth": 2380.0,
      "PixelRepresentation": 0,
      "PixelSpacing": [2.0, 2.0],
      "ProtocolName": "bold_100x100_s3_2x2x2_static_156",
      "RepetitionTime": 2000.0,
      "Rows": 900,
      "SAR": 0.07296322133878,
      "SamplesPerPixel": 1,
      "ScanOptions": "FS",
      "ScanningSequence": "EP",
      "SequenceName": "*epfid2d1_100",
      "SequenceVariant": "SK",
      "SeriesDescription": "bold_100x100_s3_2x2x2_static_156",
      "SeriesNumber": 7,
      "SeriesTime": "145224.308000",
      "SliceLocation": -72.339275322693,
      "SliceThickness": 2.0,
      "SmallestImagePixelValue": 0,
      "SoftwareVersions": "syngo MR E11",
      "SpacingBetweenSlices": 2.0000000890733,
      "SpecificCharacterSet": "ISO_IR 100",
      "StudyID": "1",
      "StudyTime": "142154.468000",
      "TransmitCoilName": "Body",
      "VariableFlipAngleFlag": "N",
      "WindowCenterWidthExplanation": "Algo1",
      "dBdt": 0.0},
    "slices": {}
  },
  "time": {
    "samples": {
      "AcquisitionNumber": [1, 2, 3, 4, 5, 6, 7, 8, 9, 10, 11, 12, 13, 14, 15, 16, 17, 18, 19, 20, 21, 22, 23, 24, 25, 26, 27, 28, 29, 30, 31, 32, 33, 34, 35, 36, 37, 38, 39, 40, 41, 42, 43, 44, 45, 46, 47, 48, 49, 50, 51, 52, 53, 54, 55, 56, 57, 58, 59, 60, 61, 62, 63, 64, 65, 66, 67, 68, 69, 70, 71, 72, 73, 74, 75, 76, 77, 78, 79, 80, 81, 82, 83, 84, 85, 86, 87, 88, 89, 90, 91, 92, 93, 94, 95, 96, 97, 98, 99, 100, 101, 102, 103, 104, 105, 106, 107, 108, 109, 110, 111, 112, 113, 114, 115, 116, 117, 118, 119, 120, 121, 122, 123, 124, 125, 126, 127, 128, 129, 130, 131, 132, 133, 134, 135, 136, 137, 138, 139, 140, 141, 142, 143, 144, 145, 146, 147, 148, 149, 150, 151, 152, 153, 154, 155, 156],
      "AcquisitionTime": ["145221.782500", "145223.782500", "145225.782500", "145227.782500", "145229.782500", "145231.782500", "145233.782500", "145235.782500", "145237.782500", "145239.782500", "145241.782500", "145243.782500", "145245.782500", "145247.782500", "145249.782500", "145251.782500", "145253.782500", "145255.782500", "145257.782500", "145259.782500", "145301.782500", "145303.782500", "145305.782500", "145307.782500", "145309.782500", "145311.782500", "145313.782500", "145315.782500", "145317.782500", "145319.782500", "145321.782500", "145323.782500", "145325.782500", "145327.782500", "145329.782500", "145331.782500", "145333.782500", "145335.782500", "145337.782500", "145339.782500", "145341.782500", "145343.782500", "145345.782500", "145347.782500", "145349.782500", "145351.782500", "145353.782500", "145355.782500", "145357.782500", "145359.782500", "145401.782500", "145403.782500", "145405.782500", "145407.782500", "145409.782500", "145411.782500", "145413.782500", "145415.782500", "145417.782500", "145419.782500", "145421.782500", "145423.782500", "145425.782500", "145427.782500", "145429.782500", "145431.782500", "145433.782500", "145435.782500", "145437.782500", "145439.782500", "145441.782500", "145443.782500", "145445.782500", "145447.782500", "145449.782500", "145451.782500", "145453.782500", "145455.782500", "145457.782500", "145459.782500", "145501.782500", "145503.782500", "145505.782500", "145507.782500", "145509.782500", "145511.782500", "145513.782500", "145515.782500", "145517.782500", "145519.782500", "145521.782500", "145523.782500", "145525.782500", "145527.782500", "145529.782500", "145531.782500", "145533.782500", "145535.782500", "145537.782500", "145539.782500", "145541.782500", "145543.782500", "145545.782500", "145547.782500", "145549.782500", "145551.782500", "145553.782500", "145555.782500", "145557.782500", "145559.782500", "145601.782500", "145603.782500", "145605.782500", "145607.782500", "145609.782500", "145611.782500", "145613.782500", "145615.782500", "145617.782500", "145619.782500", "145621.782500", "145623.782500", "145625.782500", "145627.782500", "145629.782500", "145631.782500", "145633.782500", "145635.782500", "145637.782500", "145639.782500", "145641.782500", "145643.782500", "145645.782500", "145647.782500", "145649.782500", "145651.782500", "145653.782500", "145655.782500", "145657.782500", "145659.782500", "145701.782500", "145703.782500", "145705.782500", "145707.782500", "145709.782500", "145711.782500", "145713.782500", "145715.782500", "145717.782500", "145719.782500", "145721.782500", "145723.782500", "145725.782500", "145727.782500", "145729.782500", "145731.782500"],
      "ContentTime": ["145224.312000", "145225.807000", "145227.807000", "145229.808000", "145231.808000", "145233.809000", "145235.808000", "145237.808000", "145239.807000", "145241.808000", "145243.807000", "145245.807000", "145247.807000", "145249.808000", "145251.809000", "145253.809000", "145255.808000", "145257.807000", "145259.808000", "145301.808000", "145303.808000", "145305.808000", "145307.807000", "145309.809000", "145311.809000", "145313.808000", "145315.808000", "145317.808000", "145319.808000", "145321.808000", "145323.807000", "145325.808000", "145327.809000", "145329.808000", "145331.807000", "145333.808000", "145335.808000", "145337.808000", "145339.807000", "145341.807000", "145343.809000", "145345.808000", "145347.807000", "145349.807000", "145351.808000", "145353.808000", "145355.808000", "145357.807000", "145359.808000", "145401.809000", "145403.809000", "145405.808000", "145407.808000", "145409.808000", "145411.808000", "145413.808000", "145415.807000", "145417.808000", "145419.809000", "145421.809000", "145423.807000", "145425.808000", "145427.808000", "145429.807000", "145431.807000", "145433.808000", "145435.809000", "145437.809000", "145439.808000", "145441.808000", "145443.808000", "145445.808000", "145447.808000", "145449.807000", "145451.807000", "145453.808000", "145455.809000", "145457.808000", "145459.808000", "145501.807000", "145503.808000", "145505.807000", "145507.808000", "145509.807000", "145511.808000", "145513.809000", "145515.807000", "145517.807000", "145519.808000", "145521.808000", "145523.808000", "145525.807000", "145527.808000", "145529.809000", "145531.809000", "145533.808000", "145535.808000", "145537.808000", "145539.808000", "145541.808000", "145543.807000", "145545.809000", "145547.809000", "145549.808000", "145551.808000", "145553.808000", "145555.808000", "145557.808000", "145559.807000", "145601.807000", "145603.808000", "145605.809000", "145607.807000", "145609.808000", "145611.807000", "145613.807000", "145615.808000", "145617.808000", "145619.808000", "145621.808000", "145623.808000", "145625.808000", "145627.808000", "145629.808000", "145631.808000", "145633.808000", "145635.807000", "145637.808000", "145639.809000", "145641.809000", "145643.807000", "145645.808000", "145647.808000", "145649.808000", "145651.808000", "145653.808000", "145655.809000", "145657.809000", "145659.808000", "145701.807000", "145703.808000", "145705.808000", "145707.808000", "145709.808000", "145711.807000", "145713.809000", "145715.809000", "145717.808000", "145719.808000", "145721.808000", "145723.808000", "145725.808000", "145727.808000", "145729.808000", "145731.809000", "145733.581000"],
      "InstanceCreationTime": ["145224.312000", "145225.807000", "145227.807000", "145229.808000", "145231.808000", "145233.809000", "145235.808000", "145237.808000", "145239.807000", "145241.808000", "145243.807000", "145245.807000", "145247.807000", "145249.808000", "145251.809000", "145253.809000", "145255.808000", "145257.807000", "145259.808000", "145301.808000", "145303.808000", "145305.808000", "145307.807000", "145309.809000", "145311.809000", "145313.808000", "145315.808000", "145317.808000", "145319.808000", "145321.808000", "145323.807000", "145325.808000", "145327.809000", "145329.808000", "145331.807000", "145333.808000", "145335.808000", "145337.808000", "145339.807000", "145341.807000", "145343.809000", "145345.808000", "145347.807000", "145349.807000", "145351.808000", "145353.808000", "145355.808000", "145357.807000", "145359.808000", "145401.809000", "145403.809000", "145405.808000", "145407.808000", "145409.808000", "145411.808000", "145413.808000", "145415.807000", "145417.808000", "145419.809000", "145421.809000", "145423.807000", "145425.808000", "145427.808000", "145429.807000", "145431.807000", "145433.808000", "145435.809000", "145437.809000", "145439.808000", "145441.808000", "145443.808000", "145445.808000", "145447.808000", "145449.807000", "145451.807000", "145453.808000", "145455.809000", "145457.808000", "145459.808000", "145501.807000", "145503.808000", "145505.807000", "145507.808000", "145509.807000", "145511.808000", "145513.809000", "145515.807000", "145517.807000", "145519.808000", "145521.808000", "145523.808000", "145525.807000", "145527.808000", "145529.809000", "145531.809000", "145533.808000", "145535.808000", "145537.808000", "145539.808000", "145541.808000", "145543.807000", "145545.809000", "145547.809000", "145549.808000", "145551.808000", "145553.808000", "145555.808000", "145557.808000", "145559.807000", "145601.807000", "145603.808000", "145605.809000", "145607.807000", "145609.808000", "145611.807000", "145613.807000", "145615.808000", "145617.808000", "145619.808000", "145621.808000", "145623.808000", "145625.808000", "145627.808000", "145629.808000", "145631.808000", "145633.808000", "145635.807000", "145637.808000", "145639.809000", "145641.809000", "145643.807000", "145645.808000", "145647.808000", "145649.808000", "145651.808000", "145653.808000", "145655.809000", "145657.809000", "145659.808000", "145701.807000", "145703.808000", "145705.808000", "145707.808000", "145709.808000", "145711.807000", "145713.809000", "145715.809000", "145717.808000", "145719.808000", "145721.808000", "145723.808000", "145725.808000", "145727.808000", "145729.808000", "145731.809000", "145733.581000"],
      "InstanceNumber": [1, 2, 3, 4, 5, 6, 7, 8, 9, 10, 11, 12, 13, 14, 15, 16, 17, 18, 19, 20, 21, 22, 23, 24, 25, 26, 27, 28, 29, 30, 31, 32, 33, 34, 35, 36, 37, 38, 39, 40, 41, 42, 43, 44, 45, 46, 47, 48, 49, 50, 51, 52, 53, 54, 55, 56, 57, 58, 59, 60, 61, 62, 63, 64, 65, 66, 67, 68, 69, 70, 71, 72, 73, 74, 75, 76, 77, 78, 79, 80, 81, 82, 83, 84, 85, 86, 87, 88, 89, 90, 91, 92, 93, 94, 95, 96, 97, 98, 99, 100, 101, 102, 103, 104, 105, 106, 107, 108, 109, 110, 111, 112, 113, 114, 115, 116, 117, 118, 119, 120, 121, 122, 123, 124, 125, 126, 127, 128, 129, 130, 131, 132, 133, 134, 135, 136, 137, 138, 139, 140, 141, 142, 143, 144, 145, 146, 147, 148, 149, 150, 151, 152, 153, 154, 155, 156],
      "LargestImagePixelValue": [2391, 2291, 2338, 2317, 2352, 2244, 2301, 2355, 2307, 2256, 2433, 2270, 2432, 2279, 2276, 2297, 2263, 2315, 2337, 2267, 2272, 2342, 2305, 2322, 2381, 2274, 2277, 2269, 2336, 2268, 2336, 2268, 2336, 2281, 2287, 2316, 2365, 2279, 2311, 2299, 2367, 2292, 2298, 2303, 2306, 2309, 2281, 2293, 2278, 2288, 2287, 2289, 2286, 2291, 2381, 2303, 2385, 2319, 2339, 2301, 2289, 2295, 2337, 2360, 2302, 2294, 2300, 2337, 2311, 2325, 2319, 2338, 2344, 2305, 2311, 2306, 2317, 2302, 2313, 2315, 2311, 2399, 2318, 2297, 2319, 2338, 2333, 2318, 2316, 2320, 2329, 2350, 2301, 2301, 2295, 2311, 2308, 2325, 2281, 2324, 2322, 2322, 2298, 2319, 2351, 2342, 2312, 2325, 2348, 2355, 2352, 2318, 2380, 2352, 2323, 2364, 2388, 2386, 2392, 2356, 2334, 2339, 2354, 2359, 2340, 2318, 2310, 2347, 2306, 2332, 2344, 2335, 2319, 2329, 2313, 2315, 2333, 2383, 2432, 2376, 2324, 2318, 2342, 2479, 2320, 2395, 2426, 2365, 2359, 2382, 2325, 2358, 2314, 2338, 2342, 2567],
      "WindowCenter": [709.0, 705.0, 706.0, 705.0, 706.0, 704.0, 704.0, 705.0, 705.0, 706.0, 708.0, 705.0, 707.0, 704.0, 704.0, 705.0, 704.0, 706.0, 706.0, 704.0, 705.0, 706.0, 705.0, 705.0, 706.0, 704.0, 704.0, 704.0, 706.0, 705.0, 706.0, 705.0, 705.0, 704.0, 703.0, 704.0, 705.0, 704.0, 706.0, 705.0, 707.0, 706.0, 705.0, 705.0, 704.0, 704.0, 704.0, 704.0, 704.0, 704.0, 704.0, 704.0, 704.0, 705.0, 707.0, 706.0, 707.0, 705.0, 705.0, 705.0, 705.0, 706.0, 706.0, 706.0, 705.0, 705.0, 704.0, 704.0, 704.0, 705.0, 705.0, 706.0, 706.0, 705.0, 705.0, 705.0, 706.0, 706.0, 706.0, 705.0, 705.0, 706.0, 705.0, 705.0, 706.0, 706.0, 705.0, 705.0, 705.0, 705.0, 705.0, 706.0, 705.0, 705.0, 706.0, 706.0, 705.0, 706.0, 705.0, 705.0, 705.0, 705.0, 705.0, 705.0, 706.0, 705.0, 706.0, 706.0, 705.0, 705.0, 705.0, 704.0, 705.0, 705.0, 705.0, 706.0, 707.0, 707.0, 707.0, 707.0, 706.0, 706.0, 707.0, 706.0, 705.0, 705.0, 704.0, 705.0, 705.0, 705.0, 705.0, 705.0, 705.0, 705.0, 705.0, 705.0, 705.0, 706.0, 706.0, 706.0, 704.0, 706.0, 706.0, 708.0, 705.0, 706.0, 706.0, 706.0, 707.0, 707.0, 706.0, 706.0, 705.0, 705.0, 705.0, 709.0],
      "WindowWidth": [1501.0, 1493.0, 1493.0, 1492.0, 1494.0, 1489.0, 1489.0, 1491.0, 1492.0, 1494.0, 1499.0, 1492.0, 1495.0, 1490.0, 1489.0, 1490.0, 1490.0, 1493.0, 1493.0, 1490.0, 1490.0, 1493.0, 1491.0, 1491.0, 1493.0, 1490.0, 1489.0, 1489.0, 1494.0, 1492.0, 1494.0, 1491.0, 1491.0, 1488.0, 1488.0, 1490.0, 1491.0, 1490.0, 1493.0, 1493.0, 1495.0, 1494.0, 1492.0, 1492.0, 1490.0, 1489.0, 1489.0, 1490.0, 1490.0, 1490.0, 1489.0, 1489.0, 1489.0, 1491.0, 1495.0, 1493.0, 1495.0, 1492.0, 1492.0, 1491.0, 1492.0, 1493.0, 1494.0, 1494.0, 1493.0, 1493.0, 1490.0, 1490.0, 1489.0, 1491.0, 1493.0, 1494.0, 1495.0, 1491.0, 1490.0, 1491.0, 1493.0, 1493.0, 1493.0, 1492.0, 1490.0, 1494.0, 1491.0, 1492.0, 1493.0, 1493.0, 1492.0, 1491.0, 1491.0, 1492.0, 1492.0, 1493.0, 1490.0, 1492.0, 1493.0, 1494.0, 1492.0, 1493.0, 1491.0, 1492.0, 1492.0, 1492.0, 1492.0, 1492.0, 1493.0, 1492.0, 1493.0, 1494.0, 1492.0, 1492.0, 1492.0, 1490.0, 1492.0, 1492.0, 1492.0, 1494.0, 1495.0, 1496.0, 1496.0, 1495.0, 1494.0, 1495.0, 1495.0, 1493.0, 1491.0, 1491.0, 1489.0, 1490.0, 1490.0, 1492.0, 1491.0, 1492.0, 1492.0, 1492.0, 1491.0, 1491.0, 1491.0, 1493.0, 1494.0, 1492.0, 1490.0, 1493.0, 1494.0, 1497.0, 1490.0, 1493.0, 1494.0, 1494.0, 1496.0, 1497.0, 1495.0, 1493.0, 1491.0, 1490.0, 1490.0, 1499.0]
    },
    "slices": {}
  }
}