{
  "AcquisitionMatrixPE": 100,
  "AcquisitionNumber": 1,
  "AcquisitionTime": "15:18:33.002500",
  "BandwidthPerPixelPhaseEncode": 18.519,
  "BaseResolution": 100,
  "BodyPartExamined": "BRAIN",
  "CoilCombinationMethod": "Sum of Squares",
  "ConsistencyInfo": "N4_VE11C_LATEST_20160120",
  "ConversionSoftware": "dcm2niix",
  "ConversionSoftwareVersion": "v1.0.20211006",
  "DerivedVendorReportedEchoSpacing": 0.000539986,
  "DeviceSerialNumber": "166078",
  "DwellTime": 2.1e-06,
  "EchoTime": 0.034,
  "EchoTrainLength": 100,
  "EffectiveEchoSpacing": 0.000539986,
  "FlipAngle": 90,
  "ImageOrientationPatientDICOM": [0.99956, 0.00397483, 0.0293988, 3.50823e-08, 0.990983, -0.133986],
  "ImageOrientationText": "Tra>Cor(-7.7)>Sag(1.7)",
  "ImageType": [
    "ORIGINAL",
    "PRIMARY",
    "M",
    "ND",
    "MOSAIC"
],
  "ImagingFrequency": 123.258,
  "InPlanePhaseEncodingDirectionDICOM": "COL",
  "InstitutionAddress": "Street StreetNo,Bei Jing,District,CN,ZIP",
  "InstitutionName": "BeiJing Normal University",
  "InstitutionalDepartmentName": "Department",
  "MRAcquisitionType": "2D",
  "MagneticFieldStrength": 3,
  "Manufacturer": "Siemens",
  "ManufacturersModelName": "Prisma",
  "Modality": "MR",
  "MultibandAccelerationFactor": 3,
  "PartialFourier": 1,
  "PatientPosition": "HFS",
  "PercentPhaseFOV": 100,
  "PercentSampling": 100,
  "PhaseEncodingDirection": "j-",
  "PhaseEncodingSteps": 100,
  "PhaseResolution": 1,
  "PixelBandwidth": 2380,
  "ProcedureStepDescription": "BNU_P2018_64CH^Zhen.ZongLei",
  "ProtocolName": "bold_100x100_s3_2x2x2_static_156",
  "PulseSequenceDetails": "%SiemensSeq%\\ep2d_bold",
  "ReceiveCoilActiveElements": "HC1-7;NC1",
  "ReceiveCoilName": "HeadNeck_64",
  "ReconMatrixPE": 100,
  "RefLinesPE": 32,
  "RepetitionTime": 2,
  "SAR": 0.0729632,
  "ScanOptions": "FS",
  "ScanningSequence": "EP",
  "SequenceName": "*epfid2d1_100",
  "SequenceVariant": "SK",
  "SeriesDescription": "bold_100x100_s3_2x2x2_static_156",
  "SeriesNumber": 13,
  "ShimSetting": [-5454, -11514, -1271, 412, -53, -231, -17, 15],
  "SliceThickness": 2,
  "SliceTiming": [1.485, 0, 0.99, 0.0825, 1.0725, 0.165, 1.155, 0.2475, 1.2375, 0.33, 1.32, 0.4125, 1.4025, 0.5775, 1.5675, 0.66, 1.65, 0.7425, 1.7325, 0.825, 1.815, 0.9075, 1.8975, 0.495, 1.485, 0, 0.99, 0.0825, 1.0725, 0.165, 1.155, 0.2475, 1.2375, 0.33, 1.32, 0.4125, 1.4025, 0.5775, 1.5675, 0.66, 1.65, 0.7425, 1.7325, 0.825, 1.815, 0.9075, 1.8975, 0.495, 1.485, 0, 0.99, 0.0825, 1.0725, 0.165, 1.155, 0.2475, 1.2375, 0.33, 1.32, 0.4125, 1.4025, 0.5775, 1.5675, 0.66, 1.65, 0.7425, 1.7325, 0.825, 1.815, 0.9075, 1.8975, 0.495],
  "SoftwareVersions": "syngo MR E11",
  "SpacingBetweenSlices": 2,
  "StationName": "AWP166078",
  "TaskName": "action",
  "TotalReadoutTime": 0.0534586,
  "TxRefAmp": 219.297,
  "dcmmeta_affine": [
    [-1.999119758605957, 7.016463854370159e-08, 0.05933248996734619, 97.84967803955078],
    [-0.007949664257466793, 1.9819663763046265, -0.2678544223308563, -77.21003723144531],
    [0.05879750847816467, 0.26797235012054443, 1.9810941219329834, -86.39936065673828],
    [0.0, 0.0, 0.0, 1.0]
],
  "dcmmeta_reorient_transform": [
    [0.0, -1.0, 0.0, 99.0],
    [1.0, 0.0, 0.0, 0.0],
    [0.0, 0.0, 1.0, 0.0],
    [0.0, 0.0, 0.0, 1.0]
],
  "dcmmeta_shape": [100, 100, 72, 156],
  "dcmmeta_slice_dim": 2,
  "dcmmeta_version": 0.6,
  "global": {
    "const": {
      "AcquisitionMatrix": [100, 0, 0, 100],
      "AngioFlag": "N",
      "BitsAllocated": 16,
      "BitsStored": 12,
      "BodyPartExamined": "BRAIN",
      "Columns": 900,
      "EchoNumbers": 1,
      "EchoTime": 34.0,
      "EchoTrainLength": 100,
      "FlipAngle": 90.0,
      "HighBit": 11,
      "ImageOrientationPatient": [0.99955986011195, 0.00397483206519, 0.02939875444708, 3.5082318e-08, 0.99098320016309, -0.1339861821029],
      "ImagePositionPatient": [-897.49760245981, -914.97106193697, 23.799842727195],
      "ImageType": [
        "ORIGINAL",
        "PRIMARY",
        "M",
        "ND",
        "MOSAIC"
],
      "ImagedNucleus": "1H",
      "ImagingFrequency": 123.257746,
      "InPlanePhaseEncodingDirection": "COL",
      "MRAcquisitionType": "2D",
      "MagneticFieldStrength": 3.0,
      "Manufacturer": "SIEMENS",
      "ManufacturerModelName": "Prisma",
      "Modality": "MR",
      "NumberOfAverages": 1.0,
      "NumberOfPhaseEncodingSteps": 100,
      "PercentPhaseFieldOfView": 100.0,
      "PercentSampling": 100.0,
      "PerformedProcedureStepStartTime": "142154.535000",
      "PhotometricInterpretation": "MONOCHROME2",
      "PixelBandwidth": 2380.0,
      "PixelRepresentation": 0,
      "PixelSpacing": [2.0, 2.0],
      "ProtocolName": "bold_100x100_s3_2x2x2_static_156",
      "RepetitionTime": 2000.0,
      "Rows": 900,
      "SAR": 0.07296322133878,
      "SamplesPerPixel": 1,
      "ScanOptions": "FS",
      "ScanningSequence": "EP",
      "SequenceName": "*epfid2d1_100",
      "SequenceVariant": "SK",
      "SeriesDescription": "bold_100x100_s3_2x2x2_static_156",
      "SeriesNumber": 13,
      "SeriesTime": "151835.359000",
      "SliceLocation": -72.339275322693,
      "SliceThickness": 2.0,
      "SmallestImagePixelValue": 0,
      "SoftwareVersions": "syngo MR E11",
      "SpacingBetweenSlices": 2.0000000890733,
      "SpecificCharacterSet": "ISO_IR 100",
      "StudyID": "1",
      "StudyTime": "142154.468000",
      "TransmitCoilName": "Body",
      "VariableFlipAngleFlag": "N",
      "WindowCenterWidthExplanation": "Algo1",
      "dBdt": 0.0},
    "slices": {}
  },
  "time": {
    "samples": {
      "AcquisitionNumber": [1, 2, 3, 4, 5, 6, 7, 8, 9, 10, 11, 12, 13, 14, 15, 16, 17, 18, 19, 20, 21, 22, 23, 24, 25, 26, 27, 28, 29, 30, 31, 32, 33, 34, 35, 36, 37, 38, 39, 40, 41, 42, 43, 44, 45, 46, 47, 48, 49, 50, 51, 52, 53, 54, 55, 56, 57, 58, 59, 60, 61, 62, 63, 64, 65, 66, 67, 68, 69, 70, 71, 72, 73, 74, 75, 76, 77, 78, 79, 80, 81, 82, 83, 84, 85, 86, 87, 88, 89, 90, 91, 92, 93, 94, 95, 96, 97, 98, 99, 100, 101, 102, 103, 104, 105, 106, 107, 108, 109, 110, 111, 112, 113, 114, 115, 116, 117, 118, 119, 120, 121, 122, 123, 124, 125, 126, 127, 128, 129, 130, 131, 132, 133, 134, 135, 136, 137, 138, 139, 140, 141, 142, 143, 144, 145, 146, 147, 148, 149, 150, 151, 152, 153, 154, 155, 156],
      "AcquisitionTime": ["151833.002500", "151835.002500", "151837.002500", "151839.002500", "151841.002500", "151843.002500", "151845.002500", "151847.002500", "151849.002500", "151851.002500", "151853.002500", "151855.002500", "151857.002500", "151859.002500", "151901.002500", "151903.002500", "151905.002500", "151907.002500", "151909.002500", "151911.002500", "151913.002500", "151915.002500", "151917.002500", "151919.002500", "151921.002500", "151923.002500", "151925.002500", "151927.002500", "151929.002500", "151931.002500", "151933.002500", "151935.002500", "151937.002500", "151939.002500", "151941.002500", "151943.002500", "151945.002500", "151947.002500", "151949.002500", "151951.002500", "151953.002500", "151955.002500", "151957.002500", "151959.002500", "152001.002500", "152003.002500", "152005.002500", "152007.002500", "152009.002500", "152011.002500", "152013.002500", "152015.002500", "152017.002500", "152019.002500", "152021.002500", "152023.002500", "152025.002500", "152027.002500", "152029.002500", "152031.002500", "152033.002500", "152035.002500", "152037.002500", "152039.002500", "152041.002500", "152043.002500", "152045.002500", "152047.002500", "152049.002500", "152051.002500", "152053.002500", "152055.002500", "152057.002500", "152059.002500", "152101.002500", "152103.002500", "152105.002500", "152107.002500", "152109.002500", "152111.002500", "152113.002500", "152115.002500", "152117.002500", "152119.002500", "152121.002500", "152123.002500", "152125.002500", "152127.002500", "152129.002500", "152131.002500", "152133.002500", "152135.002500", "152137.002500", "152139.002500", "152141.002500", "152143.002500", "152145.002500", "152147.002500", "152149.002500", "152151.002500", "152153.002500", "152155.002500", "152157.002500", "152159.002500", "152201.002500", "152203.002500", "152205.002500", "152207.002500", "152209.002500", "152211.002500", "152213.002500", "152215.002500", "152217.002500", "152219.002500", "152221.002500", "152223.002500", "152225.002500", "152227.002500", "152229.002500", "152231.002500", "152233.002500", "152235.002500", "152237.002500", "152239.002500", "152241.002500", "152243.002500", "152245.002500", "152247.002500", "152249.002500", "152251.002500", "152253.002500", "152255.002500", "152257.002500", "152259.002500", "152301.002500", "152303.002500", "152305.002500", "152307.002500", "152309.002500", "152311.002500", "152313.002500", "152315.002500", "152317.002500", "152319.002500", "152321.002500", "152323.002500", "152325.002500", "152327.002500", "152329.002500", "152331.002500", "152333.002500", "152335.002500", "152337.002500", "152339.002500", "152341.002500", "152343.002500"],
      "ContentTime": ["151835.363000", "151837.359000", "151838.859000", "151840.858000", "151842.858000", "151844.858000", "151846.859000", "151848.859000", "151850.859000", "151852.858000", "151854.858000", "151856.858000", "151859.359000", "151900.859000", "151902.858000", "151904.859000", "151906.859000", "151908.859000", "151911.359000", "151912.859000", "151914.858000", "151916.858000", "151918.859000", "151920.860000", "151922.859000", "151925.359000", "151927.358000", "151928.858000", "151931.359000", "151933.359000", "151934.859000", "151936.858000", "151938.858000", "151940.859000", "151942.860000", "151945.359000", "151946.859000", "151948.858000", "151950.859000", "151952.859000", "151954.859000", "151956.859000", "151958.859000", "152000.859000", "152002.858000", "152005.358000", "152006.859000", "152008.859000", "152010.858000", "152012.859000", "152014.859000", "152016.860000", "152018.859000", "152020.859000", "152022.859000", "152025.359000", "152026.858000", "152029.359000", "152030.858000", "152032.860000", "152034.859000", "152036.858000", "152039.358000", "152040.858000", "152042.858000", "152045.359000", "152046.858000", "152048.859000", "152051.359000", "152052.860000", "152054.858000", "152056.859000", "152058.858000", "152100.859000", "152102.859000", "152104.859000", "152106.859000", "152109.360000", "152110.859000", "152112.859000", "152115.359000", "152116.859000", "152118.858000", "152120.859000", "152122.858000", "152124.859000", "152126.860000", "152128.859000", "152130.878000", "152133.358000", "152134.859000", "152137.358000", "152138.858000", "152140.859000", "152142.860000", "152144.859000", "152146.858000", "152148.859000", "152150.858000", "152153.359000", "152154.859000", "152157.358000", "152158.858000", "152201.360000", "152202.859000", "152204.858000", "152207.359000", "152208.859000", "152211.358000", "152212.858000", "152214.858000", "152216.859000", "152219.360000", "152221.358000", "152222.859000", "152224.858000", "152226.858000", "152228.858000", "152230.859000", "152232.858000", "152235.360000", "152236.859000", "152239.358000", "152240.858000", "152242.859000", "152244.859000", "152246.859000", "152248.858000", "152250.858000", "152252.859000", "152254.859000", "152256.858000", "152258.858000", "152300.859000", "152303.359000", "152304.858000", "152306.859000", "152308.859000", "152310.859000", "152312.859000", "152314.859000", "152316.858000", "152318.858000", "152320.859000", "152322.858000", "152324.859000", "152326.860000", "152329.360000", "152330.860000", "152332.858000", "152334.859000", "152336.859000", "152338.859000", "152340.859000", "152342.858000", "152344.913000"],
      "InstanceCreationTime": ["151835.363000", "151837.359000", "151838.859000", "151840.858000", "151842.858000", "151844.858000", "151846.859000", "151848.859000", "151850.859000", "151852.858000", "151854.858000", "151856.858000", "151859.359000", "151900.859000", "151902.858000", "151904.859000", "151906.859000", "151908.859000", "151911.359000", "151912.859000", "151914.858000", "151916.858000", "151918.859000", "151920.860000", "151922.859000", "151925.359000", "151927.358000", "151928.858000", "151931.359000", "151933.359000", "151934.859000", "151936.858000", "151938.858000", "151940.859000", "151942.860000", "151945.359000", "151946.859000", "151948.858000", "151950.859000", "151952.859000", "151954.859000", "151956.859000", "151958.859000", "152000.859000", "152002.858000", "152005.358000", "152006.859000", "152008.859000", "152010.858000", "152012.859000", "152014.859000", "152016.860000", "152018.859000", "152020.859000", "152022.859000", "152025.359000", "152026.858000", "152029.359000", "152030.858000", "152032.860000", "152034.859000", "152036.858000", "152039.358000", "152040.858000", "152042.858000", "152045.359000", "152046.858000", "152048.859000", "152051.359000", "152052.860000", "152054.858000", "152056.859000", "152058.858000", "152100.859000", "152102.859000", "152104.859000", "152106.859000", "152109.360000", "152110.859000", "152112.859000", "152115.359000", "152116.859000", "152118.858000", "152120.859000", "152122.858000", "152124.859000", "152126.860000", "152128.859000", "152130.878000", "152133.358000", "152134.859000", "152137.358000", "152138.858000", "152140.859000", "152142.860000", "152144.859000", "152146.858000", "152148.859000", "152150.858000", "152153.359000", "152154.859000", "152157.358000", "152158.858000", "152201.360000", "152202.859000", "152204.858000", "152207.359000", "152208.859000", "152211.358000", "152212.858000", "152214.858000", "152216.859000", "152219.360000", "152221.358000", "152222.859000", "152224.858000", "152226.858000", "152228.858000", "152230.859000", "152232.858000", "152235.360000", "152236.859000", "152239.358000", "152240.858000", "152242.859000", "152244.859000", "152246.859000", "152248.858000", "152250.858000", "152252.859000", "152254.859000", "152256.858000", "152258.858000", "152300.859000", "152303.359000", "152304.858000", "152306.859000", "152308.859000", "152310.859000", "152312.859000", "152314.859000", "152316.858000", "152318.858000", "152320.859000", "152322.858000", "152324.859000", "152326.860000", "152329.360000", "152330.860000", "152332.858000", "152334.859000", "152336.859000", "152338.859000", "152340.859000", "152342.858000", "152344.913000"],
      "InstanceNumber": [1, 2, 3, 4, 5, 6, 7, 8, 9, 10, 11, 12, 13, 14, 15, 16, 17, 18, 19, 20, 21, 22, 23, 24, 25, 26, 27, 28, 29, 30, 31, 32, 33, 34, 35, 36, 37, 38, 39, 40, 41, 42, 43, 44, 45, 46, 47, 48, 49, 50, 51, 52, 53, 54, 55, 56, 57, 58, 59, 60, 61, 62, 63, 64, 65, 66, 67, 68, 69, 70, 71, 72, 73, 74, 75, 76, 77, 78, 79, 80, 81, 82, 83, 84, 85, 86, 87, 88, 89, 90, 91, 92, 93, 94, 95, 96, 97, 98, 99, 100, 101, 102, 103, 104, 105, 106, 107, 108, 109, 110, 111, 112, 113, 114, 115, 116, 117, 118, 119, 120, 121, 122, 123, 124, 125, 126, 127, 128, 129, 130, 131, 132, 133, 134, 135, 136, 137, 138, 139, 140, 141, 142, 143, 144, 145, 146, 147, 148, 149, 150, 151, 152, 153, 154, 155, 156],
      "LargestImagePixelValue": [2436, 2394, 2397, 2390, 2384, 2398, 2390, 2365, 2368, 2370, 2407, 2386, 2402, 2369, 2355, 2377, 2386, 2363, 2374, 2379, 2380, 2361, 2403, 2388, 2373, 2385, 2386, 2379, 2397, 2390, 2397, 2392, 2373, 2392, 2381, 2378, 2381, 2415, 2408, 2401, 2374, 2384, 2396, 2393, 2387, 2378, 2381, 2362, 2389, 2414, 2377, 2385, 2400, 2389, 2391, 2371, 2398, 2379, 2373, 2377, 2402, 2404, 2369, 2395, 2381, 2394, 2384, 2418, 2384, 2391, 2395, 2394, 2394, 2392, 2402, 2488, 2337, 2350, 2348, 2382, 2374, 2371, 2329, 2370, 2349, 2370, 2369, 2359, 2387, 2393, 2379, 2473, 2370, 2404, 2390, 2380, 2413, 2417, 2379, 2399, 2372, 2376, 2384, 2392, 2414, 2388, 2450, 2408, 2396, 2391, 2392, 2394, 2408, 2385, 2375, 2595, 2380, 2386, 2401, 2388, 2392, 2405, 2386, 2376, 2411, 2357, 2388, 2386, 2400, 2393, 2385, 2383, 2388, 2387, 2381, 2397, 2368, 2409, 2390, 2448, 2518, 2413, 2419, 2381, 2403, 2384, 2406, 2387, 2377, 2374, 2377, 2391, 2496, 2452, 2380, 2574],
      "WindowCenter": [710.0, 707.0, 707.0, 706.0, 705.0, 706.0, 706.0, 706.0, 706.0, 706.0, 707.0, 707.0, 707.0, 707.0, 707.0, 707.0, 707.0, 706.0, 706.0, 706.0, 706.0, 707.0, 707.0, 707.0, 707.0, 707.0, 707.0, 707.0, 707.0, 707.0, 707.0, 707.0, 706.0, 706.0, 706.0, 707.0, 706.0, 707.0, 707.0, 708.0, 707.0, 706.0, 707.0, 707.0, 706.0, 706.0, 706.0, 705.0, 705.0, 705.0, 703.0, 704.0, 704.0, 705.0, 705.0, 705.0, 706.0, 706.0, 707.0, 707.0, 706.0, 706.0, 706.0, 707.0, 707.0, 706.0, 705.0, 707.0, 707.0, 707.0, 707.0, 707.0, 707.0, 707.0, 707.0, 706.0, 705.0, 704.0, 701.0, 699.0, 698.0, 699.0, 699.0, 701.0, 702.0, 704.0, 705.0, 705.0, 706.0, 707.0, 707.0, 709.0, 707.0, 707.0, 707.0, 707.0, 708.0, 707.0, 706.0, 707.0, 707.0, 707.0, 707.0, 707.0, 706.0, 705.0, 706.0, 705.0, 705.0, 705.0, 705.0, 705.0, 705.0, 706.0, 707.0, 710.0, 706.0, 706.0, 706.0, 706.0, 705.0, 705.0, 705.0, 706.0, 707.0, 706.0, 706.0, 705.0, 706.0, 706.0, 705.0, 705.0, 705.0, 705.0, 705.0, 705.0, 705.0, 706.0, 706.0, 708.0, 710.0, 708.0, 708.0, 706.0, 706.0, 705.0, 706.0, 706.0, 705.0, 705.0, 704.0, 705.0, 707.0, 707.0, 705.0, 708.0],
      "WindowWidth": [1502.0, 1496.0, 1494.0, 1491.0, 1490.0, 1492.0, 1493.0, 1492.0, 1492.0, 1493.0, 1494.0, 1494.0, 1496.0, 1495.0, 1496.0, 1496.0, 1495.0, 1494.0, 1493.0, 1493.0, 1492.0, 1494.0, 1495.0, 1495.0, 1495.0, 1495.0, 1496.0, 1495.0, 1494.0, 1495.0, 1496.0, 1494.0, 1493.0, 1493.0, 1494.0, 1495.0, 1493.0, 1495.0, 1495.0, 1497.0, 1495.0, 1494.0, 1494.0, 1494.0, 1493.0, 1493.0, 1492.0, 1490.0, 1489.0, 1489.0, 1486.0, 1487.0, 1488.0, 1489.0, 1490.0, 1490.0, 1491.0, 1492.0, 1494.0, 1494.0, 1493.0, 1493.0, 1492.0, 1496.0, 1495.0, 1493.0, 1491.0, 1495.0, 1495.0, 1495.0, 1494.0, 1495.0, 1495.0, 1494.0, 1494.0, 1493.0, 1490.0, 1488.0, 1481.0, 1476.0, 1473.0, 1475.0, 1476.0, 1480.0, 1482.0, 1488.0, 1489.0, 1491.0, 1492.0, 1494.0, 1495.0, 1499.0, 1495.0, 1496.0, 1495.0, 1496.0, 1497.0, 1496.0, 1494.0, 1495.0, 1495.0, 1496.0, 1495.0, 1494.0, 1493.0, 1490.0, 1493.0, 1491.0, 1490.0, 1491.0, 1491.0, 1492.0, 1492.0, 1494.0, 1495.0, 1502.0, 1494.0, 1493.0, 1493.0, 1493.0, 1491.0, 1491.0, 1491.0, 1492.0, 1494.0, 1492.0, 1492.0, 1491.0, 1492.0, 1492.0, 1491.0, 1490.0, 1490.0, 1491.0, 1490.0, 1491.0, 1490.0, 1492.0, 1492.0, 1497.0, 1502.0, 1498.0, 1497.0, 1494.0, 1492.0, 1490.0, 1492.0, 1492.0, 1492.0, 1490.0, 1489.0, 1491.0, 1495.0, 1494.0, 1491.0, 1496.0]
    },
    "slices": {}
  }
}