{
  "AcquisitionMatrixPE": 100,
  "AcquisitionNumber": 1,
  "AcquisitionTime": "15:36:12.680000",
  "BandwidthPerPixelPhaseEncode": 18.519,
  "BaseResolution": 100,
  "BodyPartExamined": "BRAIN",
  "CoilCombinationMethod": "Sum of Squares",
  "ConsistencyInfo": "N4_VE11C_LATEST_20160120",
  "ConversionSoftware": "dcm2niix",
  "ConversionSoftwareVersion": "v1.0.20211006",
  "DerivedVendorReportedEchoSpacing": 0.000539986,
  "DeviceSerialNumber": "166078",
  "DwellTime": 2.1e-06,
  "EchoTime": 0.034,
  "EchoTrainLength": 100,
  "EffectiveEchoSpacing": 0.000539986,
  "FlipAngle": 90,
  "ImageOrientationPatientDICOM": [0.99956, 0.00397483, 0.0293988, 3.50823e-08, 0.990983, -0.133986],
  "ImageOrientationText": "Tra>Cor(-7.7)>Sag(1.7)",
  "ImageType": [
    "ORIGINAL",
    "PRIMARY",
    "M",
    "ND",
    "MOSAIC"
],
  "ImagingFrequency": 123.258,
  "InPlanePhaseEncodingDirectionDICOM": "COL",
  "InstitutionAddress": "Street StreetNo,Bei Jing,District,CN,ZIP",
  "InstitutionName": "BeiJing Normal University",
  "InstitutionalDepartmentName": "Department",
  "MRAcquisitionType": "2D",
  "MagneticFieldStrength": 3,
  "Manufacturer": "Siemens",
  "ManufacturersModelName": "Prisma",
  "Modality": "MR",
  "MultibandAccelerationFactor": 3,
  "PartialFourier": 1,
  "PatientPosition": "HFS",
  "PercentPhaseFOV": 100,
  "PercentSampling": 100,
  "PhaseEncodingDirection": "j-",
  "PhaseEncodingSteps": 100,
  "PhaseResolution": 1,
  "PixelBandwidth": 2380,
  "ProcedureStepDescription": "BNU_P2018_64CH^Zhen.ZongLei",
  "ProtocolName": "bold_100x100_s3_2x2x2_static_156",
  "PulseSequenceDetails": "%SiemensSeq%\\ep2d_bold",
  "ReceiveCoilActiveElements": "HC1-7;NC1",
  "ReceiveCoilName": "HeadNeck_64",
  "ReconMatrixPE": 100,
  "RefLinesPE": 32,
  "RepetitionTime": 2,
  "SAR": 0.0729632,
  "ScanOptions": "FS",
  "ScanningSequence": "EP",
  "SequenceName": "*epfid2d1_100",
  "SequenceVariant": "SK",
  "SeriesDescription": "bold_100x100_s3_2x2x2_static_156",
  "SeriesNumber": 16,
  "ShimSetting": [-5454, -11514, -1271, 412, -53, -231, -17, 15],
  "SliceThickness": 2,
  "SliceTiming": [1.4825, 0, 0.99, 0.0825, 1.0725, 0.165, 1.155, 0.2475, 1.2375, 0.33, 1.32, 0.4125, 1.4025, 0.5775, 1.565, 0.66, 1.6475, 0.7425, 1.73, 0.825, 1.8125, 0.9075, 1.895, 0.495, 1.4825, 0, 0.99, 0.0825, 1.0725, 0.165, 1.155, 0.2475, 1.2375, 0.33, 1.32, 0.4125, 1.4025, 0.5775, 1.565, 0.66, 1.6475, 0.7425, 1.73, 0.825, 1.8125, 0.9075, 1.895, 0.495, 1.4825, 0, 0.99, 0.0825, 1.0725, 0.165, 1.155, 0.2475, 1.2375, 0.33, 1.32, 0.4125, 1.4025, 0.5775, 1.565, 0.66, 1.6475, 0.7425, 1.73, 0.825, 1.8125, 0.9075, 1.895, 0.495],
  "SoftwareVersions": "syngo MR E11",
  "SpacingBetweenSlices": 2,
  "StationName": "AWP166078",
  "TaskName": "action",
  "TotalReadoutTime": 0.0534586,
  "TxRefAmp": 219.297,
  "dcmmeta_affine": [
    [-1.999119758605957, 7.016463854370159e-08, 0.05933248996734619, 97.84967803955078],
    [-0.007949664257466793, 1.9819663763046265, -0.2678544223308563, -77.21003723144531],
    [0.05879750847816467, 0.26797235012054443, 1.9810941219329834, -86.39936065673828],
    [0.0, 0.0, 0.0, 1.0]
],
  "dcmmeta_reorient_transform": [
    [0.0, -1.0, 0.0, 99.0],
    [1.0, 0.0, 0.0, 0.0],
    [0.0, 0.0, 1.0, 0.0],
    [0.0, 0.0, 0.0, 1.0]
],
  "dcmmeta_shape": [100, 100, 72, 156],
  "dcmmeta_slice_dim": 2,
  "dcmmeta_version": 0.6,
  "global": {
    "const": {
      "AcquisitionMatrix": [100, 0, 0, 100],
      "AngioFlag": "N",
      "BitsAllocated": 16,
      "BitsStored": 12,
      "BodyPartExamined": "BRAIN",
      "Columns": 900,
      "EchoNumbers": 1,
      "EchoTime": 34.0,
      "EchoTrainLength": 100,
      "FlipAngle": 90.0,
      "HighBit": 11,
      "ImageOrientationPatient": [0.99955986011195, 0.00397483206519, 0.02939875444708, 3.5082318e-08, 0.99098320016309, -0.1339861821029],
      "ImagePositionPatient": [-897.49760245981, -914.97106193697, 23.799842727195],
      "ImageType": [
        "ORIGINAL",
        "PRIMARY",
        "M",
        "ND",
        "MOSAIC"
],
      "ImagedNucleus": "1H",
      "ImagingFrequency": 123.257749,
      "InPlanePhaseEncodingDirection": "COL",
      "MRAcquisitionType": "2D",
      "MagneticFieldStrength": 3.0,
      "Manufacturer": "SIEMENS",
      "ManufacturerModelName": "Prisma",
      "Modality": "MR",
      "NumberOfAverages": 1.0,
      "NumberOfPhaseEncodingSteps": 100,
      "PercentPhaseFieldOfView": 100.0,
      "PercentSampling": 100.0,
      "PerformedProcedureStepStartTime": "142154.535000",
      "PhotometricInterpretation": "MONOCHROME2",
      "PixelBandwidth": 2380.0,
      "PixelRepresentation": 0,
      "PixelSpacing": [2.0, 2.0],
      "ProtocolName": "bold_100x100_s3_2x2x2_static_156",
      "RepetitionTime": 2000.0,
      "Rows": 900,
      "SAR": 0.07296322133878,
      "SamplesPerPixel": 1,
      "ScanOptions": "FS",
      "ScanningSequence": "EP",
      "SequenceName": "*epfid2d1_100",
      "SequenceVariant": "SK",
      "SeriesDescription": "bold_100x100_s3_2x2x2_static_156",
      "SeriesNumber": 16,
      "SeriesTime": "153615.752000",
      "SliceLocation": -72.339275322693,
      "SliceThickness": 2.0,
      "SmallestImagePixelValue": 0,
      "SoftwareVersions": "syngo MR E11",
      "SpacingBetweenSlices": 2.0000000890733,
      "SpecificCharacterSet": "ISO_IR 100",
      "StudyID": "1",
      "StudyTime": "142154.468000",
      "TransmitCoilName": "Body",
      "VariableFlipAngleFlag": "N",
      "WindowCenterWidthExplanation": "Algo1",
      "dBdt": 0.0},
    "slices": {}
  },
  "time": {
    "samples": {
      "AcquisitionNumber": [1, 2, 3, 4, 5, 6, 7, 8, 9, 10, 11, 12, 13, 14, 15, 16, 17, 18, 19, 20, 21, 22, 23, 24, 25, 26, 27, 28, 29, 30, 31, 32, 33, 34, 35, 36, 37, 38, 39, 40, 41, 42, 43, 44, 45, 46, 47, 48, 49, 50, 51, 52, 53, 54, 55, 56, 57, 58, 59, 60, 61, 62, 63, 64, 65, 66, 67, 68, 69, 70, 71, 72, 73, 74, 75, 76, 77, 78, 79, 80, 81, 82, 83, 84, 85, 86, 87, 88, 89, 90, 91, 92, 93, 94, 95, 96, 97, 98, 99, 100, 101, 102, 103, 104, 105, 106, 107, 108, 109, 110, 111, 112, 113, 114, 115, 116, 117, 118, 119, 120, 121, 122, 123, 124, 125, 126, 127, 128, 129, 130, 131, 132, 133, 134, 135, 136, 137, 138, 139, 140, 141, 142, 143, 144, 145, 146, 147, 148, 149, 150, 151, 152, 153, 154, 155, 156],
      "AcquisitionTime": ["153612.680000", "153614.680000", "153616.680000", "153618.680000", "153620.680000", "153622.680000", "153624.680000", "153626.680000", "153628.680000", "153630.680000", "153632.680000", "153634.680000", "153636.680000", "153638.680000", "153640.680000", "153642.680000", "153644.680000", "153646.680000", "153648.680000", "153650.680000", "153652.680000", "153654.680000", "153656.680000", "153658.680000", "153700.680000", "153702.680000", "153704.680000", "153706.680000", "153708.680000", "153710.680000", "153712.680000", "153714.680000", "153716.680000", "153718.680000", "153720.680000", "153722.680000", "153724.680000", "153726.680000", "153728.680000", "153730.680000", "153732.680000", "153734.680000", "153736.680000", "153738.680000", "153740.680000", "153742.680000", "153744.680000", "153746.680000", "153748.680000", "153750.680000", "153752.680000", "153754.680000", "153756.680000", "153758.680000", "153800.680000", "153802.680000", "153804.680000", "153806.680000", "153808.680000", "153810.680000", "153812.680000", "153814.680000", "153816.680000", "153818.680000", "153820.680000", "153822.680000", "153824.680000", "153826.680000", "153828.680000", "153830.680000", "153832.680000", "153834.680000", "153836.680000", "153838.680000", "153840.680000", "153842.680000", "153844.680000", "153846.680000", "153848.680000", "153850.680000", "153852.680000", "153854.680000", "153856.680000", "153858.680000", "153900.680000", "153902.680000", "153904.680000", "153906.680000", "153908.680000", "153910.680000", "153912.680000", "153914.680000", "153916.680000", "153918.680000", "153920.680000", "153922.680000", "153924.680000", "153926.680000", "153928.680000", "153930.680000", "153932.680000", "153934.680000", "153936.680000", "153938.680000", "153940.680000", "153942.680000", "153944.680000", "153946.680000", "153948.680000", "153950.680000", "153952.680000", "153954.680000", "153956.680000", "153958.680000", "154000.680000", "154002.680000", "154004.680000", "154006.680000", "154008.680000", "154010.680000", "154012.680000", "154014.680000", "154016.680000", "154018.680000", "154020.680000", "154022.680000", "154024.680000", "154026.680000", "154028.680000", "154030.680000", "154032.680000", "154034.680000", "154036.680000", "154038.680000", "154040.680000", "154042.680000", "154044.680000", "154046.680000", "154048.680000", "154050.680000", "154052.680000", "154054.680000", "154056.680000", "154058.680000", "154100.680000", "154102.680000", "154104.680000", "154106.680000", "154108.680000", "154110.680000", "154112.680000", "154114.680000", "154116.680000", "154118.680000", "154120.680000", "154122.680000"],
      "ContentTime": ["153615.756000", "153616.753000", "153618.753000", "153620.753000", "153622.753000", "153624.753000", "153626.753000", "153628.753000", "153630.751000", "153632.751000", "153634.752000", "153636.753000", "153638.753000", "153640.753000", "153642.753000", "153644.752000", "153646.753000", "153648.752000", "153650.751000", "153652.752000", "153654.752000", "153656.752000", "153658.753000", "153700.752000", "153702.752000", "153704.752000", "153706.751000", "153708.753000", "153710.752000", "153712.753000", "153714.752000", "153716.752000", "153718.752000", "153720.752000", "153722.751000", "153724.751000", "153726.753000", "153728.753000", "153730.753000", "153732.753000", "153734.752000", "153736.753000", "153738.753000", "153740.752000", "153742.752000", "153744.753000", "153746.753000", "153748.753000", "153750.752000", "153752.752000", "153754.752000", "153756.752000", "153758.751000", "153800.752000", "153802.752000", "153804.752000", "153806.752000", "153808.752000", "153810.753000", "153812.752000", "153814.753000", "153816.752000", "153818.753000", "153820.752000", "153822.753000", "153824.753000", "153826.752000", "153828.753000", "153830.753000", "153832.752000", "153834.752000", "153836.753000", "153838.752000", "153840.753000", "153842.752000", "153844.753000", "153846.752000", "153848.753000", "153850.751000", "153852.752000", "153854.753000", "153856.753000", "153858.752000", "153900.753000", "153902.753000", "153904.752000", "153906.753000", "153908.752000", "153910.753000", "153912.753000", "153914.753000", "153916.753000", "153918.753000", "153920.753000", "153922.752000", "153924.752000", "153926.752000", "153928.752000", "153930.753000", "153932.753000", "153934.753000", "153936.753000", "153938.753000", "153940.753000", "153942.751000", "153944.751000", "153946.753000", "153948.752000", "153950.752000", "153952.753000", "153954.752000", "153956.752000", "153958.753000", "154000.752000", "154002.751000", "154004.753000", "154006.752000", "154008.752000", "154010.753000", "154012.753000", "154014.752000", "154016.753000", "154018.751000", "154020.753000", "154022.752000", "154024.753000", "154026.752000", "154028.753000", "154030.753000", "154032.753000", "154034.752000", "154036.751000", "154038.753000", "154040.752000", "154042.753000", "154044.752000", "154046.752000", "154048.753000", "154050.753000", "154052.752000", "154054.752000", "154056.752000", "154058.753000", "154100.753000", "154102.753000", "154104.753000", "154106.752000", "154108.753000", "154110.751000", "154112.751000", "154114.753000", "154116.752000", "154118.753000", "154120.752000", "154122.753000", "154124.404000"],
      "InstanceCreationTime": ["153615.756000", "153616.753000", "153618.753000", "153620.753000", "153622.753000", "153624.753000", "153626.753000", "153628.753000", "153630.751000", "153632.751000", "153634.752000", "153636.753000", "153638.753000", "153640.753000", "153642.753000", "153644.752000", "153646.753000", "153648.752000", "153650.751000", "153652.752000", "153654.752000", "153656.752000", "153658.753000", "153700.752000", "153702.752000", "153704.752000", "153706.751000", "153708.753000", "153710.752000", "153712.753000", "153714.752000", "153716.752000", "153718.752000", "153720.752000", "153722.751000", "153724.751000", "153726.753000", "153728.753000", "153730.753000", "153732.753000", "153734.752000", "153736.753000", "153738.753000", "153740.752000", "153742.752000", "153744.753000", "153746.753000", "153748.753000", "153750.752000", "153752.752000", "153754.752000", "153756.752000", "153758.751000", "153800.752000", "153802.752000", "153804.752000", "153806.752000", "153808.752000", "153810.753000", "153812.752000", "153814.753000", "153816.752000", "153818.753000", "153820.752000", "153822.753000", "153824.753000", "153826.752000", "153828.753000", "153830.753000", "153832.752000", "153834.752000", "153836.753000", "153838.752000", "153840.753000", "153842.752000", "153844.753000", "153846.752000", "153848.753000", "153850.751000", "153852.752000", "153854.753000", "153856.753000", "153858.752000", "153900.753000", "153902.753000", "153904.752000", "153906.753000", "153908.752000", "153910.753000", "153912.753000", "153914.753000", "153916.753000", "153918.753000", "153920.753000", "153922.752000", "153924.752000", "153926.752000", "153928.752000", "153930.753000", "153932.753000", "153934.753000", "153936.753000", "153938.753000", "153940.753000", "153942.751000", "153944.751000", "153946.753000", "153948.752000", "153950.752000", "153952.753000", "153954.752000", "153956.752000", "153958.753000", "154000.752000", "154002.751000", "154004.753000", "154006.752000", "154008.752000", "154010.753000", "154012.753000", "154014.752000", "154016.753000", "154018.751000", "154020.753000", "154022.752000", "154024.753000", "154026.752000", "154028.753000", "154030.753000", "154032.753000", "154034.752000", "154036.751000", "154038.753000", "154040.752000", "154042.753000", "154044.752000", "154046.752000", "154048.753000", "154050.753000", "154052.752000", "154054.752000", "154056.752000", "154058.753000", "154100.753000", "154102.753000", "154104.753000", "154106.752000", "154108.753000", "154110.751000", "154112.751000", "154114.753000", "154116.752000", "154118.753000", "154120.752000", "154122.753000", "154124.404000"],
      "InstanceNumber": [1, 2, 3, 4, 5, 6, 7, 8, 9, 10, 11, 12, 13, 14, 15, 16, 17, 18, 19, 20, 21, 22, 23, 24, 25, 26, 27, 28, 29, 30, 31, 32, 33, 34, 35, 36, 37, 38, 39, 40, 41, 42, 43, 44, 45, 46, 47, 48, 49, 50, 51, 52, 53, 54, 55, 56, 57, 58, 59, 60, 61, 62, 63, 64, 65, 66, 67, 68, 69, 70, 71, 72, 73, 74, 75, 76, 77, 78, 79, 80, 81, 82, 83, 84, 85, 86, 87, 88, 89, 90, 91, 92, 93, 94, 95, 96, 97, 98, 99, 100, 101, 102, 103, 104, 105, 106, 107, 108, 109, 110, 111, 112, 113, 114, 115, 116, 117, 118, 119, 120, 121, 122, 123, 124, 125, 126, 127, 128, 129, 130, 131, 132, 133, 134, 135, 136, 137, 138, 139, 140, 141, 142, 143, 144, 145, 146, 147, 148, 149, 150, 151, 152, 153, 154, 155, 156],
      "LargestImagePixelValue": [2430, 2341, 2365, 2427, 2371, 2373, 2339, 2376, 2352, 2508, 2325, 2369, 2370, 2343, 2370, 2377, 2365, 2363, 2379, 2371, 2374, 2372, 2388, 2427, 2391, 2372, 2379, 2380, 2365, 2362, 2360, 2402, 2366, 2368, 2365, 2421, 2378, 2378, 2372, 2382, 2376, 2375, 2389, 2365, 2360, 2362, 2385, 2363, 2387, 2381, 2363, 2372, 2386, 2379, 2366, 2369, 2351, 2371, 2356, 2355, 2345, 2358, 2378, 2363, 2378, 2368, 2350, 2357, 2333, 2354, 2358, 2635, 2358, 2364, 2359, 2361, 2365, 2364, 2327, 2361, 2347, 2357, 2357, 2367, 2390, 2457, 2367, 2348, 2363, 2382, 2378, 2373, 2377, 2377, 2361, 2367, 2414, 2372, 2392, 2425, 2370, 2400, 2364, 2393, 2373, 2408, 2420, 2385, 2410, 2386, 2395, 2393, 2404, 2381, 2364, 2380, 2385, 2383, 2397, 2373, 2375, 2364, 2367, 2387, 2384, 2375, 2373, 2396, 2399, 2392, 2390, 2381, 2387, 2375, 2372, 2376, 2397, 2368, 2393, 2387, 2390, 2378, 2378, 2389, 2399, 2377, 2393, 2384, 2408, 2373, 2374, 2351, 2360, 2386, 2358, 2356],
      "WindowCenter": [708.0, 705.0, 705.0, 707.0, 706.0, 705.0, 704.0, 705.0, 705.0, 707.0, 704.0, 704.0, 704.0, 704.0, 705.0, 705.0, 704.0, 704.0, 704.0, 704.0, 704.0, 704.0, 705.0, 706.0, 706.0, 705.0, 704.0, 704.0, 704.0, 704.0, 704.0, 704.0, 703.0, 703.0, 703.0, 705.0, 705.0, 704.0, 704.0, 704.0, 703.0, 704.0, 705.0, 705.0, 705.0, 704.0, 703.0, 703.0, 703.0, 704.0, 704.0, 705.0, 705.0, 705.0, 704.0, 703.0, 703.0, 704.0, 703.0, 703.0, 704.0, 704.0, 705.0, 705.0, 704.0, 705.0, 705.0, 704.0, 703.0, 704.0, 704.0, 709.0, 705.0, 705.0, 705.0, 705.0, 705.0, 705.0, 703.0, 703.0, 703.0, 704.0, 705.0, 705.0, 706.0, 707.0, 705.0, 705.0, 705.0, 705.0, 704.0, 703.0, 704.0, 704.0, 705.0, 706.0, 708.0, 706.0, 706.0, 707.0, 706.0, 706.0, 705.0, 705.0, 705.0, 705.0, 705.0, 704.0, 705.0, 705.0, 706.0, 706.0, 707.0, 706.0, 705.0, 704.0, 704.0, 705.0, 706.0, 705.0, 705.0, 705.0, 706.0, 708.0, 707.0, 706.0, 705.0, 705.0, 706.0, 705.0, 705.0, 705.0, 705.0, 705.0, 704.0, 704.0, 704.0, 704.0, 705.0, 705.0, 706.0, 706.0, 706.0, 706.0, 706.0, 706.0, 706.0, 705.0, 705.0, 705.0, 704.0, 703.0, 704.0, 704.0, 704.0, 704.0],
      "WindowWidth": [1498.0, 1490.0, 1491.0, 1494.0, 1492.0, 1490.0, 1488.0, 1489.0, 1489.0, 1494.0, 1489.0, 1489.0, 1489.0, 1488.0, 1490.0, 1490.0, 1489.0, 1488.0, 1488.0, 1488.0, 1488.0, 1488.0, 1490.0, 1492.0, 1492.0, 1491.0, 1489.0, 1487.0, 1487.0, 1488.0, 1487.0, 1488.0, 1486.0, 1487.0, 1486.0, 1490.0, 1489.0, 1488.0, 1487.0, 1487.0, 1486.0, 1489.0, 1491.0, 1491.0, 1490.0, 1488.0, 1486.0, 1485.0, 1486.0, 1487.0, 1487.0, 1489.0, 1490.0, 1491.0, 1489.0, 1487.0, 1485.0, 1487.0, 1486.0, 1487.0, 1487.0, 1488.0, 1490.0, 1490.0, 1488.0, 1491.0, 1489.0, 1487.0, 1486.0, 1487.0, 1489.0, 1499.0, 1491.0, 1491.0, 1490.0, 1491.0, 1491.0, 1490.0, 1486.0, 1485.0, 1485.0, 1488.0, 1490.0, 1491.0, 1492.0, 1494.0, 1491.0, 1490.0, 1490.0, 1490.0, 1487.0, 1485.0, 1487.0, 1488.0, 1490.0, 1493.0, 1497.0, 1494.0, 1494.0, 1495.0, 1494.0, 1493.0, 1490.0, 1490.0, 1490.0, 1490.0, 1490.0, 1488.0, 1489.0, 1490.0, 1492.0, 1494.0, 1495.0, 1494.0, 1491.0, 1489.0, 1489.0, 1490.0, 1492.0, 1491.0, 1490.0, 1490.0, 1492.0, 1497.0, 1496.0, 1494.0, 1492.0, 1491.0, 1492.0, 1491.0, 1491.0, 1490.0, 1490.0, 1489.0, 1488.0, 1487.0, 1489.0, 1488.0, 1490.0, 1490.0, 1492.0, 1493.0, 1493.0, 1492.0, 1492.0, 1492.0, 1493.0, 1492.0, 1491.0, 1490.0, 1488.0, 1486.0, 1487.0, 1488.0, 1489.0, 1488.0]
    },
    "slices": {}
  }
}