{
  "AcquisitionMatrixPE": 100,
  "AcquisitionNumber": 1,
  "AcquisitionTime": "14:58:9.530000",
  "BandwidthPerPixelPhaseEncode": 18.519,
  "BaseResolution": 100,
  "BodyPartExamined": "BRAIN",
  "CoilCombinationMethod": "Sum of Squares",
  "ConsistencyInfo": "N4_VE11C_LATEST_20160120",
  "ConversionSoftware": "dcm2niix",
  "ConversionSoftwareVersion": "v1.0.20211006",
  "DerivedVendorReportedEchoSpacing": 0.000539986,
  "DeviceSerialNumber": "166078",
  "DwellTime": 2.1e-06,
  "EchoTime": 0.034,
  "EchoTrainLength": 100,
  "EffectiveEchoSpacing": 0.000539986,
  "FlipAngle": 90,
  "ImageOrientationPatientDICOM": [0.99956, 0.00397483, 0.0293988, 3.50823e-08, 0.990983, -0.133986],
  "ImageOrientationText": "Tra>Cor(-7.7)>Sag(1.7)",
  "ImageType": [
    "ORIGINAL",
    "PRIMARY",
    "M",
    "ND",
    "MOSAIC"
],
  "ImagingFrequency": 123.258,
  "InPlanePhaseEncodingDirectionDICOM": "COL",
  "InstitutionAddress": "Street StreetNo,Bei Jing,District,CN,ZIP",
  "InstitutionName": "BeiJing Normal University",
  "InstitutionalDepartmentName": "Department",
  "MRAcquisitionType": "2D",
  "MagneticFieldStrength": 3,
  "Manufacturer": "Siemens",
  "ManufacturersModelName": "Prisma",
  "Modality": "MR",
  "MultibandAccelerationFactor": 3,
  "PartialFourier": 1,
  "PatientPosition": "HFS",
  "PercentPhaseFOV": 100,
  "PercentSampling": 100,
  "PhaseEncodingDirection": "j-",
  "PhaseEncodingSteps": 100,
  "PhaseResolution": 1,
  "PixelBandwidth": 2380,
  "ProcedureStepDescription": "BNU_P2018_64CH^Zhen.ZongLei",
  "ProtocolName": "bold_100x100_s3_2x2x2_static_156",
  "PulseSequenceDetails": "%SiemensSeq%\\ep2d_bold",
  "ReceiveCoilActiveElements": "HC1-7;NC1",
  "ReceiveCoilName": "HeadNeck_64",
  "ReconMatrixPE": 100,
  "RefLinesPE": 32,
  "RepetitionTime": 2,
  "SAR": 0.0729632,
  "ScanOptions": "FS",
  "ScanningSequence": "EP",
  "SequenceName": "*epfid2d1_100",
  "SequenceVariant": "SK",
  "SeriesDescription": "bold_100x100_s3_2x2x2_static_156",
  "SeriesNumber": 8,
  "ShimSetting": [-5454, -11514, -1271, 412, -53, -231, -17, 15],
  "SliceThickness": 2,
  "SliceTiming": [1.485, 0, 0.99, 0.0825, 1.0725, 0.165, 1.155, 0.2475, 1.2375, 0.33, 1.32, 0.4125, 1.4025, 0.5775, 1.5675, 0.66, 1.65, 0.7425, 1.7325, 0.825, 1.815, 0.9075, 1.8975, 0.495, 1.485, 0, 0.99, 0.0825, 1.0725, 0.165, 1.155, 0.2475, 1.2375, 0.33, 1.32, 0.4125, 1.4025, 0.5775, 1.5675, 0.66, 1.65, 0.7425, 1.7325, 0.825, 1.815, 0.9075, 1.8975, 0.495, 1.485, 0, 0.99, 0.0825, 1.0725, 0.165, 1.155, 0.2475, 1.2375, 0.33, 1.32, 0.4125, 1.4025, 0.5775, 1.5675, 0.66, 1.65, 0.7425, 1.7325, 0.825, 1.815, 0.9075, 1.8975, 0.495],
  "SoftwareVersions": "syngo MR E11",
  "SpacingBetweenSlices": 2,
  "StationName": "AWP166078",
  "TaskName": "action",
  "TotalReadoutTime": 0.0534586,
  "TxRefAmp": 219.297,
  "dcmmeta_affine": [
    [-1.999119758605957, 7.016463854370159e-08, 0.05933248996734619, 97.84967803955078],
    [-0.007949664257466793, 1.9819663763046265, -0.2678544223308563, -77.21003723144531],
    [0.05879750847816467, 0.26797235012054443, 1.9810941219329834, -86.39936065673828],
    [0.0, 0.0, 0.0, 1.0]
],
  "dcmmeta_reorient_transform": [
    [0.0, -1.0, 0.0, 99.0],
    [1.0, 0.0, 0.0, 0.0],
    [0.0, 0.0, 1.0, 0.0],
    [0.0, 0.0, 0.0, 1.0]
],
  "dcmmeta_shape": [100, 100, 72, 156],
  "dcmmeta_slice_dim": 2,
  "dcmmeta_version": 0.6,
  "global": {
    "const": {
      "AcquisitionMatrix": [100, 0, 0, 100],
      "AngioFlag": "N",
      "BitsAllocated": 16,
      "BitsStored": 12,
      "BodyPartExamined": "BRAIN",
      "Columns": 900,
      "EchoNumbers": 1,
      "EchoTime": 34.0,
      "EchoTrainLength": 100,
      "FlipAngle": 90.0,
      "HighBit": 11,
      "ImageOrientationPatient": [0.99955986011195, 0.00397483206519, 0.02939875444708, 3.5082318e-08, 0.99098320016309, -0.1339861821029],
      "ImagePositionPatient": [-897.49760245981, -914.97106193697, 23.799842727195],
      "ImageType": [
        "ORIGINAL",
        "PRIMARY",
        "M",
        "ND",
        "MOSAIC"
],
      "ImagedNucleus": "1H",
      "ImagingFrequency": 123.257744,
      "InPlanePhaseEncodingDirection": "COL",
      "MRAcquisitionType": "2D",
      "MagneticFieldStrength": 3.0,
      "Manufacturer": "SIEMENS",
      "ManufacturerModelName": "Prisma",
      "Modality": "MR",
      "NumberOfAverages": 1.0,
      "NumberOfPhaseEncodingSteps": 100,
      "PercentPhaseFieldOfView": 100.0,
      "PercentSampling": 100.0,
      "PerformedProcedureStepStartTime": "142154.535000",
      "PhotometricInterpretation": "MONOCHROME2",
      "PixelBandwidth": 2380.0,
      "PixelRepresentation": 0,
      "PixelSpacing": [2.0, 2.0],
      "ProtocolName": "bold_100x100_s3_2x2x2_static_156",
      "RepetitionTime": 2000.0,
      "Rows": 900,
      "SAR": 0.07296322133878,
      "SamplesPerPixel": 1,
      "ScanOptions": "FS",
      "ScanningSequence": "EP",
      "SequenceName": "*epfid2d1_100",
      "SequenceVariant": "SK",
      "SeriesDescription": "bold_100x100_s3_2x2x2_static_156",
      "SeriesNumber": 8,
      "SeriesTime": "145812.388000",
      "SliceLocation": -72.339275322693,
      "SliceThickness": 2.0,
      "SmallestImagePixelValue": 0,
      "SoftwareVersions": "syngo MR E11",
      "SpacingBetweenSlices": 2.0000000890733,
      "SpecificCharacterSet": "ISO_IR 100",
      "StudyID": "1",
      "StudyTime": "142154.468000",
      "TransmitCoilName": "Body",
      "VariableFlipAngleFlag": "N",
      "WindowCenterWidthExplanation": "Algo1",
      "dBdt": 0.0},
    "slices": {}
  },
  "time": {
    "samples": {
      "AcquisitionNumber": [1, 2, 3, 4, 5, 6, 7, 8, 9, 10, 11, 12, 13, 14, 15, 16, 17, 18, 19, 20, 21, 22, 23, 24, 25, 26, 27, 28, 29, 30, 31, 32, 33, 34, 35, 36, 37, 38, 39, 40, 41, 42, 43, 44, 45, 46, 47, 48, 49, 50, 51, 52, 53, 54, 55, 56, 57, 58, 59, 60, 61, 62, 63, 64, 65, 66, 67, 68, 69, 70, 71, 72, 73, 74, 75, 76, 77, 78, 79, 80, 81, 82, 83, 84, 85, 86, 87, 88, 89, 90, 91, 92, 93, 94, 95, 96, 97, 98, 99, 100, 101, 102, 103, 104, 105, 106, 107, 108, 109, 110, 111, 112, 113, 114, 115, 116, 117, 118, 119, 120, 121, 122, 123, 124, 125, 126, 127, 128, 129, 130, 131, 132, 133, 134, 135, 136, 137, 138, 139, 140, 141, 142, 143, 144, 145, 146, 147, 148, 149, 150, 151, 152, 153, 154, 155, 156],
      "AcquisitionTime": ["145809.530000", "145811.530000", "145813.530000", "145815.530000", "145817.530000", "145819.530000", "145821.530000", "145823.530000", "145825.530000", "145827.530000", "145829.530000", "145831.530000", "145833.530000", "145835.530000", "145837.530000", "145839.530000", "145841.530000", "145843.530000", "145845.530000", "145847.530000", "145849.530000", "145851.530000", "145853.530000", "145855.530000", "145857.530000", "145859.530000", "145901.530000", "145903.530000", "145905.530000", "145907.530000", "145909.530000", "145911.530000", "145913.530000", "145915.530000", "145917.530000", "145919.530000", "145921.530000", "145923.530000", "145925.530000", "145927.530000", "145929.530000", "145931.530000", "145933.530000", "145935.530000", "145937.530000", "145939.530000", "145941.530000", "145943.530000", "145945.530000", "145947.530000", "145949.530000", "145951.530000", "145953.530000", "145955.530000", "145957.530000", "145959.530000", "150001.530000", "150003.530000", "150005.530000", "150007.530000", "150009.530000", "150011.530000", "150013.530000", "150015.530000", "150017.530000", "150019.530000", "150021.530000", "150023.530000", "150025.530000", "150027.530000", "150029.530000", "150031.530000", "150033.530000", "150035.530000", "150037.530000", "150039.530000", "150041.530000", "150043.530000", "150045.530000", "150047.530000", "150049.530000", "150051.530000", "150053.530000", "150055.530000", "150057.530000", "150059.530000", "150101.530000", "150103.530000", "150105.530000", "150107.530000", "150109.530000", "150111.530000", "150113.530000", "150115.530000", "150117.530000", "150119.530000", "150121.530000", "150123.530000", "150125.530000", "150127.530000", "150129.530000", "150131.530000", "150133.530000", "150135.530000", "150137.530000", "150139.530000", "150141.530000", "150143.530000", "150145.530000", "150147.530000", "150149.530000", "150151.530000", "150153.530000", "150155.530000", "150157.530000", "150159.530000", "150201.530000", "150203.530000", "150205.530000", "150207.530000", "150209.530000", "150211.530000", "150213.530000", "150215.530000", "150217.530000", "150219.530000", "150221.530000", "150223.530000", "150225.530000", "150227.530000", "150229.530000", "150231.530000", "150233.530000", "150235.530000", "150237.530000", "150239.530000", "150241.530000", "150243.530000", "150245.530000", "150247.530000", "150249.530000", "150251.530000", "150253.530000", "150255.530000", "150257.530000", "150259.530000", "150301.530000", "150303.530000", "150305.530000", "150307.530000", "150309.530000", "150311.530000", "150313.530000", "150315.530000", "150317.530000", "150319.530000"],
      "ContentTime": ["145812.392000", "145813.888000", "145815.388000", "145817.888000", "145819.888000", "145821.888000", "145823.889000", "145825.389000", "145827.387000", "145829.887000", "145831.387000", "145833.388000", "145835.887000", "145837.387000", "145839.887000", "145841.388000", "145843.889000", "145845.387000", "145847.388000", "145849.888000", "145851.887000", "145853.888000", "145855.888000", "145857.387000", "145859.889000", "145901.888000", "145903.888000", "145905.887000", "145907.888000", "145909.388000", "145911.387000", "145913.387000", "145915.889000", "145917.888000", "145919.887000", "145921.887000", "145923.888000", "145925.887000", "145927.388000", "145929.387000", "145931.887000", "145933.888000", "145935.888000", "145937.387000", "145939.887000", "145941.888000", "145943.887000", "145945.888000", "145947.887000", "145949.888000", "145951.388000", "145953.889000", "145955.887000", "145957.888000", "145959.888000", "150001.888000", "150003.388000", "150005.887000", "150007.888000", "150009.388000", "150011.388000", "150013.387000", "150015.887000", "150017.388000", "150019.888000", "150021.887000", "150023.387000", "150025.888000", "150027.389000", "150029.888000", "150031.387000", "150033.888000", "150035.888000", "150037.888000", "150039.388000", "150041.888000", "150043.889000", "150045.888000", "150047.387000", "150049.888000", "150051.388000", "150053.888000", "150055.888000", "150057.887000", "150059.888000", "150101.388000", "150103.888000", "150105.887000", "150107.887000", "150109.387000", "150111.887000", "150113.887000", "150115.887000", "150117.889000", "150119.889000", "150121.888000", "150123.888000", "150125.887000", "150127.387000", "150129.387000", "150131.887000", "150133.888000", "150135.889000", "150137.388000", "150139.887000", "150141.887000", "150143.888000", "150145.888000", "150147.888000", "150149.888000", "150151.387000", "150153.888000", "150155.888000", "150157.887000", "150159.887000", "150201.887000", "150203.887000", "150205.888000", "150207.888000", "150209.388000", "150211.889000", "150213.888000", "150215.387000", "150217.888000", "150219.888000", "150221.888000", "150223.387000", "150225.888000", "150227.889000", "150229.388000", "150231.889000", "150233.387000", "150235.388000", "150237.888000", "150239.887000", "150241.888000", "150243.887000", "150245.389000", "150247.889000", "150249.389000", "150251.888000", "150253.388000", "150255.887000", "150257.888000", "150259.887000", "150301.887000", "150303.888000", "150305.889000", "150307.888000", "150309.388000", "150311.887000", "150313.887000", "150315.388000", "150317.887000", "150319.387000", "150321.523000"],
      "InstanceCreationTime": ["145812.392000", "145813.888000", "145815.388000", "145817.888000", "145819.888000", "145821.888000", "145823.889000", "145825.389000", "145827.387000", "145829.887000", "145831.387000", "145833.388000", "145835.887000", "145837.387000", "145839.887000", "145841.388000", "145843.889000", "145845.387000", "145847.388000", "145849.888000", "145851.887000", "145853.888000", "145855.888000", "145857.387000", "145859.889000", "145901.888000", "145903.888000", "145905.887000", "145907.888000", "145909.388000", "145911.387000", "145913.387000", "145915.889000", "145917.888000", "145919.887000", "145921.887000", "145923.888000", "145925.887000", "145927.388000", "145929.387000", "145931.887000", "145933.888000", "145935.888000", "145937.387000", "145939.887000", "145941.888000", "145943.887000", "145945.888000", "145947.887000", "145949.888000", "145951.388000", "145953.889000", "145955.887000", "145957.888000", "145959.888000", "150001.888000", "150003.388000", "150005.887000", "150007.888000", "150009.388000", "150011.388000", "150013.387000", "150015.887000", "150017.388000", "150019.888000", "150021.887000", "150023.387000", "150025.888000", "150027.389000", "150029.888000", "150031.387000", "150033.888000", "150035.888000", "150037.888000", "150039.388000", "150041.888000", "150043.889000", "150045.888000", "150047.387000", "150049.888000", "150051.388000", "150053.888000", "150055.888000", "150057.887000", "150059.888000", "150101.388000", "150103.888000", "150105.887000", "150107.887000", "150109.387000", "150111.887000", "150113.887000", "150115.887000", "150117.889000", "150119.889000", "150121.888000", "150123.888000", "150125.887000", "150127.387000", "150129.387000", "150131.887000", "150133.888000", "150135.889000", "150137.388000", "150139.887000", "150141.887000", "150143.888000", "150145.888000", "150147.888000", "150149.888000", "150151.387000", "150153.888000", "150155.888000", "150157.887000", "150159.887000", "150201.887000", "150203.887000", "150205.888000", "150207.888000", "150209.388000", "150211.889000", "150213.888000", "150215.387000", "150217.888000", "150219.888000", "150221.888000", "150223.387000", "150225.888000", "150227.889000", "150229.388000", "150231.889000", "150233.387000", "150235.388000", "150237.888000", "150239.887000", "150241.888000", "150243.887000", "150245.389000", "150247.889000", "150249.389000", "150251.888000", "150253.388000", "150255.887000", "150257.888000", "150259.887000", "150301.887000", "150303.888000", "150305.889000", "150307.888000", "150309.388000", "150311.887000", "150313.887000", "150315.388000", "150317.887000", "150319.387000", "150321.523000"],
      "InstanceNumber": [1, 2, 3, 4, 5, 6, 7, 8, 9, 10, 11, 12, 13, 14, 15, 16, 17, 18, 19, 20, 21, 22, 23, 24, 25, 26, 27, 28, 29, 30, 31, 32, 33, 34, 35, 36, 37, 38, 39, 40, 41, 42, 43, 44, 45, 46, 47, 48, 49, 50, 51, 52, 53, 54, 55, 56, 57, 58, 59, 60, 61, 62, 63, 64, 65, 66, 67, 68, 69, 70, 71, 72, 73, 74, 75, 76, 77, 78, 79, 80, 81, 82, 83, 84, 85, 86, 87, 88, 89, 90, 91, 92, 93, 94, 95, 96, 97, 98, 99, 100, 101, 102, 103, 104, 105, 106, 107, 108, 109, 110, 111, 112, 113, 114, 115, 116, 117, 118, 119, 120, 121, 122, 123, 124, 125, 126, 127, 128, 129, 130, 131, 132, 133, 134, 135, 136, 137, 138, 139, 140, 141, 142, 143, 144, 145, 146, 147, 148, 149, 150, 151, 152, 153, 154, 155, 156],
      "LargestImagePixelValue": [2321, 2283, 2391, 2332, 2303, 2315, 2278, 2413, 2453, 2405, 2308, 2412, 2288, 2363, 2400, 2294, 2331, 2367, 2283, 2298, 2305, 2346, 2365, 2306, 2330, 2298, 2324, 2321, 2313, 2339, 2317, 2461, 2297, 2295, 2295, 2309, 2295, 2298, 2289, 2299, 2309, 2293, 2317, 2324, 2303, 2357, 2304, 2323, 2323, 2298, 2422, 2312, 2287, 2311, 2307, 2322, 2300, 2308, 2323, 2300, 2327, 2319, 2349, 2323, 2334, 2336, 2331, 2486, 2319, 2317, 2300, 2341, 2348, 2321, 2313, 2326, 2303, 2330, 2299, 2333, 2324, 2304, 2333, 2307, 2341, 2365, 2332, 2329, 2332, 2344, 2389, 2448, 2293, 2319, 2311, 2391, 2296, 2325, 2304, 2309, 2312, 2312, 2292, 2398, 2304, 2373, 2321, 2308, 2288, 2300, 2311, 2325, 2324, 2318, 2317, 2357, 2360, 2288, 2326, 2298, 2276, 2298, 2295, 2638, 2325, 2307, 2297, 2414, 2326, 2300, 2309, 2304, 2292, 2321, 2308, 2329, 2364, 2321, 2332, 2347, 2352, 2295, 2305, 2298, 2315, 2295, 2324, 2295, 2300, 2338, 2287, 2437, 2296, 2305, 2350, 2299],
      "WindowCenter": [709.0, 707.0, 708.0, 707.0, 706.0, 707.0, 706.0, 709.0, 710.0, 709.0, 707.0, 709.0, 706.0, 707.0, 707.0, 706.0, 707.0, 707.0, 705.0, 705.0, 705.0, 706.0, 706.0, 706.0, 707.0, 706.0, 706.0, 706.0, 706.0, 706.0, 706.0, 708.0, 705.0, 705.0, 705.0, 705.0, 705.0, 705.0, 705.0, 705.0, 705.0, 705.0, 706.0, 705.0, 705.0, 706.0, 705.0, 705.0, 705.0, 705.0, 706.0, 705.0, 704.0, 705.0, 705.0, 705.0, 704.0, 706.0, 706.0, 705.0, 706.0, 706.0, 707.0, 706.0, 706.0, 706.0, 706.0, 707.0, 704.0, 704.0, 704.0, 705.0, 706.0, 705.0, 705.0, 705.0, 704.0, 706.0, 705.0, 706.0, 706.0, 706.0, 706.0, 705.0, 706.0, 707.0, 706.0, 706.0, 706.0, 705.0, 706.0, 707.0, 704.0, 705.0, 705.0, 706.0, 704.0, 705.0, 705.0, 704.0, 705.0, 706.0, 705.0, 707.0, 705.0, 706.0, 704.0, 704.0, 703.0, 703.0, 703.0, 705.0, 706.0, 706.0, 706.0, 706.0, 705.0, 705.0, 705.0, 705.0, 705.0, 705.0, 706.0, 710.0, 706.0, 705.0, 704.0, 706.0, 705.0, 705.0, 705.0, 705.0, 705.0, 706.0, 706.0, 707.0, 708.0, 707.0, 707.0, 707.0, 707.0, 706.0, 706.0, 705.0, 706.0, 706.0, 706.0, 706.0, 706.0, 707.0, 706.0, 708.0, 705.0, 705.0, 706.0, 705.0],
      "WindowWidth": [1501.0, 1495.0, 1496.0, 1494.0, 1493.0, 1494.0, 1494.0, 1500.0, 1501.0, 1500.0, 1496.0, 1499.0, 1494.0, 1496.0, 1496.0, 1493.0, 1495.0, 1495.0, 1492.0, 1491.0, 1490.0, 1492.0, 1494.0, 1494.0, 1495.0, 1493.0, 1493.0, 1493.0, 1493.0, 1494.0, 1494.0, 1496.0, 1490.0, 1490.0, 1490.0, 1490.0, 1490.0, 1491.0, 1490.0, 1492.0, 1492.0, 1492.0, 1492.0, 1492.0, 1491.0, 1492.0, 1490.0, 1492.0, 1492.0, 1491.0, 1493.0, 1489.0, 1488.0, 1490.0, 1490.0, 1490.0, 1490.0, 1492.0, 1494.0, 1492.0, 1494.0, 1495.0, 1495.0, 1494.0, 1494.0, 1494.0, 1492.0, 1493.0, 1487.0, 1488.0, 1488.0, 1491.0, 1492.0, 1491.0, 1491.0, 1490.0, 1489.0, 1492.0, 1492.0, 1494.0, 1494.0, 1494.0, 1494.0, 1492.0, 1494.0, 1496.0, 1494.0, 1493.0, 1493.0, 1492.0, 1492.0, 1494.0, 1489.0, 1491.0, 1491.0, 1494.0, 1489.0, 1491.0, 1491.0, 1489.0, 1491.0, 1494.0, 1492.0, 1495.0, 1492.0, 1493.0, 1490.0, 1488.0, 1487.0, 1486.0, 1487.0, 1490.0, 1494.0, 1494.0, 1493.0, 1492.0, 1491.0, 1490.0, 1491.0, 1492.0, 1491.0, 1491.0, 1493.0, 1501.0, 1492.0, 1490.0, 1489.0, 1493.0, 1490.0, 1490.0, 1490.0, 1490.0, 1490.0, 1493.0, 1494.0, 1496.0, 1497.0, 1496.0, 1495.0, 1494.0, 1494.0, 1493.0, 1492.0, 1492.0, 1492.0, 1492.0, 1492.0, 1492.0, 1493.0, 1495.0, 1494.0, 1498.0, 1491.0, 1490.0, 1492.0, 1491.0]
    },
    "slices": {}
  }
}