{
  "AcquisitionMatrixPE": 100,
  "AcquisitionNumber": 1,
  "AcquisitionTime": "14:28:50.277500",
  "BandwidthPerPixelPhaseEncode": 18.519,
  "BaseResolution": 100,
  "BodyPartExamined": "BRAIN",
  "CoilCombinationMethod": "Sum of Squares",
  "ConsistencyInfo": "N4_VE11C_LATEST_20160120",
  "ConversionSoftware": "dcm2niix",
  "ConversionSoftwareVersion": "v1.0.20211006",
  "DerivedVendorReportedEchoSpacing": 0.000539986,
  "DeviceSerialNumber": "166078",
  "DwellTime": 2.1e-06,
  "EchoTime": 0.034,
  "EchoTrainLength": 100,
  "EffectiveEchoSpacing": 0.000539986,
  "FlipAngle": 90,
  "ImageOrientationPatientDICOM": [0.99956, 0.00397483, 0.0293988, 3.50823e-08, 0.990983, -0.133986],
  "ImageOrientationText": "Tra>Cor(-7.7)>Sag(1.7)",
  "ImageType": [
    "ORIGINAL",
    "PRIMARY",
    "M",
    "ND",
    "MOSAIC"
],
  "ImagingFrequency": 123.258,
  "InPlanePhaseEncodingDirectionDICOM": "COL",
  "InstitutionAddress": "Street StreetNo,Bei Jing,District,CN,ZIP",
  "InstitutionName": "BeiJing Normal University",
  "InstitutionalDepartmentName": "Department",
  "MRAcquisitionType": "2D",
  "MagneticFieldStrength": 3,
  "Manufacturer": "Siemens",
  "ManufacturersModelName": "Prisma",
  "Modality": "MR",
  "MultibandAccelerationFactor": 3,
  "PartialFourier": 1,
  "PatientPosition": "HFS",
  "PercentPhaseFOV": 100,
  "PercentSampling": 100,
  "PhaseEncodingDirection": "j-",
  "PhaseEncodingSteps": 100,
  "PhaseResolution": 1,
  "PixelBandwidth": 2380,
  "ProcedureStepDescription": "BNU_P2018_64CH^Zhen.ZongLei",
  "ProtocolName": "bold_100x100_s3_2x2x2_static_156",
  "PulseSequenceDetails": "%SiemensSeq%\\ep2d_bold",
  "ReceiveCoilActiveElements": "HC1-7;NC1",
  "ReceiveCoilName": "HeadNeck_64",
  "ReconMatrixPE": 100,
  "RefLinesPE": 32,
  "RepetitionTime": 2,
  "SAR": 0.0729632,
  "ScanOptions": "FS",
  "ScanningSequence": "EP",
  "SequenceName": "*epfid2d1_100",
  "SequenceVariant": "SK",
  "SeriesDescription": "bold_100x100_s3_2x2x2_static_156",
  "SeriesNumber": 3,
  "ShimSetting": [-5454, -11514, -1271, 412, -53, -231, -17, 15],
  "SliceThickness": 2,
  "SliceTiming": [1.485, 0, 0.99, 0.0825, 1.0725, 0.165, 1.155, 0.2475, 1.2375, 0.33, 1.32, 0.4125, 1.4025, 0.5775, 1.5675, 0.66, 1.65, 0.7425, 1.7325, 0.825, 1.815, 0.9075, 1.8975, 0.495, 1.485, 0, 0.99, 0.0825, 1.0725, 0.165, 1.155, 0.2475, 1.2375, 0.33, 1.32, 0.4125, 1.4025, 0.5775, 1.5675, 0.66, 1.65, 0.7425, 1.7325, 0.825, 1.815, 0.9075, 1.8975, 0.495, 1.485, 0, 0.99, 0.0825, 1.0725, 0.165, 1.155, 0.2475, 1.2375, 0.33, 1.32, 0.4125, 1.4025, 0.5775, 1.5675, 0.66, 1.65, 0.7425, 1.7325, 0.825, 1.815, 0.9075, 1.8975, 0.495],
  "SoftwareVersions": "syngo MR E11",
  "SpacingBetweenSlices": 2,
  "StationName": "AWP166078",
  "TaskName": "action",
  "TotalReadoutTime": 0.0534586,
  "TxRefAmp": 219.297,
  "dcmmeta_affine": [
    [-1.999119758605957, 7.016463854370159e-08, 0.05933248996734619, 97.84967803955078],
    [-0.007949664257466793, 1.9819663763046265, -0.2678544223308563, -77.21003723144531],
    [0.05879750847816467, 0.26797235012054443, 1.9810941219329834, -86.39936065673828],
    [0.0, 0.0, 0.0, 1.0]
],
  "dcmmeta_reorient_transform": [
    [0.0, -1.0, 0.0, 99.0],
    [1.0, 0.0, 0.0, 0.0],
    [0.0, 0.0, 1.0, 0.0],
    [0.0, 0.0, 0.0, 1.0]
],
  "dcmmeta_shape": [100, 100, 72, 156],
  "dcmmeta_slice_dim": 2,
  "dcmmeta_version": 0.6,
  "global": {
    "const": {
      "AcquisitionMatrix": [100, 0, 0, 100],
      "AngioFlag": "N",
      "BitsAllocated": 16,
      "BitsStored": 12,
      "BodyPartExamined": "BRAIN",
      "Columns": 900,
      "EchoNumbers": 1,
      "EchoTime": 34.0,
      "EchoTrainLength": 100,
      "FlipAngle": 90.0,
      "HighBit": 11,
      "ImageOrientationPatient": [0.99955986011195, 0.00397483206519, 0.02939875444708, 3.5082318e-08, 0.99098320016309, -0.1339861821029],
      "ImagePositionPatient": [-897.49760245981, -914.97106193697, 23.799842727195],
      "ImageType": [
        "ORIGINAL",
        "PRIMARY",
        "M",
        "ND",
        "MOSAIC"
],
      "ImagedNucleus": "1H",
      "ImagingFrequency": 123.257728,
      "InPlanePhaseEncodingDirection": "COL",
      "MRAcquisitionType": "2D",
      "MagneticFieldStrength": 3.0,
      "Manufacturer": "SIEMENS",
      "ManufacturerModelName": "Prisma",
      "Modality": "MR",
      "NumberOfAverages": 1.0,
      "NumberOfPhaseEncodingSteps": 100,
      "PercentPhaseFieldOfView": 100.0,
      "PercentSampling": 100.0,
      "PerformedProcedureStepStartTime": "142154.535000",
      "PhotometricInterpretation": "MONOCHROME2",
      "PixelBandwidth": 2380.0,
      "PixelRepresentation": 0,
      "PixelSpacing": [2.0, 2.0],
      "ProtocolName": "bold_100x100_s3_2x2x2_static_156",
      "RepetitionTime": 2000.0,
      "Rows": 900,
      "SAR": 0.07296322133878,
      "SamplesPerPixel": 1,
      "ScanOptions": "FS",
      "ScanningSequence": "EP",
      "SequenceName": "*epfid2d1_100",
      "SequenceVariant": "SK",
      "SeriesDescription": "bold_100x100_s3_2x2x2_static_156",
      "SeriesNumber": 3,
      "SeriesTime": "142852.972000",
      "SliceLocation": -72.339275322693,
      "SliceThickness": 2.0,
      "SmallestImagePixelValue": 0,
      "SoftwareVersions": "syngo MR E11",
      "SpacingBetweenSlices": 2.0000000890733,
      "SpecificCharacterSet": "ISO_IR 100",
      "StudyID": "1",
      "StudyTime": "142154.468000",
      "TransmitCoilName": "Body",
      "VariableFlipAngleFlag": "N",
      "WindowCenterWidthExplanation": "Algo1",
      "dBdt": 0.0},
    "slices": {}
  },
  "time": {
    "samples": {
      "AcquisitionNumber": [1, 2, 3, 4, 5, 6, 7, 8, 9, 10, 11, 12, 13, 14, 15, 16, 17, 18, 19, 20, 21, 22, 23, 24, 25, 26, 27, 28, 29, 30, 31, 32, 33, 34, 35, 36, 37, 38, 39, 40, 41, 42, 43, 44, 45, 46, 47, 48, 49, 50, 51, 52, 53, 54, 55, 56, 57, 58, 59, 60, 61, 62, 63, 64, 65, 66, 67, 68, 69, 70, 71, 72, 73, 74, 75, 76, 77, 78, 79, 80, 81, 82, 83, 84, 85, 86, 87, 88, 89, 90, 91, 92, 93, 94, 95, 96, 97, 98, 99, 100, 101, 102, 103, 104, 105, 106, 107, 108, 109, 110, 111, 112, 113, 114, 115, 116, 117, 118, 119, 120, 121, 122, 123, 124, 125, 126, 127, 128, 129, 130, 131, 132, 133, 134, 135, 136, 137, 138, 139, 140, 141, 142, 143, 144, 145, 146, 147, 148, 149, 150, 151, 152, 153, 154, 155, 156],
      "AcquisitionTime": ["142850.277500", "142852.277500", "142854.277500", "142856.277500", "142858.277500", "142900.277500", "142902.277500", "142904.277500", "142906.277500", "142908.277500", "142910.277500", "142912.277500", "142914.277500", "142916.277500", "142918.277500", "142920.277500", "142922.277500", "142924.277500", "142926.277500", "142928.277500", "142930.277500", "142932.277500", "142934.277500", "142936.277500", "142938.277500", "142940.277500", "142942.277500", "142944.277500", "142946.277500", "142948.277500", "142950.277500", "142952.277500", "142954.277500", "142956.277500", "142958.277500", "143000.277500", "143002.277500", "143004.277500", "143006.277500", "143008.277500", "143010.277500", "143012.277500", "143014.277500", "143016.277500", "143018.277500", "143020.277500", "143022.277500", "143024.277500", "143026.277500", "143028.277500", "143030.277500", "143032.277500", "143034.277500", "143036.277500", "143038.277500", "143040.277500", "143042.277500", "143044.277500", "143046.277500", "143048.277500", "143050.277500", "143052.277500", "143054.277500", "143056.277500", "143058.277500", "143100.277500", "143102.277500", "143104.277500", "143106.277500", "143108.277500", "143110.277500", "143112.277500", "143114.277500", "143116.277500", "143118.277500", "143120.277500", "143122.277500", "143124.277500", "143126.277500", "143128.277500", "143130.277500", "143132.277500", "143134.277500", "143136.277500", "143138.277500", "143140.277500", "143142.277500", "143144.277500", "143146.277500", "143148.277500", "143150.277500", "143152.277500", "143154.277500", "143156.277500", "143158.277500", "143200.277500", "143202.277500", "143204.277500", "143206.277500", "143208.277500", "143210.277500", "143212.277500", "143214.277500", "143216.277500", "143218.277500", "143220.277500", "143222.277500", "143224.277500", "143226.277500", "143228.277500", "143230.277500", "143232.277500", "143234.277500", "143236.277500", "143238.277500", "143240.277500", "143242.277500", "143244.277500", "143246.277500", "143248.277500", "143250.277500", "143252.277500", "143254.277500", "143256.277500", "143258.277500", "143300.277500", "143302.277500", "143304.277500", "143306.277500", "143308.277500", "143310.277500", "143312.277500", "143314.277500", "143316.277500", "143318.277500", "143320.277500", "143322.277500", "143324.277500", "143326.277500", "143328.277500", "143330.277500", "143332.277500", "143334.277500", "143336.277500", "143338.277500", "143340.277500", "143342.277500", "143344.277500", "143346.277500", "143348.277500", "143350.277500", "143352.277500", "143354.277500", "143356.277500", "143358.277500", "143400.277500"],
      "ContentTime": ["142852.976000", "142854.455000", "142856.455000", "142858.457000", "142900.456000", "142902.456000", "142904.457000", "142906.457000", "142908.457000", "142910.457000", "142912.456000", "142914.455000", "142916.456000", "142918.456000", "142920.456000", "142922.456000", "142924.456000", "142926.457000", "142928.457000", "142930.456000", "142932.456000", "142934.457000", "142936.456000", "142938.457000", "142940.456000", "142942.457000", "142944.456000", "142946.456000", "142948.456000", "142950.456000", "142952.457000", "142954.457000", "142956.456000", "142958.456000", "143000.456000", "143002.456000", "143004.455000", "143006.455000", "143008.456000", "143010.456000", "143012.456000", "143014.457000", "143016.457000", "143018.457000", "143020.456000", "143022.456000", "143024.456000", "143026.457000", "143028.457000", "143030.457000", "143032.456000", "143034.457000", "143036.456000", "143038.457000", "143040.455000", "143042.456000", "143044.456000", "143046.457000", "143048.457000", "143050.456000", "143052.457000", "143054.456000", "143056.456000", "143058.455000", "143100.457000", "143102.456000", "143104.457000", "143106.456000", "143108.456000", "143110.457000", "143112.457000", "143114.456000", "143116.456000", "143118.457000", "143120.457000", "143122.457000", "143124.457000", "143126.456000", "143128.456000", "143130.456000", "143132.456000", "143134.456000", "143136.457000", "143138.456000", "143140.456000", "143142.456000", "143144.456000", "143146.456000", "143148.457000", "143150.455000", "143152.456000", "143154.456000", "143156.456000", "143158.457000", "143200.457000", "143202.456000", "143204.456000", "143206.456000", "143208.456000", "143210.457000", "143212.457000", "143214.456000", "143216.456000", "143218.457000", "143220.456000", "143222.457000", "143224.455000", "143226.456000", "143228.457000", "143230.457000", "143232.457000", "143234.456000", "143236.456000", "143238.457000", "143240.456000", "143242.455000", "143244.456000", "143246.456000", "143248.456000", "143250.456000", "143252.457000", "143254.456000", "143256.457000", "143258.456000", "143300.456000", "143302.456000", "143304.457000", "143306.456000", "143308.456000", "143310.457000", "143312.457000", "143314.457000", "143316.455000", "143318.456000", "143320.457000", "143322.456000", "143324.457000", "143326.457000", "143328.457000", "143330.457000", "143332.457000", "143334.456000", "143336.456000", "143338.456000", "143340.457000", "143342.456000", "143344.457000", "143346.456000", "143348.457000", "143350.457000", "143352.455000", "143354.457000", "143356.457000", "143358.456000", "143400.456000", "143402.187000"],
      "InstanceCreationTime": ["142852.976000", "142854.455000", "142856.455000", "142858.457000", "142900.456000", "142902.456000", "142904.457000", "142906.457000", "142908.457000", "142910.457000", "142912.456000", "142914.455000", "142916.456000", "142918.456000", "142920.456000", "142922.456000", "142924.456000", "142926.457000", "142928.457000", "142930.456000", "142932.456000", "142934.457000", "142936.456000", "142938.457000", "142940.456000", "142942.457000", "142944.456000", "142946.456000", "142948.456000", "142950.456000", "142952.457000", "142954.457000", "142956.456000", "142958.456000", "143000.456000", "143002.456000", "143004.455000", "143006.455000", "143008.456000", "143010.456000", "143012.456000", "143014.457000", "143016.457000", "143018.457000", "143020.456000", "143022.456000", "143024.456000", "143026.457000", "143028.457000", "143030.457000", "143032.456000", "143034.457000", "143036.456000", "143038.457000", "143040.455000", "143042.456000", "143044.456000", "143046.457000", "143048.457000", "143050.456000", "143052.457000", "143054.456000", "143056.456000", "143058.455000", "143100.457000", "143102.456000", "143104.457000", "143106.456000", "143108.456000", "143110.457000", "143112.457000", "143114.456000", "143116.456000", "143118.457000", "143120.457000", "143122.457000", "143124.457000", "143126.456000", "143128.456000", "143130.456000", "143132.456000", "143134.456000", "143136.457000", "143138.456000", "143140.456000", "143142.456000", "143144.456000", "143146.456000", "143148.457000", "143150.455000", "143152.456000", "143154.456000", "143156.456000", "143158.457000", "143200.457000", "143202.456000", "143204.456000", "143206.456000", "143208.456000", "143210.457000", "143212.457000", "143214.456000", "143216.456000", "143218.457000", "143220.456000", "143222.457000", "143224.455000", "143226.456000", "143228.457000", "143230.457000", "143232.457000", "143234.456000", "143236.456000", "143238.457000", "143240.456000", "143242.455000", "143244.456000", "143246.456000", "143248.456000", "143250.456000", "143252.457000", "143254.456000", "143256.457000", "143258.456000", "143300.456000", "143302.456000", "143304.457000", "143306.456000", "143308.456000", "143310.457000", "143312.457000", "143314.457000", "143316.455000", "143318.456000", "143320.457000", "143322.456000", "143324.457000", "143326.457000", "143328.457000", "143330.457000", "143332.457000", "143334.456000", "143336.456000", "143338.456000", "143340.457000", "143342.456000", "143344.457000", "143346.456000", "143348.457000", "143350.457000", "143352.455000", "143354.457000", "143356.457000", "143358.456000", "143400.456000", "143402.187000"],
      "InstanceNumber": [1, 2, 3, 4, 5, 6, 7, 8, 9, 10, 11, 12, 13, 14, 15, 16, 17, 18, 19, 20, 21, 22, 23, 24, 25, 26, 27, 28, 29, 30, 31, 32, 33, 34, 35, 36, 37, 38, 39, 40, 41, 42, 43, 44, 45, 46, 47, 48, 49, 50, 51, 52, 53, 54, 55, 56, 57, 58, 59, 60, 61, 62, 63, 64, 65, 66, 67, 68, 69, 70, 71, 72, 73, 74, 75, 76, 77, 78, 79, 80, 81, 82, 83, 84, 85, 86, 87, 88, 89, 90, 91, 92, 93, 94, 95, 96, 97, 98, 99, 100, 101, 102, 103, 104, 105, 106, 107, 108, 109, 110, 111, 112, 113, 114, 115, 116, 117, 118, 119, 120, 121, 122, 123, 124, 125, 126, 127, 128, 129, 130, 131, 132, 133, 134, 135, 136, 137, 138, 139, 140, 141, 142, 143, 144, 145, 146, 147, 148, 149, 150, 151, 152, 153, 154, 155, 156],
      "LargestImagePixelValue": [2349, 2285, 2312, 2257, 2300, 2259, 2292, 2266, 2289, 2329, 2283, 2283, 2277, 2376, 2312, 2313, 2341, 2438, 2328, 2375, 2307, 2372, 2379, 2271, 2294, 2319, 2295, 2322, 2320, 2312, 2307, 2300, 2283, 2292, 2286, 2368, 2305, 2337, 2330, 2290, 2299, 2307, 2291, 2259, 2277, 2258, 2346, 2284, 2343, 2302, 2365, 2351, 2295, 2321, 2309, 2292, 2314, 2268, 2287, 2278, 2274, 2271, 2267, 2386, 2263, 2337, 2277, 2297, 2301, 2275, 2318, 2270, 2301, 2303, 2281, 2326, 2296, 2301, 2275, 2276, 2276, 2306, 2296, 2276, 2265, 2308, 2262, 2363, 2278, 2355, 2264, 2372, 2251, 2347, 2294, 2312, 2270, 2303, 2374, 2245, 2282, 2298, 2245, 2248, 2241, 2254, 2267, 2230, 2262, 2225, 2286, 2238, 2255, 2286, 2240, 2290, 2237, 2263, 2236, 2235, 2233, 2241, 2274, 2248, 2262, 2313, 2291, 2261, 2256, 2236, 2252, 2233, 2237, 2254, 2235, 2252, 2246, 2246, 2277, 2227, 2256, 2250, 2309, 2260, 2279, 2263, 2255, 2254, 2261, 2281, 2256, 2257, 2261, 2237, 2264, 2289],
      "WindowCenter": [700.0, 698.0, 699.0, 699.0, 698.0, 697.0, 697.0, 695.0, 693.0, 694.0, 693.0, 693.0, 694.0, 697.0, 698.0, 700.0, 700.0, 703.0, 701.0, 701.0, 700.0, 701.0, 701.0, 699.0, 699.0, 699.0, 699.0, 699.0, 700.0, 699.0, 698.0, 698.0, 697.0, 699.0, 699.0, 700.0, 699.0, 700.0, 699.0, 698.0, 698.0, 698.0, 698.0, 697.0, 697.0, 698.0, 700.0, 700.0, 700.0, 700.0, 701.0, 701.0, 699.0, 699.0, 698.0, 698.0, 699.0, 698.0, 698.0, 698.0, 698.0, 698.0, 698.0, 700.0, 698.0, 700.0, 699.0, 699.0, 699.0, 698.0, 699.0, 699.0, 698.0, 698.0, 698.0, 699.0, 699.0, 699.0, 698.0, 697.0, 698.0, 698.0, 698.0, 698.0, 698.0, 699.0, 698.0, 700.0, 699.0, 700.0, 699.0, 701.0, 699.0, 700.0, 699.0, 700.0, 699.0, 699.0, 701.0, 698.0, 699.0, 699.0, 697.0, 697.0, 696.0, 697.0, 698.0, 698.0, 698.0, 697.0, 698.0, 698.0, 698.0, 699.0, 697.0, 698.0, 698.0, 698.0, 697.0, 697.0, 697.0, 698.0, 699.0, 698.0, 698.0, 699.0, 698.0, 697.0, 697.0, 697.0, 697.0, 697.0, 697.0, 697.0, 697.0, 698.0, 698.0, 698.0, 698.0, 697.0, 697.0, 698.0, 699.0, 698.0, 698.0, 698.0, 698.0, 698.0, 698.0, 698.0, 697.0, 697.0, 698.0, 697.0, 697.0, 698.0],
      "WindowWidth": [1480.0, 1474.0, 1475.0, 1476.0, 1473.0, 1471.0, 1471.0, 1466.0, 1463.0, 1464.0, 1463.0, 1463.0, 1465.0, 1472.0, 1475.0, 1478.0, 1480.0, 1485.0, 1481.0, 1482.0, 1479.0, 1482.0, 1481.0, 1477.0, 1477.0, 1477.0, 1476.0, 1478.0, 1478.0, 1478.0, 1475.0, 1474.0, 1473.0, 1476.0, 1477.0, 1480.0, 1477.0, 1478.0, 1477.0, 1475.0, 1475.0, 1475.0, 1474.0, 1472.0, 1473.0, 1475.0, 1480.0, 1479.0, 1480.0, 1480.0, 1482.0, 1481.0, 1477.0, 1477.0, 1475.0, 1475.0, 1476.0, 1474.0, 1473.0, 1473.0, 1474.0, 1474.0, 1474.0, 1479.0, 1475.0, 1479.0, 1477.0, 1476.0, 1476.0, 1476.0, 1477.0, 1476.0, 1474.0, 1475.0, 1475.0, 1478.0, 1477.0, 1478.0, 1475.0, 1473.0, 1473.0, 1474.0, 1474.0, 1474.0, 1475.0, 1476.0, 1475.0, 1479.0, 1476.0, 1480.0, 1478.0, 1482.0, 1478.0, 1480.0, 1478.0, 1479.0, 1476.0, 1478.0, 1480.0, 1476.0, 1476.0, 1477.0, 1473.0, 1472.0, 1471.0, 1473.0, 1474.0, 1474.0, 1474.0, 1474.0, 1475.0, 1475.0, 1476.0, 1476.0, 1473.0, 1475.0, 1474.0, 1475.0, 1473.0, 1474.0, 1474.0, 1475.0, 1476.0, 1475.0, 1476.0, 1477.0, 1476.0, 1472.0, 1473.0, 1474.0, 1474.0, 1473.0, 1473.0, 1473.0, 1473.0, 1474.0, 1474.0, 1475.0, 1475.0, 1472.0, 1474.0, 1474.0, 1477.0, 1475.0, 1476.0, 1474.0, 1474.0, 1475.0, 1475.0, 1475.0, 1473.0, 1472.0, 1474.0, 1473.0, 1473.0, 1474.0]
    },
    "slices": {}
  }
}