{"AcquisitionMatrixPE": 100, "AcquisitionNumber": 1, "AcquisitionTime": "14:58:48.002500", "BaseResolution": 100, "BodyPartExamined": "BRAIN", "CoilCombinationMethod": "Sum of Squares", "ConsistencyInfo": "N4_VE11C_LATEST_20160120", "ConversionSoftware": "dcm2niix", "ConversionSoftwareVersion": "v1.0.20211006", "DeviceSerialNumber": "166078", "DwellTime": 8.8e-06, "EchoNumber": 2, "EchoTime": 0.00738, "EchoTime1": 0.00492, "EchoTime2": 0.00738, "FlipAngle": 60, "ImageOrientationPatientDICOM": [1, 4.818e-12, -8.76e-13, -4.897e-12, 0.983885, -0.178802], "ImageOrientationText": "Tra>Cor(-10.3)", "ImageType": ["ORIGINAL", "PRIMARY", "P", "ND", "PHASE"], "ImagingFrequency": 123.258, "InPlanePhaseEncodingDirectionDICOM": "ROW", "InstitutionAddress": "Street StreetNo,Bei Jing,District,CN,ZIP", "InstitutionName": "BeiJing Normal University", "InstitutionalDepartmentName": "Department", "MRAcquisitionType": "2D", "MagneticFieldStrength": 3, "Manufacturer": "Siemens", "ManufacturersModelName": "Prisma", "MatrixCoilMode": "SENSE", "Modality": "MR", "MultibandAccelerationFactor": 2, "PartialFourier": 1, "PatientPosition": "HFS", "PercentPhaseFOV": 100, "PercentSampling": 100, "PhaseEncodingDirection": "i", "PhaseEncodingSteps": 100, "PhaseResolution": 1, "PixelBandwidth": 570, "ProcedureStepDescription": "BNU_P2018_64CH^Zhen.ZongLei", "ProtocolName": "field_mapping_2x2x2", "PulseSequenceDetails": "%SiemensSeq%\\gre_field_mapping", "ReceiveCoilActiveElements": "HC1-7;NC1", "ReceiveCoilName": "HeadNeck_64", "ReconMatrixPE": 100, "RepetitionTime": 0.72, "SAR": 0.119706, "ScanningSequence": "GR", "SequenceName": "*fm2d2r", "SequenceVariant": "SP", "SeriesDescription": "field_mapping_2x2x2", "SeriesNumber": 10, "ShimSetting": [-5451, -11517, -1255, 409, 30, -306, -194, 26], "SliceThickness": 2, "SliceTiming": [0.35938, 0, 0.375, 0.01562, 0.375, 0.01562, 0.39062, 0.03125, 0.40625, 0.04688, 0.40625, 0.04688, 0.42188, 0.0625, 0.4375, 0.07812, 0.4375, 0.07812, 0.45312, 0.09375, 0.46875, 0.10938, 0.46875, 0.10938, 0.48438, 0.125, 0.48438, 0.125, 0.5, 0.14062, 0.51562, 0.15625, 0.51562, 0.15625, 0.53125, 0.17188, 0.54688, 0.1875, 0.54688, 0.1875, 0.5625, 0.20312, 0.57812, 0.21875, 0.57812, 0.21875, 0.59375, 0.23438, 0.60938, 0.23438, 0.60938, 0.25, 0.625, 0.26562, 0.625, 0.26562, 0.64062, 0.28125, 0.65625, 0.29688, 0.65625, 0.29688, 0.67188, 0.3125, 0.6875, 0.32812, 0.6875, 0.32812, 0.70312, 0.34375, 0.71875, 0.35938], "SoftwareVersions": "syngo MR E11", "SpacingBetweenSlices": 2, "StationName": "AWP166078", "TxRefAmp": 207.948, "dcmmeta_affine": [[-2.0, -9.79399981254625e-12, 0.0, 101.3559341430664], [-9.636000330992545e-12, 1.9677700996398926, -0.35760498046875, -80.33106231689453], [-1.7520000207549291e-12, 0.35760441422462463, 1.9677658081054688, -76.04643249511719], [0.0, 0.0, 0.0, 1.0]], "dcmmeta_reorient_transform": [[0.0, -1.0, 0.0, 99.0], [1.0, 0.0, 0.0, 0.0], [0.0, 0.0, -1.0, 71.0], [0.0, 0.0, 0.0, 1.0]], "dcmmeta_shape": [100, 100, 72], "dcmmeta_slice_dim": 2, "dcmmeta_version": 0.6, "global": {"const": {"AcquisitionMatrix": [0, 100, 100, 0], "AcquisitionNumber": 1, "AngioFlag": "N", "BitsAllocated": 16, "BitsStored": 12, "BodyPartExamined": "BRAIN", "Columns": 100, "EchoNumbers": 2, "EchoTime": 7.38, "EchoTrainLength": 0, "FlipAngle": 60.0, "HighBit": 11, "ImageOrientationPatient": [1.0, 4.818e-12, -8.76e-13, -4.897e-12, 0.98388503843179, -0.1788022123747], "ImageType": ["ORIGINAL", "PRIMARY", "P", "ND"], "ImagedNucleus": "1H", "ImagingFrequency": 123.257746, "InPlanePhaseEncodingDirection": "ROW", "MRAcquisitionType": "2D", "MagneticFieldStrength": 3.0, "Manufacturer": "SIEMENS", "ManufacturerModelName": "Prisma", "Modality": "MR", "NumberOfAverages": 1.0, "NumberOfPhaseEncodingSteps": 100, "PercentPhaseFieldOfView": 100.0, "PercentSampling": 100.0, "PerformedProcedureStepStartTime": "141859.498000", "PhotometricInterpretation": "MONOCHROME2", "PixelBandwidth": 570.0, "PixelRepresentation": 0, "PixelSpacing": [2.0, 2.0], "ProtocolName": "field_mapping_2x2x2", "RepetitionTime": 720.0, "RescaleIntercept": -4096.0, "RescaleSlope": 2.0, "RescaleType": "US", "Rows": 100, "SAR": 0.11970608961165, "SamplesPerPixel": 1, "ScanningSequence": "GR", "SequenceName": "*fm2d2r", "SequenceVariant": "SP", "SeriesDescription": "field_mapping_2x2x2", "SeriesNumber": 10, "SeriesTime": "150112.857000", "SliceThickness": 2.0, "SoftwareVersions": "syngo MR E11", "SpacingBetweenSlices": 2.0, "SpecificCharacterSet": "ISO_IR 100", "StudyID": "1", "StudyTime": "141859.413000", "TransmitCoilName": "Body", "VariableFlipAngleFlag": "N", "WindowCenterWidthExplanation": "Algo1", "dBdt": 0.0}, "slices": {"AcquisitionTime": ["145848.002500", "145847.642500", "145848.012500", "145847.652500", "145848.022500", "145847.662500", "145848.032500", "145847.672500", "145848.042500", "145847.682500", "145848.052500", "145847.692500", "145848.062500", "145847.702500", "145848.072500", "145847.712500", "145848.082500", "145847.722500", "145848.092500", "145847.732500", "145848.102500", "145847.742500", "145848.112500", "145847.752500", "145848.122500", "145847.762500", "145848.132500", "145847.772500", "145848.142500", "145847.782500", "145848.152500", "145847.792500", "145848.162500", "145847.802500", "145848.172500", "145847.812500", "145848.182500", "145847.822500", "145848.192500", "145847.832500", "145848.202500", "145847.842500", "145848.212500", "145847.852500", "145848.222500", "145847.862500", "145848.232500", "145847.872500", "145848.242500", "145847.882500", "145848.252500", "145847.892500", "145848.262500", "145847.902500", "145848.272500", "145847.912500", "145848.282500", "145847.922500", "145848.292500", "145847.932500", "145848.302500", "145847.942500", "145848.312500", "145847.952500", "145848.322500", "145847.962500", "145848.332500", "145847.972500", "145848.342500", "145847.982500", "145848.352500", "145847.992500"], "ContentTime": ["150112.936000", "150112.861000", "150112.938000", "150112.863000", "150112.940000", "150112.866000", "150112.942000", "150112.868000", "150112.945000", "150112.869000", "150112.947000", "150112.871000", "150112.950000", "150112.873000", "150112.952000", "150112.875000", "150112.954000", "150112.877000", "150112.957000", "150112.879000", "150112.959000", "150112.881000", "150112.961000", "150112.882000", "150112.964000", "150112.884000", "150112.966000", "150112.886000", "150112.968000", "150112.888000", "150112.970000", "150112.890000", "150112.972000", "150112.892000", "150112.974000", "150112.894000", "150112.977000", "150112.896000", "150112.979000", "150112.898000", "150112.981000", "150112.900000", "150112.984000", "150112.902000", "150112.988000", "150112.905000", "150112.991000", "150112.907000", "150112.993000", "150112.909000", "150112.995000", "150112.911000", "150112.998000", "150112.913000", "150113.001000", "150112.916000", "150113.003000", "150112.918000", "150113.006000", "150112.920000", "150113.009000", "150112.923000", "150113.012000", "150112.925000", "150113.014000", "150112.927000", "150113.017000", "150112.929000", "150113.019000", "150112.932000", "150113.020000", "150112.934000"], "CsaImage.GSWDDataType": ["measured", "predicted", "measured", "predicted", "measured", "predicted", "measured", "predicted", "measured", "predicted", "measured", "predicted", "measured", "predicted", "measured", "predicted", "measured", "predicted", "measured", "predicted", "measured", "predicted", "measured", "predicted", "measured", "predicted", "measured", "predicted", "measured", "predicted", "measured", "predicted", "measured", "predicted", "measured", "predicted", "measured", "predicted", "measured", "predicted", "measured", "predicted", "measured", "predicted", "measured", "predicted", "measured", "predicted", "measured", "predicted", "measured", "predicted", "measured", "predicted", "measured", "predicted", "measured", "predicted", "measured", "predicted", "measured", "predicted", "measured", "predicted", "measured", "predicted", "measured", "measured", "measured", "measured", "measured", "measured"], "CsaImage.ICE_Dims": ["X_2_1_1_1_1_1_37_1_1_1_1_196", "X_2_1_1_1_1_1_1_1_1_2_1_196", "X_2_1_1_1_1_1_38_1_1_3_1_196", "X_2_1_1_1_1_1_2_1_1_4_1_196", "X_2_1_1_1_1_1_39_1_1_5_1_196", "X_2_1_1_1_1_1_3_1_1_6_1_196", "X_2_1_1_1_1_1_40_1_1_7_1_196", "X_2_1_1_1_1_1_4_1_1_8_1_196", "X_2_1_1_1_1_1_41_1_1_9_1_196", "X_2_1_1_1_1_1_5_1_1_10_1_196", "X_2_1_1_1_1_1_42_1_1_11_1_196", "X_2_1_1_1_1_1_6_1_1_12_1_196", "X_2_1_1_1_1_1_43_1_1_13_1_196", "X_2_1_1_1_1_1_7_1_1_14_1_196", "X_2_1_1_1_1_1_44_1_1_15_1_196", "X_2_1_1_1_1_1_8_1_1_16_1_196", "X_2_1_1_1_1_1_45_1_1_17_1_196", "X_2_1_1_1_1_1_9_1_1_18_1_196", "X_2_1_1_1_1_1_46_1_1_19_1_196", "X_2_1_1_1_1_1_10_1_1_20_1_196", "X_2_1_1_1_1_1_47_1_1_21_1_196", "X_2_1_1_1_1_1_11_1_1_22_1_196", "X_2_1_1_1_1_1_48_1_1_23_1_196", "X_2_1_1_1_1_1_12_1_1_24_1_196", "X_2_1_1_1_1_1_49_1_1_25_1_196", "X_2_1_1_1_1_1_13_1_1_26_1_196", "X_2_1_1_1_1_1_50_1_1_27_1_196", "X_2_1_1_1_1_1_14_1_1_28_1_196", "X_2_1_1_1_1_1_51_1_1_29_1_196", "X_2_1_1_1_1_1_15_1_1_30_1_196", "X_2_1_1_1_1_1_52_1_1_31_1_196", "X_2_1_1_1_1_1_16_1_1_32_1_196", "X_2_1_1_1_1_1_53_1_1_33_1_196", "X_2_1_1_1_1_1_17_1_1_34_1_196", "X_2_1_1_1_1_1_54_1_1_35_1_196", "X_2_1_1_1_1_1_18_1_1_36_1_196", "X_2_1_1_1_1_1_55_1_1_37_1_196", "X_2_1_1_1_1_1_19_1_1_38_1_196", "X_2_1_1_1_1_1_56_1_1_39_1_196", "X_2_1_1_1_1_1_20_1_1_40_1_196", "X_2_1_1_1_1_1_57_1_1_41_1_196", "X_2_1_1_1_1_1_21_1_1_42_1_196", "X_2_1_1_1_1_1_58_1_1_43_1_196", "X_2_1_1_1_1_1_22_1_1_44_1_196", "X_2_1_1_1_1_1_59_1_1_45_1_196", "X_2_1_1_1_1_1_23_1_1_46_1_196", "X_2_1_1_1_1_1_60_1_1_47_1_196", "X_2_1_1_1_1_1_24_1_1_48_1_196", "X_2_1_1_1_1_1_61_1_1_49_1_196", "X_2_1_1_1_1_1_25_1_1_50_1_196", "X_2_1_1_1_1_1_62_1_1_51_1_196", "X_2_1_1_1_1_1_26_1_1_52_1_196", "X_2_1_1_1_1_1_63_1_1_53_1_196", "X_2_1_1_1_1_1_27_1_1_54_1_196", "X_2_1_1_1_1_1_64_1_1_55_1_196", "X_2_1_1_1_1_1_28_1_1_56_1_196", "X_2_1_1_1_1_1_65_1_1_57_1_196", "X_2_1_1_1_1_1_29_1_1_58_1_196", "X_2_1_1_1_1_1_66_1_1_59_1_196", "X_2_1_1_1_1_1_30_1_1_60_1_196", "X_2_1_1_1_1_1_67_1_1_61_1_196", "X_2_1_1_1_1_1_31_1_1_62_1_196", "X_2_1_1_1_1_1_68_1_1_63_1_196", "X_2_1_1_1_1_1_32_1_1_64_1_196", "X_2_1_1_1_1_1_69_1_1_65_1_196", "X_2_1_1_1_1_1_33_1_1_66_1_196", "X_2_1_1_1_1_1_70_1_1_67_1_196", "X_2_1_1_1_1_1_34_1_1_68_1_196", "X_2_1_1_1_1_1_71_1_1_69_1_196", "X_2_1_1_1_1_1_35_1_1_70_1_196", "X_2_1_1_1_1_1_72_1_1_71_1_196", "X_2_1_1_1_1_1_36_1_1_72_1_196"], "CsaImage.ProtocolSliceNumber": [0, 1, 2, 3, 4, 5, 6, 7, 8, 9, 10, 11, 12, 13, 14, 15, 16, 17, 18, 19, 20, 21, 22, 23, 24, 25, 26, 27, 28, 29, 30, 31, 32, 33, 34, 35, 36, 37, 38, 39, 40, 41, 42, 43, 44, 45, 46, 47, 48, 49, 50, 51, 52, 53, 54, 55, 56, 57, 58, 59, 60, 61, 62, 63, 64, 65, 66, 67, 68, 69, 70, 71], "CsaImage.RFSWDDataType": ["measured", "predicted", "measured", "predicted", "measured", "predicted", "measured", "predicted", "measured", "predicted", "measured", "predicted", "measured", "predicted", "measured", "predicted", "measured", "predicted", "measured", "predicted", "measured", "predicted", "measured", "predicted", "measured", "predicted", "measured", "predicted", "measured", "predicted", "measured", "predicted", "measured", "predicted", "measured", "predicted", "measured", "predicted", "measured", "predicted", "measured", "predicted", "measured", "predicted", "measured", "predicted", "measured", "predicted", "measured", "predicted", "measured", "predicted", "measured", "predicted", "measured", "predicted", "measured", "predicted", "measured", "predicted", "measured", "predicted", "measured", "measured", "measured", "measured", "measured", "measured", "measured", "measured", "measured", "measured"], "CsaImage.SlicePosition_PCS": [[-101.35593224, -114.47813397, -40.64389909], [-101.35593224, -114.12052994, -38.67612566], [-101.35593224, -113.76292496, -36.70835603], [-101.35593224, -113.40532094, -34.74058641], [-101.35593224, -113.04771691, -32.77281679], [-101.35593224, -112.69011193, -30.80504716], [-101.35593224, -112.3325079, -28.83727754], [-101.35593224, -111.97490292, -26.86950792], [-101.35593224, -111.6172989, -24.9017383], [-101.35593224, -111.25969391, -22.93396486], [-101.35593224, -110.90208989, -20.96619524], [-101.35593224, -110.54448586, -18.99842561], [-101.35593224, -110.18688088, -17.03065599], [-101.35593224, -109.82927685, -15.06288637], [-101.35593224, -109.47167187, -13.09511674], [-101.35593224, -109.11406785, -11.12734712], [-101.35593224, -108.75646382, -9.15957559], [-101.35593224, -108.39885884, -7.19180597], [-101.35593224, -108.04125481, -5.22403635], [-101.35593224, -107.68364983, -3.25626672], [-101.35593224, -107.32604581, -1.28849519], [-101.35593224, -106.96844082, 0.67927443], [-101.35593224, -106.6108368, 2.64704405], [-101.35593224, -106.25323229, 4.61481463], [-101.35593224, -105.89562779, 6.58258425], [-101.35593224, -105.53802329, 8.55035483], [-101.35593224, -105.18041926, 10.51812445], [-101.35593224, -104.82281476, 12.48589455], [-101.35593224, -104.46521025, 14.45366489], [-101.35593224, -104.10760575, 16.42143487], [-101.35593224, -103.75000125, 18.38920497], [-101.35593224, -103.39239674, 20.35697495], [-101.35593224, -103.03479224, 22.32474505], [-101.35593224, -102.67718821, 24.29251515], [-101.35593224, -102.31958371, 26.26028525], [-101.35593224, -101.9619792, 28.22805487], [-101.35593224, -101.6043747, 30.19582545], [-101.35593224, -101.24677044, 32.16359507], [-101.35593224, -100.88916593, 34.13136565], [-101.35593224, -100.53156143, 36.09913527], [-101.35593224, -100.17395704, 38.06690489], [-101.35593224, -99.81635266, 40.03467642], [-101.35593224, -99.45874816, 42.00244605], [-101.35593224, -99.10114371, 43.97021567], [-101.35593224, -98.7435393, 45.93798529], [-101.35593224, -98.38593488, 47.90575682], [-101.35593224, -98.02833044, 49.87352644], [-101.35593224, -97.670726, 51.84129607], [-101.35593224, -97.31312161, 53.80906569], [-101.35593224, -96.95551711, 55.77683531], [-101.35593224, -96.59791272, 57.74460494], [-101.35593224, -96.24030834, 59.71237837], [-101.35593224, -95.88270383, 61.680148], [-101.35593224, -95.52509933, 63.64791762], [-101.35593224, -95.16749507, 65.61568724], [-101.35593224, -94.80989056, 67.58345686], [-101.35593224, -94.45228606, 69.55122649], [-101.35593224, -94.09468156, 71.51899611], [-101.35593224, -93.73707705, 73.48676573], [-101.35593224, -93.37947302, 75.45453535], [-101.35593224, -93.02186852, 77.42230879], [-101.35593224, -92.66426402, 79.39007842], [-101.35593224, -92.30665951, 81.35784804], [-101.35593224, -91.94905501, 83.32561766], [-101.35593224, -91.59145051, 85.2933911], [-101.35593224, -91.23384648, 87.26115691], [-101.35593224, -90.87624198, 89.22893034], [-101.35593224, -90.51863747, 91.19669615], [-101.35593224, -90.16103345, 93.16446959], [-101.35593224, -89.80342847, 95.1322354], [-101.35593224, -89.44582444, 97.10000884], [-101.35593224, -89.08821946, 99.06777464]], "CsaImage.TimeAfterStart": [1.0825, 0.7225, 1.0925, 0.7325, 1.1025, 0.7425, 1.1125, 0.7525, 1.1225, 0.7625, 1.1325, 0.7725, 1.1425, 0.7825, 1.1525, 0.7925, 1.1625, 0.8025, 1.1725, 0.8125, 1.1825, 0.8225, 1.1925, 0.8325, 1.2025, 0.8425, 1.2125, 0.8525, 1.2225, 0.8625, 1.2325, 0.8725, 1.2425, 0.8825, 1.2525, 0.8925, 1.2625, 0.9025, 1.2725, 0.9125, 1.2825, 0.9225, 1.2925, 0.9325, 1.3025, 0.9425, 1.3125, 0.9525, 1.3225, 0.9625, 1.3325, 0.9725, 1.3425, 0.9825, 1.3525, 0.9925, 1.3625, 1.0025, 1.3725, 1.0125, 1.3825, 1.0225, 1.3925, 1.0325, 1.4025, 1.0425, 1.4125, 1.0525, 1.4225, 1.0625, 1.4325, 1.0725], "ImagePositionPatient": [[-101.35593223523, -114.47813397061, -40.643899093255], [-101.35593223523, -114.12052994382, -38.676125655755], [-101.35593223523, -113.76292496335, -36.708356032952], [-101.35593223523, -113.40532093656, -34.740586410149], [-101.35593223523, -113.04771690976, -32.772816787347], [-101.35593223523, -112.69011192929, -30.805047164544], [-101.35593223523, -112.3325079025, -28.837277541741], [-101.35593223523, -111.97490292203, -26.869507918939], [-101.35593223523, -111.61729889524, -24.901738296136], [-101.35593223523, -111.25969391477, -22.933964858636], [-101.35593223523, -110.90208988797, -20.966195235833], [-101.35593223523, -110.54448586118, -18.99842561303], [-101.35593223523, -110.18688088071, -17.030655990228], [-101.35593223523, -109.82927685391, -15.062886367425], [-101.35593223523, -109.47167187345, -13.095116744622], [-101.35593223523, -109.11406784665, -11.127347121819], [-101.35593223523, -108.75646381986, -9.159575591668], [-101.35593223523, -108.39885883939, -7.1918059688653], [-101.35593223523, -108.04125481259, -5.2240363460626], [-101.35593223523, -107.68364983213, -3.2562667232598], [-101.35593223523, -107.32604580533, -1.2884951931085], [-101.35593223523, -106.96844082486, 0.67927442969427], [-101.35593223523, -106.61083679807, 2.647044052497], [-101.35593223523, -106.25323229444, 4.6148146289741], [-101.35593223523, -105.8956277908, 6.5825842517768], [-101.35593223523, -105.53802328717, 8.5503548282538], [-101.35593223523, -105.18041926038, 10.518124451057], [-101.35593223523, -104.82281475675, 12.485894550696], [-101.35593223523, -104.46521025312, 14.453664888755], [-101.35593223523, -104.10760574948, 16.421434869186], [-101.35593223523, -103.75000124585, 18.389204968825], [-101.35593223523, -103.39239674222, 20.356974949256], [-101.35593223523, -103.03479223859, 22.324745048896], [-101.35593223523, -102.67718821179, 24.292515148536], [-101.35593223523, -102.31958370816, 26.260285248176], [-101.35593223523, -101.96197920453, 28.228054870978], [-101.35593223523, -101.6043747009, 30.195825447456], [-101.35593223523, -101.24677043569, 32.163595070258], [-101.35593223523, -100.88916593205, 34.131365646735], [-101.35593223523, -100.53156142842, 36.099135269538], [-101.35593223523, -100.173957044, 38.066904892341], [-101.35593223523, -99.816352659579, 40.034676422492], [-101.35593223523, -99.458748155947, 42.002446045295], [-101.35593223523, -99.10114371192, 43.970215668098], [-101.35593223523, -98.743539297696, 45.9379852909], [-101.35593223523, -98.385934880211, 47.905756821052], [-101.35593223523, -98.028330439444, 49.873526443854], [-101.35593223523, -97.670725995417, 51.841296066657], [-101.35593223523, -97.313121610995, 53.80906568946], [-101.35593223523, -96.955517107363, 55.776835312263], [-101.35593223523, -96.597912722941, 57.744604935065], [-101.35593223523, -96.240308338519, 59.712378372565], [-101.35593223523, -95.882703834887, 61.680147995368], [-101.35593223523, -95.525099331255, 63.647917618171], [-101.35593223523, -95.167495066042, 65.615687240974], [-101.35593223523, -94.809890562411, 67.583456863776], [-101.35593223523, -94.452286058779, 69.551226486579], [-101.35593223523, -94.094681555148, 71.518996109382], [-101.35593223523, -93.737077051516, 73.486765732185], [-101.35593223523, -93.379473024722, 75.454535354987], [-101.35593223523, -93.02186852109, 77.422308792487], [-101.35593223523, -92.664264017458, 79.39007841529], [-101.35593223523, -92.306659513827, 81.357848038093], [-101.35593223523, -91.949055010195, 83.325617660895], [-101.35593223523, -91.591450506564, 85.293391098395], [-101.35593223523, -91.233846479769, 87.261156906501], [-101.35593223523, -90.876241976138, 89.228930344001], [-101.35593223523, -90.518637472506, 91.196696152106], [-101.35593223523, -90.161033445712, 93.164469589606], [-101.35593223523, -89.803428465243, 95.132235397712], [-101.35593223523, -89.445824438448, 97.100008835212], [-101.35593223523, -89.08821945798, 99.067774643317]], "InstanceCreationTime": ["150112.936000", "150112.861000", "150112.938000", "150112.863000", "150112.940000", "150112.866000", "150112.942000", "150112.868000", "150112.945000", "150112.869000", "150112.947000", "150112.871000", "150112.950000", "150112.873000", "150112.952000", "150112.875000", "150112.954000", "150112.877000", "150112.957000", "150112.879000", "150112.959000", "150112.881000", "150112.961000", "150112.882000", "150112.964000", "150112.884000", "150112.966000", "150112.886000", "150112.968000", "150112.888000", "150112.970000", "150112.890000", "150112.972000", "150112.892000", "150112.974000", "150112.894000", "150112.977000", "150112.896000", "150112.979000", "150112.898000", "150112.981000", "150112.900000", "150112.984000", "150112.902000", "150112.988000", "150112.905000", "150112.991000", "150112.907000", "150112.993000", "150112.909000", "150112.995000", "150112.911000", "150112.998000", "150112.913000", "150113.001000", "150112.916000", "150113.003000", "150112.918000", "150113.006000", "150112.920000", "150113.009000", "150112.923000", "150113.012000", "150112.925000", "150113.014000", "150112.927000", "150113.017000", "150112.929000", "150113.019000", "150112.932000", "150113.020000", "150112.934000"], "InstanceNumber": [1, 2, 3, 4, 5, 6, 7, 8, 9, 10, 11, 12, 13, 14, 15, 16, 17, 18, 19, 20, 21, 22, 23, 24, 25, 26, 27, 28, 29, 30, 31, 32, 33, 34, 35, 36, 37, 38, 39, 40, 41, 42, 43, 44, 45, 46, 47, 48, 49, 50, 51, 52, 53, 54, 55, 56, 57, 58, 59, 60, 61, 62, 63, 64, 65, 66, 67, 68, 69, 70, 71, 72], "LargestImagePixelValue": [4095, 4095, 4094, 4095, 4092, 4094, 4093, 4093, 4095, 4094, 4095, 4094, 4095, 4090, 4094, 4094, 4095, 4094, 4095, 4093, 4093, 4095, 4093, 4095, 4090, 4095, 4089, 4084, 4091, 4090, 4092, 4094, 4094, 4088, 4092, 4095, 4091, 4093, 4094, 4092, 4088, 4085, 4089, 4089, 4093, 4094, 4093, 4094, 4092, 4090, 4094, 4095, 4092, 4095, 4092, 4093, 4089, 4093, 4091, 4091, 4094, 4093, 4094, 4094, 4094, 4092, 4095, 4093, 4094, 4094, 4095, 4092], "SliceLocation": [-60.457867843856, -58.457864608531, -56.457864955911, -54.45786547381, -52.457865991709, -50.457866339088, -48.457866856987, -46.457867204367, -44.457867722266, -42.457864316422, -40.457864834321, -38.45786535222, -36.4578656996, -34.457866217499, -32.457866564878, -30.457867082777, -28.457865724064, -26.457866071444, -24.457866589343, -22.457866936723, -20.45786557801, -18.45786592539, -16.457866443289, -14.457865937622, -12.457866370262, -10.457865864595, -8.4578663824939, -6.4578663459803, -4.4578660748903, -2.4578661556649, -0.4578661191513, 1.5421338000741, 3.5421338365877, 5.5421337878417, 7.5421338243553, 9.542133391716, 11.542133897382, 13.542133422113, 15.54213392778, 17.542133495141, 19.542133041186, 21.542134463844, 23.542134031205, 25.542133587908, 27.542133139282, 29.542134567851, 31.542134123972, 33.542133680675, 35.542133226721, 37.542132794081, 39.542132340127, 41.542135639396, 43.542135206757, 45.542134774118, 47.542134298849, 49.542133866209, 51.54213343357, 53.542133000931, 55.542132568291, 57.542132050392, 59.542135370977, 61.542134938337, 63.542134505698, 65.542134073058, 67.542137393643, 69.54213312252, 71.542136443104, 73.542132257242, 75.542135492566, 77.542131391963, 79.542134627288, 81.542130526684], "SmallestImagePixelValue": [0, 0, 0, 0, 0, 0, 1, 0, 1, 1, 2, 0, 0, 0, 0, 6, 4, 0, 0, 1, 0, 3, 0, 1, 2, 0, 1, 0, 0, 1, 4, 0, 0, 0, 0, 0, 0, 4, 0, 2, 0, 0, 0, 0, 2, 0, 6, 2, 0, 1, 1, 0, 0, 0, 0, 0, 0, 0, 1, 0, 0, 1, 0, 0, 1, 1, 0, 0, 0, 2, 0, 0], "WindowCenter": [-172.0, -216.0, -170.0, -160.0, -186.0, -210.0, -216.0, -214.0, -216.0, -246.0, -230.0, -192.0, -148.0, -170.0, -200.0, -202.0, -216.0, -214.0, -218.0, -226.0, -228.0, -242.0, -192.0, -170.0, -180.0, -196.0, -200.0, -216.0, -204.0, -188.0, -184.0, -192.0, -158.0, -170.0, -164.0, -172.0, -154.0, -144.0, -120.0, -148.0, -100.0, -100.0, -218.0, -188.0, -188.0, -186.0, -182.0, -206.0, -194.0, -212.0, -196.0, -210.0, -208.0, -216.0, -222.0, -220.0, -98.0, -100.0, -60.0, -64.0, -72.0, -78.0, -156.0, -170.0, -202.0, -196.0, -226.0, -280.0, -288.0, -336.0, -352.0, -364.0], "WindowWidth": [6016.0, 6154.0, 6218.0, 6238.0, 6236.0, 6258.0, 6272.0, 6294.0, 6344.0, 6332.0, 6348.0, 6350.0, 6386.0, 6390.0, 6334.0, 6242.0, 6208.0, 6182.0, 6148.0, 6082.0, 6020.0, 5972.0, 5914.0, 5892.0, 5848.0, 5782.0, 5760.0, 5730.0, 5674.0, 5592.0, 5578.0, 5574.0, 5614.0, 5480.0, 5520.0, 5458.0, 5424.0, 5370.0, 5428.0, 5120.0, 5294.0, 5228.0, 4606.0, 4590.0, 4586.0, 4590.0, 4572.0, 4600.0, 4600.0, 4604.0, 4602.0, 4616.0, 4640.0, 4656.0, 4668.0, 4690.0, 5188.0, 5448.0, 5580.0, 5782.0, 5822.0, 5880.0, 5944.0, 5954.0, 6048.0, 6098.0, 6226.0, 6226.0, 6252.0, 6292.0, 6334.0, 6400.0]}}, "IntendedFor": ["ses-action01/func/sub-10_ses-action01_task-action_run-10_bold.nii.gz", "ses-action01/func/sub-10_ses-action01_task-action_run-02_bold.nii.gz", "ses-action01/func/sub-10_ses-action01_task-action_run-12_bold.nii.gz", "ses-action01/func/sub-10_ses-action01_task-action_run-04_bold.nii.gz", "ses-action01/func/sub-10_ses-action01_task-action_run-09_bold.nii.gz", "ses-action01/func/sub-10_ses-action01_task-action_run-06_bold.nii.gz", "ses-action01/func/sub-10_ses-action01_task-action_run-05_bold.nii.gz", "ses-action01/func/sub-10_ses-action01_task-action_run-07_bold.nii.gz", "ses-action01/func/sub-10_ses-action01_task-action_run-08_bold.nii.gz", "ses-action01/func/sub-10_ses-action01_task-action_run-01_bold.nii.gz", "ses-action01/func/sub-10_ses-action01_task-action_run-11_bold.nii.gz", "ses-action01/func/sub-10_ses-action01_task-action_run-03_bold.nii.gz"]}