{"AcquisitionMatrixPE": 100, "AcquisitionNumber": 1, "AcquisitionTime": "13:43:18.367500", "BaseResolution": 100, "BodyPartExamined": "BRAIN", "CoilCombinationMethod": "Sum of Squares", "ConsistencyInfo": "N4_VE11C_LATEST_20160120", "ConversionSoftware": "dcm2niix", "ConversionSoftwareVersion": "v1.0.20211006", "DeviceSerialNumber": "166078", "DwellTime": 8.8e-06, "EchoNumber": 2, "EchoTime": 0.00738, "EchoTime1": 0.00492, "EchoTime2": 0.00738, "FlipAngle": 60, "ImageOrientationPatientDICOM": [0.992782, 0.0329896, 0.115305, 3.80267e-10, 0.961424, -0.275071], "ImageOrientationText": "Tra>Cor(-16.0)>Sag(6.9)", "ImageType": ["ORIGINAL", "PRIMARY", "P", "ND", "PHASE"], "ImagingFrequency": 123.258, "InPlanePhaseEncodingDirectionDICOM": "ROW", "InstitutionAddress": "Street StreetNo,Bei Jing,District,CN,ZIP", "InstitutionName": "BeiJing Normal University", "InstitutionalDepartmentName": "Department", "MRAcquisitionType": "2D", "MagneticFieldStrength": 3, "Manufacturer": "Siemens", "ManufacturersModelName": "Prisma", "MatrixCoilMode": "SENSE", "Modality": "MR", "MultibandAccelerationFactor": 2, "PartialFourier": 1, "PatientPosition": "HFS", "PercentPhaseFOV": 100, "PercentSampling": 100, "PhaseEncodingDirection": "i", "PhaseEncodingSteps": 100, "PhaseResolution": 1, "PixelBandwidth": 570, "ProcedureStepDescription": "BNU_P2018_64CH^Zhen.ZongLei", "ProtocolName": "field_mapping_2x2x2", "PulseSequenceDetails": "%SiemensSeq%\\gre_field_mapping", "ReceiveCoilActiveElements": "HC1-7;NC1", "ReceiveCoilName": "HeadNeck_64", "ReconMatrixPE": 100, "RepetitionTime": 0.72, "SAR": 0.11156, "ScanningSequence": "GR", "SequenceName": "*fm2d2r", "SequenceVariant": "SP", "SeriesDescription": "field_mapping_2x2x2", "SeriesNumber": 10, "ShimSetting": [-5436, -11395, -1356, 581, -48, -434, -206, -7], "SliceThickness": 2, "SliceTiming": [0.375, 0, 0.375, 0.01562, 0.39062, 0.03125, 0.39062, 0.03125, 0.40625, 0.04688, 0.42188, 0.0625, 0.42188, 0.0625, 0.4375, 0.07812, 0.45312, 0.09375, 0.45312, 0.09375, 0.46875, 0.10938, 0.48438, 0.125, 0.48438, 0.125, 0.5, 0.14062, 0.5, 0.14062, 0.51562, 0.15625, 0.53125, 0.17188, 0.53125, 0.17188, 0.54688, 0.1875, 0.5625, 0.20312, 0.5625, 0.20312, 0.57812, 0.21875, 0.59375, 0.23438, 0.59375, 0.23438, 0.60938, 0.25, 0.625, 0.25, 0.625, 0.26562, 0.64062, 0.28125, 0.64062, 0.28125, 0.65625, 0.29688, 0.67188, 0.3125, 0.67188, 0.3125, 0.6875, 0.32812, 0.70312, 0.34375, 0.70312, 0.34375, 0.71875, 0.35938], "SoftwareVersions": "syngo MR E11", "SpacingBetweenSlices": 2, "StationName": "AWP166078", "TxRefAmp": 214.747, "dcmmeta_affine": [[-1.9855643510818481, 7.605340246463754e-10, 0.23986291885375977, 88.490234375], [-0.06597921997308731, 1.922847867012024, -0.5461711883544922, -62.967071533203125], [0.23060964047908783, 0.5501418113708496, 1.9089698791503906, -122.2606201171875], [0.0, 0.0, 0.0, 1.0]], "dcmmeta_reorient_transform": [[0.0, -1.0, 0.0, 99.0], [1.0, 0.0, 0.0, 0.0], [0.0, 0.0, -1.0, 71.0], [0.0, 0.0, 0.0, 1.0]], "dcmmeta_shape": [100, 100, 72], "dcmmeta_slice_dim": 2, "dcmmeta_version": 0.6, "global": {"const": {"AcquisitionMatrix": [0, 100, 100, 0], "AcquisitionNumber": 1, "AngioFlag": "N", "BitsAllocated": 16, "BitsStored": 12, "BodyPartExamined": "BRAIN", "Columns": 100, "EchoNumbers": 2, "EchoTime": 7.38, "EchoTrainLength": 0, "FlipAngle": 60.0, "HighBit": 11, "ImageOrientationPatient": [0.99278219377785, 0.03298960822863, 0.11530481978898, 3.80267e-10, 0.96142394605535, -0.275070892592], "ImageType": ["ORIGINAL", "PRIMARY", "P", "ND"], "ImagedNucleus": "1H", "ImagingFrequency": 123.257791, "InPlanePhaseEncodingDirection": "ROW", "MRAcquisitionType": "2D", "MagneticFieldStrength": 3.0, "Manufacturer": "SIEMENS", "ManufacturerModelName": "Prisma", "Modality": "MR", "NumberOfAverages": 1.0, "NumberOfPhaseEncodingSteps": 100, "PercentPhaseFieldOfView": 100.0, "PercentSampling": 100.0, "PerformedProcedureStepStartTime": "125828.269000", "PhotometricInterpretation": "MONOCHROME2", "PixelBandwidth": 570.0, "PixelRepresentation": 0, "PixelSpacing": [2.0, 2.0], "ProtocolName": "field_mapping_2x2x2", "RepetitionTime": 720.0, "RescaleIntercept": -4096.0, "RescaleSlope": 2.0, "RescaleType": "US", "Rows": 100, "SAR": 0.11156008286824, "SamplesPerPixel": 1, "ScanningSequence": "GR", "SequenceName": "*fm2d2r", "SequenceVariant": "SP", "SeriesDescription": "field_mapping_2x2x2", "SeriesNumber": 10, "SeriesTime": "134542.790000", "SliceThickness": 2.0, "SoftwareVersions": "syngo MR E11", "SpacingBetweenSlices": 2.0, "SpecificCharacterSet": "ISO_IR 100", "StudyID": "1", "StudyTime": "125828.187000", "TransmitCoilName": "Body", "VariableFlipAngleFlag": "N", "WindowCenterWidthExplanation": "Algo1", "dBdt": 0.0}, "slices": {"AcquisitionTime": ["134318.367500", "134318.007500", "134318.377500", "134318.017500", "134318.387500", "134318.027500", "134318.397500", "134318.037500", "134318.407500", "134318.047500", "134318.417500", "134318.057500", "134318.427500", "134318.067500", "134318.437500", "134318.077500", "134318.447500", "134318.087500", "134318.457500", "134318.097500", "134318.467500", "134318.107500", "134318.477500", "134318.117500", "134318.487500", "134318.127500", "134318.497500", "134318.137500", "134318.507500", "134318.147500", "134318.517500", "134318.157500", "134318.527500", "134318.167500", "134318.537500", "134318.177500", "134318.547500", "134318.187500", "134318.557500", "134318.197500", "134318.567500", "134318.207500", "134318.577500", "134318.217500", "134318.587500", "134318.227500", "134318.597500", "134318.237500", "134318.607500", "134318.247500", "134318.617500", "134318.257500", "134318.627500", "134318.267500", "134318.637500", "134318.277500", "134318.647500", "134318.287500", "134318.657500", "134318.297500", "134318.667500", "134318.307500", "134318.677500", "134318.317500", "134318.687500", "134318.327500", "134318.697500", "134318.337500", "134318.707500", "134318.347500", "134318.717500", "134318.357500"], "ContentTime": ["134542.978000", "134542.794000", "134542.980000", "134542.796000", "134542.982000", "134542.798000", "134542.983000", "134542.800000", "134542.986000", "134542.802000", "134542.988000", "134542.804000", "134542.989000", "134542.806000", "134542.991000", "134542.808000", "134542.993000", "134542.810000", "134542.995000", "134542.812000", "134542.997000", "134542.814000", "134543.000000", "134542.816000", "134543.002000", "134542.924000", "134543.004000", "134542.926000", "134543.006000", "134542.928000", "134543.008000", "134542.929000", "134543.010000", "134542.931000", "134543.012000", "134542.933000", "134543.014000", "134542.935000", "134543.016000", "134542.937000", "134543.018000", "134542.939000", "134543.020000", "134542.941000", "134543.022000", "134542.943000", "134543.024000", "134542.945000", "134543.026000", "134542.955000", "134543.028000", "134542.956000", "134543.030000", "134542.958000", "134543.032000", "134542.960000", "134543.034000", "134542.962000", "134543.038000", "134542.964000", "134543.040000", "134542.966000", "134543.042000", "134542.968000", "134543.044000", "134542.970000", "134543.046000", "134542.972000", "134543.049000", "134542.974000", "134543.052000", "134542.976000"], "CsaImage.GSWDDataType": ["measured", "predicted", "measured", "predicted", "measured", "predicted", "measured", "predicted", "measured", "predicted", "measured", "predicted", "measured", "predicted", "measured", "predicted", "measured", "predicted", "measured", "predicted", "measured", "predicted", "measured", "predicted", "measured", "predicted", "measured", "predicted", "measured", "predicted", "measured", "predicted", "measured", "predicted", "measured", "predicted", "measured", "predicted", "measured", "predicted", "measured", "predicted", "measured", "predicted", "measured", "predicted", "measured", "predicted", "measured", "predicted", "measured", "predicted", "measured", "predicted", "measured", "predicted", "measured", "measured", "measured", "measured", "measured", "measured", "measured", "measured", "measured", "measured", "measured", "measured", "measured", "measured", "measured", "measured"], "CsaImage.ICE_Dims": ["X_2_1_1_1_1_1_37_1_1_1_1_127", "X_2_1_1_1_1_1_1_1_1_2_1_127", "X_2_1_1_1_1_1_38_1_1_3_1_127", "X_2_1_1_1_1_1_2_1_1_4_1_127", "X_2_1_1_1_1_1_39_1_1_5_1_127", "X_2_1_1_1_1_1_3_1_1_6_1_127", "X_2_1_1_1_1_1_40_1_1_7_1_127", "X_2_1_1_1_1_1_4_1_1_8_1_127", "X_2_1_1_1_1_1_41_1_1_9_1_127", "X_2_1_1_1_1_1_5_1_1_10_1_127", "X_2_1_1_1_1_1_42_1_1_11_1_127", "X_2_1_1_1_1_1_6_1_1_12_1_127", "X_2_1_1_1_1_1_43_1_1_13_1_127", "X_2_1_1_1_1_1_7_1_1_14_1_127", "X_2_1_1_1_1_1_44_1_1_15_1_127", "X_2_1_1_1_1_1_8_1_1_16_1_127", "X_2_1_1_1_1_1_45_1_1_17_1_127", "X_2_1_1_1_1_1_9_1_1_18_1_127", "X_2_1_1_1_1_1_46_1_1_19_1_127", "X_2_1_1_1_1_1_10_1_1_20_1_127", "X_2_1_1_1_1_1_47_1_1_21_1_127", "X_2_1_1_1_1_1_11_1_1_22_1_127", "X_2_1_1_1_1_1_48_1_1_23_1_127", "X_2_1_1_1_1_1_12_1_1_24_1_127", "X_2_1_1_1_1_1_49_1_1_25_1_127", "X_2_1_1_1_1_1_13_1_1_26_1_127", "X_2_1_1_1_1_1_50_1_1_27_1_127", "X_2_1_1_1_1_1_14_1_1_28_1_127", "X_2_1_1_1_1_1_51_1_1_29_1_127", "X_2_1_1_1_1_1_15_1_1_30_1_127", "X_2_1_1_1_1_1_52_1_1_31_1_127", "X_2_1_1_1_1_1_16_1_1_32_1_127", "X_2_1_1_1_1_1_53_1_1_33_1_127", "X_2_1_1_1_1_1_17_1_1_34_1_127", "X_2_1_1_1_1_1_54_1_1_35_1_127", "X_2_1_1_1_1_1_18_1_1_36_1_127", "X_2_1_1_1_1_1_55_1_1_37_1_127", "X_2_1_1_1_1_1_19_1_1_38_1_127", "X_2_1_1_1_1_1_56_1_1_39_1_127", "X_2_1_1_1_1_1_20_1_1_40_1_127", "X_2_1_1_1_1_1_57_1_1_41_1_127", "X_2_1_1_1_1_1_21_1_1_42_1_127", "X_2_1_1_1_1_1_58_1_1_43_1_127", "X_2_1_1_1_1_1_22_1_1_44_1_127", "X_2_1_1_1_1_1_59_1_1_45_1_127", "X_2_1_1_1_1_1_23_1_1_46_1_127", "X_2_1_1_1_1_1_60_1_1_47_1_127", "X_2_1_1_1_1_1_24_1_1_48_1_127", "X_2_1_1_1_1_1_61_1_1_49_1_127", "X_2_1_1_1_1_1_25_1_1_50_1_127", "X_2_1_1_1_1_1_62_1_1_51_1_127", "X_2_1_1_1_1_1_26_1_1_52_1_127", "X_2_1_1_1_1_1_63_1_1_53_1_127", "X_2_1_1_1_1_1_27_1_1_54_1_127", "X_2_1_1_1_1_1_64_1_1_55_1_127", "X_2_1_1_1_1_1_28_1_1_56_1_127", "X_2_1_1_1_1_1_65_1_1_57_1_127", "X_2_1_1_1_1_1_29_1_1_58_1_127", "X_2_1_1_1_1_1_66_1_1_59_1_127", "X_2_1_1_1_1_1_30_1_1_60_1_127", "X_2_1_1_1_1_1_67_1_1_61_1_127", "X_2_1_1_1_1_1_31_1_1_62_1_127", "X_2_1_1_1_1_1_68_1_1_63_1_127", "X_2_1_1_1_1_1_32_1_1_64_1_127", "X_2_1_1_1_1_1_69_1_1_65_1_127", "X_2_1_1_1_1_1_33_1_1_66_1_127", "X_2_1_1_1_1_1_70_1_1_67_1_127", "X_2_1_1_1_1_1_34_1_1_68_1_127", "X_2_1_1_1_1_1_71_1_1_69_1_127", "X_2_1_1_1_1_1_35_1_1_70_1_127", "X_2_1_1_1_1_1_72_1_1_71_1_127", "X_2_1_1_1_1_1_36_1_1_72_1_127"], "CsaImage.ProtocolSliceNumber": [0, 1, 2, 3, 4, 5, 6, 7, 8, 9, 10, 11, 12, 13, 14, 15, 16, 17, 18, 19, 20, 21, 22, 23, 24, 25, 26, 27, 28, 29, 30, 31, 32, 33, 34, 35, 36, 37, 38, 39, 40, 41, 42, 43, 44, 45, 46, 47, 48, 49, 50, 51, 52, 53, 54, 55, 56, 57, 58, 59, 60, 61, 62, 63, 64, 65, 66, 67, 68, 69, 70, 71], "CsaImage.RFSWDDataType": ["measured", "predicted", "measured", "predicted", "measured", "predicted", "measured", "predicted", "measured", "predicted", "measured", "predicted", "measured", "predicted", "measured", "predicted", "measured", "predicted", "measured", "predicted", "measured", "predicted", "measured", "predicted", "measured", "predicted", "measured", "predicted", "measured", "predicted", "measured", "predicted", "measured", "predicted", "measured", "predicted", "measured", "predicted", "measured", "predicted", "measured", "predicted", "measured", "predicted", "measured", "predicted", "measured", "predicted", "measured", "predicted", "measured", "predicted", "measured", "measured", "measured", "measured", "measured", "measured", "measured", "measured", "measured", "measured", "measured", "measured", "measured", "measured", "measured", "measured", "measured", "measured", "measured", "measured"], "CsaImage.SlicePosition_PCS": [[-88.49025364, -127.39485427, -67.79653267], [-88.73011608, -126.84868308, -65.88755898], [-88.96997853, -126.3025138, -63.97859292], [-89.20984192, -125.75634261, -62.06962685], [-89.44970436, -125.21017142, -60.16065316], [-89.68956681, -124.66400023, -58.25168709], [-89.92942925, -124.11782905, -56.3427134], [-90.16929169, -123.57165786, -54.43374733], [-90.40915413, -123.02548667, -52.52478127], [-90.64901657, -122.47931548, -50.61580758], [-90.88887997, -121.93314429, -48.70684151], [-91.12874241, -121.38697501, -46.79787163], [-91.36860485, -120.84080382, -44.88890175], [-91.60846729, -120.29463263, -42.97993187], [-91.84833021, -119.74846145, -41.07096199], [-92.08819266, -119.20229026, -39.16199212], [-92.3280551, -118.65611907, -37.25302605], [-92.56791802, -118.10994788, -35.34405617], [-92.80778046, -117.56377669, -33.43508629], [-93.0476429, -117.0176055, -31.52611641], [-93.28750534, -116.47143622, -29.61714653], [-93.52736826, -115.92526504, -27.70818047], [-93.7672307, -115.37909385, -25.79921059], [-94.00709315, -114.83292266, -23.89024071], [-94.24695606, -114.28675147, -21.98127083], [-94.48681851, -113.74058028, -20.07230095], [-94.72668095, -113.19440909, -18.16333489], [-94.96654387, -112.64823886, -16.25436501], [-95.20640631, -112.10206767, -14.34539513], [-95.44626899, -111.55589648, -12.43642525], [-95.68613143, -111.00972529, -10.52745728], [-95.92599411, -110.46355506, -8.6184874], [-96.16585679, -109.91738387, -6.70951752], [-96.40571923, -109.37121268, -4.80054955], [-96.64558192, -108.82504149, -2.89157967], [-96.88544436, -108.27887031, -0.9826117], [-97.12530704, -107.73270007, 0.92635818], [-97.3651696, -107.18652888, 2.83532711], [-97.60503228, -106.64035769, 4.74429699], [-97.84489484, -106.09418698, 6.65326591], [-98.0847574, -105.54801579, 8.56223484], [-98.32462002, -105.00184461, 10.47120424], [-98.56448258, -104.45567389, 12.38017316], [-98.8043452, -103.90950271, 14.28914233], [-99.0442078, -103.36333199, 16.19811146], [-99.28407039, -102.81716104, 18.10708066], [-99.52393298, -102.27098986, 20.01604982], [-99.76379557, -101.72481891, 21.92501874], [-100.00365819, -101.17864796, 23.83398815], [-100.24352075, -100.63247701, 25.74295707], [-100.48338337, -100.08630606, 27.651926], [-100.72324593, -99.54013508, 29.56089588], [-100.96310849, -98.9939641, 31.4698648], [-101.20297117, -98.44779315, 33.37883468], [-101.44283362, -97.90162214, 35.28780265], [-101.6826963, -97.35545107, 37.19677253], [-101.92255898, -96.80928012, 39.1057405], [-102.16242142, -96.26310917, 41.01471038], [-102.4022841, -95.71693822, 42.92368026], [-102.64214678, -95.17076751, 44.83264823], [-102.88200922, -94.62459632, 46.74161811], [-103.1218719, -94.07842513, 48.65058799], [-103.36173458, -93.53225442, 50.55955787], [-103.60159703, -92.98608323, 52.46852394], [-103.84145947, -92.43991252, 54.37749382], [-104.08132239, -91.89374133, 56.2864637], [-104.32118483, -91.34757014, 58.19543357], [-104.56104727, -90.80139991, 60.10440345], [-104.80091019, -90.25522872, 62.01336952], [-105.04077263, -89.70905753, 63.9223394], [-105.28063507, -89.16288634, 65.83130928], [-105.52049799, -88.61671515, 67.74027916]], "CsaImage.TimeAfterStart": [1.0825, 0.7225, 1.0925, 0.7325, 1.1025, 0.7425, 1.1125, 0.7525, 1.1225, 0.7625, 1.1325, 0.7725, 1.1425, 0.7825, 1.1525, 0.7925, 1.1625, 0.8025, 1.1725, 0.8125, 1.1825, 0.8225, 1.1925, 0.8325, 1.2025, 0.8425, 1.2125, 0.8525, 1.2225, 0.8625, 1.2325, 0.8725, 1.2425, 0.8825, 1.2525, 0.8925, 1.2625, 0.9025, 1.2725, 0.9125, 1.2825, 0.9225, 1.2925, 0.9325, 1.3025, 0.9425, 1.3125, 0.9525, 1.3225, 0.9625, 1.3325, 0.9725, 1.3425, 0.9825, 1.3525, 0.9925, 1.3625, 1.0025, 1.3725, 1.0125, 1.3825, 1.0225, 1.3925, 1.0325, 1.4025, 1.0425, 1.4125, 1.0525, 1.4225, 1.0625, 1.4325, 1.0725], "ImagePositionPatient": [[-88.490253641276, -127.39485426873, -67.79653267331], [-88.730116083292, -126.84868308038, -65.887558979463], [-88.969978525309, -126.30251379937, -63.978592915009], [-89.209841921, -125.75634261102, -62.069626850556], [-89.449704363016, -125.21017142266, -60.160653156709], [-89.689566805033, -124.66400023431, -58.251687092256], [-89.929429247049, -124.11782904595, -56.342713398408], [-90.169291689066, -123.5716578576, -54.433747333955], [-90.409154131083, -123.02548666924, -52.524781269502], [-90.649016573099, -122.47931548089, -50.615807575654], [-90.88887996879, -121.93314429253, -48.706841511201], [-91.128742410807, -121.38697501153, -46.797871632051], [-91.368604852823, -120.84080382317, -44.8889017529], [-91.60846729484, -120.29463263482, -42.97993187375], [-91.848330213694, -119.74846144646, -41.070961994599], [-92.08819265571, -119.20229025811, -39.161992115449], [-92.328055097727, -118.65611906976, -37.253026050996], [-92.567918016581, -118.1099478814, -35.344056171845], [-92.807780458597, -117.56377669305, -33.435086292695], [-93.047642900614, -117.01760550469, -31.526116413545], [-93.287505342631, -116.47143622369, -29.617146534394], [-93.527368261484, -115.92526503533, -27.708180469941], [-93.767230703501, -115.37909384698, -25.799210590791], [-94.007093145518, -114.83292265862, -23.89024071164], [-94.246956064371, -114.28675147027, -21.98127083249], [-94.486818506388, -113.74058028191, -20.07230095334], [-94.726680948404, -113.19440909356, -18.163334888886], [-94.966543867258, -112.64823885888, -16.254365009736], [-95.206406309275, -112.10206767052, -14.345395130586], [-95.44626898971, -111.55589648217, -12.436425251435], [-95.686131431727, -111.00972529382, -10.527457279634], [-95.925994112162, -110.46355505914, -8.6184874004831], [-96.165856792597, -109.91738387078, -6.7095175213327], [-96.405719234614, -109.37121268243, -4.800549549531], [-96.645581915049, -108.82504149407, -2.8915796703806], [-96.885444357065, -108.27887030572, -0.9826116985788], [-97.125307037501, -107.73270007104, 0.92635818057156], [-97.365169598726, -107.18652888268, 2.8353271060476], [-97.605032279162, -106.64035769433, 4.744296985198], [-97.844894840388, -106.09418698281, 6.6532659106741], [-98.084757401613, -105.54801579446, 8.5622348361502], [-98.324620022444, -105.0018446061, 10.471204238463], [-98.56448258367, -104.45567389458, 12.380173163939], [-98.8043452045, -103.90950270623, 14.289142327834], [-99.044207795529, -103.36333199471, 16.198111461926], [-99.284070389816, -102.81716104478, 18.107080655623], [-99.523932977585, -102.27098985642, 20.016049819518], [-99.763795568613, -101.72481890649, 21.925018744994], [-100.00365818944, -101.17864795655, 23.833988147307], [-100.24352075067, -100.63247700661, 25.742957072783], [-100.4833833715, -100.08630605668, 27.65192599826], [-100.72324593273, -99.540135076941, 29.56089587741], [-100.96310849395, -98.993964097202, 31.469864802886], [-101.20297117439, -98.447793147266, 33.378834682036], [-101.4428336164, -97.901622137726, 35.287802653838], [-101.68269629684, -97.355451068581, 37.196772532989], [-101.92255897727, -96.809280118645, 39.10574050479], [-102.16242141929, -96.263109168709, 41.014710383941], [-102.40228409973, -95.716938218773, 42.923680263091], [-102.64214678016, -95.170767507256, 44.832648234893], [-102.88200922218, -94.624596318901, 46.741618114043], [-103.12187190261, -94.078425130547, 48.650587993194], [-103.36173458305, -93.532254419029, 50.559557872344], [-103.60159702506, -92.986083230675, 52.468523936797], [-103.84145946708, -92.439912519157, 54.377493815948], [-104.08132238594, -91.893741330803, 56.286463695098], [-104.32118482795, -91.347570142448, 58.195433574248], [-104.56104726997, -90.801399907768, 60.104403453399], [-104.80091018882, -90.255228719414, 62.013369517852], [-105.04077263084, -89.709057531059, 63.922339397002], [-105.28063507286, -89.162886342705, 65.831309276153], [-105.52049799171, -88.61671515435, 67.740279155303]], "InstanceCreationTime": ["134542.978000", "134542.794000", "134542.980000", "134542.796000", "134542.982000", "134542.798000", "134542.983000", "134542.800000", "134542.986000", "134542.802000", "134542.988000", "134542.804000", "134542.989000", "134542.806000", "134542.991000", "134542.808000", "134542.993000", "134542.810000", "134542.995000", "134542.812000", "134542.997000", "134542.814000", "134543.000000", "134542.816000", "134543.002000", "134542.924000", "134543.004000", "134542.926000", "134543.006000", "134542.928000", "134543.008000", "134542.929000", "134543.010000", "134542.931000", "134543.012000", "134542.933000", "134543.014000", "134542.935000", "134543.016000", "134542.937000", "134543.018000", "134542.939000", "134543.020000", "134542.941000", "134543.022000", "134542.943000", "134543.024000", "134542.945000", "134543.026000", "134542.955000", "134543.028000", "134542.956000", "134543.030000", "134542.958000", "134543.032000", "134542.960000", "134543.034000", "134542.962000", "134543.038000", "134542.964000", "134543.040000", "134542.966000", "134543.042000", "134542.968000", "134543.044000", "134542.970000", "134543.046000", "134542.972000", "134543.049000", "134542.974000", "134543.052000", "134542.976000"], "InstanceNumber": [1, 2, 3, 4, 5, 6, 7, 8, 9, 10, 11, 12, 13, 14, 15, 16, 17, 18, 19, 20, 21, 22, 23, 24, 25, 26, 27, 28, 29, 30, 31, 32, 33, 34, 35, 36, 37, 38, 39, 40, 41, 42, 43, 44, 45, 46, 47, 48, 49, 50, 51, 52, 53, 54, 55, 56, 57, 58, 59, 60, 61, 62, 63, 64, 65, 66, 67, 68, 69, 70, 71, 72], "LargestImagePixelValue": [4095, 4094, 4095, 4094, 4094, 4093, 4095, 4094, 4095, 4093, 4095, 4090, 4095, 4095, 4094, 4090, 4095, 4094, 4093, 4095, 4092, 4094, 4094, 4095, 4086, 4094, 4095, 4094, 4095, 4089, 4088, 4090, 4086, 4090, 4092, 4092, 4091, 4091, 4095, 4095, 4091, 4094, 4090, 4094, 4090, 4095, 4094, 4093, 4090, 4095, 4092, 4094, 4093, 4092, 4095, 4095, 4093, 4094, 4095, 4092, 4095, 4093, 4094, 4094, 4095, 4094, 4095, 4094, 4094, 4095, 4094, 4093], "SliceLocation": [-88.887679308161, -86.887674927696, -84.887678350239, -82.887681137538, -80.887676757073, -78.887679658747, -76.887675278282, -74.887678179957, -72.887681081631, -70.887676701166, -68.887679488465, -66.887679269939, -64.887678530543, -62.887677791148, -60.887676994565, -58.887676255169, -56.887679156844, -54.88767836026, -52.887677620865, -50.88767688147, -48.887676662943, -46.88767950743, -44.887678768035, -42.887678028639, -40.887677232056, -38.887676492661, -36.887679394335, -34.887678858187, -32.887678118791, -30.887677350802, -28.887678431941, -26.887677924387, -24.887677156398, -22.887678237537, -20.887677469548, -18.887678550687, -16.887678043133, -14.887678199708, -12.887677431718, -10.887677718511, -8.887677875086, -6.8876775693789, -4.8876778561713, -2.8876777780311, -0.8876778621283, 1.1123221761658, 3.1123222503409, 5.1123220322314, 7.1123222728298, 9.112322051146, 11.112321836611, 13.112322533333, 15.112322319788, 17.112323022668, 19.112321892697, 21.112322628132, 23.112321510478, 25.112322184765, 27.112322887645, 29.112321704883, 31.112322444278, 33.112323212267, 35.112323850039, 37.112320948365, 39.112321557543, 41.112322354126, 43.112323093521, 45.112323572482, 47.112320727996, 49.112321467391, 51.112322206786, 53.112323003369], "SmallestImagePixelValue": [0, 0, 0, 0, 0, 1, 0, 1, 0, 1, 0, 1, 0, 0, 0, 0, 1, 1, 2, 0, 1, 0, 0, 0, 0, 1, 0, 0, 1, 0, 0, 1, 1, 0, 1, 0, 0, 7, 0, 2, 0, 0, 0, 0, 3, 2, 6, 23, 0, 1, 1, 0, 0, 0, 2, 0, 2, 8, 4, 0, 1, 0, 0, 0, 0, 0, 1, 2, 0, 0, 0, 0], "WindowCenter": [-210.0, -196.0, -224.0, -220.0, -220.0, -206.0, -188.0, -198.0, -218.0, -208.0, -284.0, -354.0, -366.0, -376.0, -350.0, -284.0, -272.0, -276.0, -188.0, -186.0, -210.0, -214.0, -292.0, -330.0, -342.0, -344.0, -326.0, -324.0, -304.0, -296.0, -254.0, -208.0, -216.0, -194.0, -174.0, -132.0, -130.0, -112.0, -126.0, -144.0, -100.0, -120.0, -78.0, -72.0, -86.0, -78.0, -74.0, -88.0, -78.0, -52.0, -72.0, -210.0, -222.0, -230.0, -98.0, -208.0, -216.0, -84.0, -210.0, -256.0, -240.0, -266.0, -110.0, -128.0, -112.0, -116.0, -124.0, -142.0, -236.0, -250.0, -258.0, -304.0], "WindowWidth": [6296.0, 6290.0, 6314.0, 6300.0, 6326.0, 6336.0, 6352.0, 6410.0, 6416.0, 6352.0, 6300.0, 6186.0, 6138.0, 6124.0, 6130.0, 6054.0, 6138.0, 6176.0, 6298.0, 6346.0, 6352.0, 6348.0, 6274.0, 6188.0, 6150.0, 6100.0, 5998.0, 5926.0, 5868.0, 5786.0, 5730.0, 5634.0, 5434.0, 5362.0, 5380.0, 5426.0, 5356.0, 5354.0, 5210.0, 5128.0, 5278.0, 5080.0, 5362.0, 5320.0, 5210.0, 5242.0, 5242.0, 5180.0, 5248.0, 5332.0, 5206.0, 4600.0, 4612.0, 4622.0, 5132.0, 4616.0, 4626.0, 5260.0, 4666.0, 4692.0, 4696.0, 4732.0, 5418.0, 5426.0, 5628.0, 5606.0, 5728.0, 5860.0, 5940.0, 5944.0, 6008.0, 5964.0]}}, "IntendedFor": ["ses-action01/func/sub-25_ses-action01_task-action_run-01_bold.nii.gz", "ses-action01/func/sub-25_ses-action01_task-action_run-11_bold.nii.gz", "ses-action01/func/sub-25_ses-action01_task-action_run-03_bold.nii.gz", "ses-action01/func/sub-25_ses-action01_task-action_run-05_bold.nii.gz", "ses-action01/func/sub-25_ses-action01_task-action_run-07_bold.nii.gz", "ses-action01/func/sub-25_ses-action01_task-action_run-08_bold.nii.gz", "ses-action01/func/sub-25_ses-action01_task-action_run-04_bold.nii.gz", "ses-action01/func/sub-25_ses-action01_task-action_run-09_bold.nii.gz", "ses-action01/func/sub-25_ses-action01_task-action_run-06_bold.nii.gz", "ses-action01/func/sub-25_ses-action01_task-action_run-10_bold.nii.gz", "ses-action01/func/sub-25_ses-action01_task-action_run-02_bold.nii.gz", "ses-action01/func/sub-25_ses-action01_task-action_run-12_bold.nii.gz"]}