{"AcquisitionMatrixPE": 100, "AcquisitionNumber": 1, "AcquisitionTime": "14:59:20.922500", "BaseResolution": 100, "BodyPartExamined": "BRAIN", "CoilCombinationMethod": "Sum of Squares", "ConsistencyInfo": "N4_VE11C_LATEST_20160120", "ConversionSoftware": "dcm2niix", "ConversionSoftwareVersion": "v1.0.20211006", "DeviceSerialNumber": "166078", "DwellTime": 8.8e-06, "EchoNumber": 2, "EchoTime": 0.00738, "EchoTime1": 0.00492, "EchoTime2": 0.00738, "FlipAngle": 60, "ImageOrientationPatientDICOM": [1, 4.13127e-05, 0.000327316, -5.818e-12, 0.992129, -0.125223], "ImageOrientationText": "Tra>Cor(-7.2)>Sag(0.0)", "ImageType": ["ORIGINAL", "PRIMARY", "P", "ND", "PHASE"], "ImagingFrequency": 123.258, "InPlanePhaseEncodingDirectionDICOM": "ROW", "InstitutionAddress": "Street StreetNo,Bei Jing,District,CN,ZIP", "InstitutionName": "BeiJing Normal University", "InstitutionalDepartmentName": "Department", "MRAcquisitionType": "2D", "MagneticFieldStrength": 3, "Manufacturer": "Siemens", "ManufacturersModelName": "Prisma", "MatrixCoilMode": "SENSE", "Modality": "MR", "PartialFourier": 1, "PatientPosition": "HFS", "PercentPhaseFOV": 100, "PercentSampling": 100, "PhaseEncodingDirection": "i", "PhaseEncodingSteps": 100, "PhaseResolution": 1, "PixelBandwidth": 570, "ProcedureStepDescription": "BNU_P2018_64CH^Zhen.ZongLei", "ProtocolName": "field_mapping_2x2x2", "PulseSequenceDetails": "%SiemensSeq%\\gre_field_mapping", "ReceiveCoilActiveElements": "HC1-7;NC1", "ReceiveCoilName": "HeadNeck_64", "ReconMatrixPE": 100, "RepetitionTime": 0.72, "SAR": 0.133958, "ScanningSequence": "GR", "SequenceName": "*fm2d2r", "SequenceVariant": "SP", "SeriesDescription": "field_mapping_2x2x2", "SeriesNumber": 10, "ShimSetting": [-5474, -11505, -1255, 265, -37, -215, -59, 21], "SliceThickness": 2, "SliceTiming": [0.35938, 0, 0.375, 0.01562, 0.375, 0.01562, 0.39062, 0.03125, 0.40625, 0.04688, 0.40625, 0.04688, 0.42188, 0.0625, 0.4375, 0.0625, 0.4375, 0.07812, 0.45312, 0.09375, 0.45312, 0.09375, 0.46875, 0.10938, 0.48438, 0.125, 0.48438, 0.125, 0.5, 0.14062, 0.51562, 0.15625, 0.51562, 0.15625, 0.53125, 0.17188, 0.54688, 0.1875, 0.54688, 0.1875, 0.5625, 0.20312, 0.5625, 0.20312, 0.57812, 0.21875, 0.59375, 0.23438, 0.59375, 0.23438, 0.60938, 0.25, 0.625, 0.26562, 0.625, 0.26562, 0.64062, 0.28125, 0.65625, 0.29688, 0.65625, 0.29688, 0.67188, 0.3125, 0.6875, 0.3125, 0.6875, 0.32812, 0.70312, 0.34375, 0.70312, 0.34375], "SoftwareVersions": "syngo MR E11", "SpacingBetweenSlices": 2, "StationName": "AWP166078", "TxRefAmp": 252.632, "dcmmeta_affine": [[-1.9999998807907104, -1.1636000323000939e-11, 0.0006598532199859619, 100.4209213256836], [-8.262544724857435e-05, 1.9842572212219238, -0.2504463195800781, -84.93672180175781], [0.0006546310614794493, 0.2504465878009796, 1.9842605590820312, -77.17208099365234], [0.0, 0.0, 0.0, 1.0]], "dcmmeta_reorient_transform": [[0.0, -1.0, 0.0, 99.0], [1.0, 0.0, 0.0, 0.0], [0.0, 0.0, -1.0, 71.0], [0.0, 0.0, 0.0, 1.0]], "dcmmeta_shape": [100, 100, 72], "dcmmeta_slice_dim": 2, "dcmmeta_version": 0.6, "global": {"const": {"AcquisitionMatrix": [0, 100, 100, 0], "AcquisitionNumber": 1, "AngioFlag": "N", "BitsAllocated": 16, "BitsStored": 12, "BodyPartExamined": "BRAIN", "Columns": 100, "EchoNumbers": 2, "EchoTime": 7.38, "EchoTrainLength": 0, "FlipAngle": 60.0, "HighBit": 11, "ImageOrientationPatient": [0.9999999455789, 4.131272462e-05, 0.00032731552678, -5.818e-12, 0.99212858345359, -0.1252232961328], "ImageType": ["ORIGINAL", "PRIMARY", "P", "ND"], "ImagedNucleus": "1H", "ImagingFrequency": 123.257737, "InPlanePhaseEncodingDirection": "ROW", "MRAcquisitionType": "2D", "MagneticFieldStrength": 3.0, "Manufacturer": "SIEMENS", "ManufacturerModelName": "Prisma", "Modality": "MR", "NumberOfAverages": 1.0, "NumberOfPhaseEncodingSteps": 100, "PercentPhaseFieldOfView": 100.0, "PercentSampling": 100.0, "PerformedProcedureStepStartTime": "142104.898000", "PhotometricInterpretation": "MONOCHROME2", "PixelBandwidth": 570.0, "PixelRepresentation": 0, "PixelSpacing": [2.0, 2.0], "ProtocolName": "field_mapping_2x2x2", "RepetitionTime": 720.0, "RescaleIntercept": -4096.0, "RescaleSlope": 2.0, "RescaleType": "US", "Rows": 100, "SAR": 0.13395795039769, "SamplesPerPixel": 1, "ScanningSequence": "GR", "SequenceName": "*fm2d2r", "SequenceVariant": "SP", "SeriesDescription": "field_mapping_2x2x2", "SeriesNumber": 10, "SeriesTime": "150145.411000", "SliceThickness": 2.0, "SoftwareVersions": "syngo MR E11", "SpacingBetweenSlices": 2.0, "SpecificCharacterSet": "ISO_IR 100", "StudyID": "1", "StudyTime": "142104.807000", "TransmitCoilName": "Body", "VariableFlipAngleFlag": "N", "WindowCenterWidthExplanation": "Algo1", "dBdt": 0.0}, "slices": {"AcquisitionTime": ["145920.922500", "145920.562500", "145920.932500", "145920.572500", "145920.942500", "145920.582500", "145920.952500", "145920.592500", "145920.962500", "145920.602500", "145920.972500", "145920.612500", "145920.982500", "145920.622500", "145920.992500", "145920.632500", "145921.002500", "145920.642500", "145921.012500", "145920.652500", "145921.022500", "145920.662500", "145921.032500", "145920.672500", "145921.042500", "145920.682500", "145921.052500", "145920.692500", "145921.062500", "145920.702500", "145921.072500", "145920.712500", "145921.082500", "145920.722500", "145921.092500", "145920.732500", "145921.102500", "145920.742500", "145921.112500", "145920.752500", "145921.122500", "145920.762500", "145921.132500", "145920.772500", "145921.142500", "145920.782500", "145921.152500", "145920.792500", "145921.162500", "145920.802500", "145921.172500", "145920.812500", "145921.182500", "145920.822500", "145921.192500", "145920.832500", "145921.202500", "145920.842500", "145921.212500", "145920.852500", "145921.222500", "145920.862500", "145921.232500", "145920.872500", "145921.242500", "145920.882500", "145921.252500", "145920.892500", "145921.262500", "145920.902500", "145921.272500", "145920.912500"], "ContentTime": ["150145.480000", "150145.413000", "150145.482000", "150145.415000", "150145.484000", "150145.417000", "150145.486000", "150145.419000", "150145.488000", "150145.420000", "150145.490000", "150145.422000", "150145.492000", "150145.424000", "150145.493000", "150145.426000", "150145.495000", "150145.428000", "150145.497000", "150145.430000", "150145.499000", "150145.431000", "150145.501000", "150145.433000", "150145.503000", "150145.435000", "150145.505000", "150145.437000", "150145.507000", "150145.439000", "150145.510000", "150145.441000", "150145.512000", "150145.443000", "150145.514000", "150145.444000", "150145.515000", "150145.446000", "150145.517000", "150145.448000", "150145.519000", "150145.450000", "150145.521000", "150145.452000", "150145.523000", "150145.454000", "150145.525000", "150145.456000", "150145.527000", "150145.457000", "150145.529000", "150145.459000", "150145.531000", "150145.461000", "150145.533000", "150145.463000", "150145.535000", "150145.465000", "150145.537000", "150145.467000", "150145.539000", "150145.468000", "150145.540000", "150145.471000", "150145.542000", "150145.473000", "150145.544000", "150145.475000", "150145.546000", "150145.477000", "150145.548000", "150145.478000"], "CsaImage.GSWDDataType": ["measured", "predicted", "measured", "predicted", "measured", "predicted", "measured", "predicted", "measured", "predicted", "measured", "predicted", "measured", "predicted", "measured", "predicted", "measured", "predicted", "measured", "predicted", "measured", "predicted", "measured", "predicted", "measured", "predicted", "measured", "predicted", "measured", "predicted", "measured", "predicted", "measured", "predicted", "measured", "predicted", "measured", "predicted", "measured", "predicted", "measured", "predicted", "measured", "predicted", "measured", "predicted", "measured", "predicted", "measured", "predicted", "measured", "predicted", "measured", "predicted", "measured", "predicted", "measured", "predicted", "measured", "predicted", "measured", "measured", "measured", "measured", "measured", "measured", "measured", "measured", "measured", "measured", "measured", "measured"], "CsaImage.ICE_Dims": ["X_2_1_1_1_1_1_37_1_1_1_1_143", "X_2_1_1_1_1_1_1_1_1_2_1_143", "X_2_1_1_1_1_1_38_1_1_3_1_143", "X_2_1_1_1_1_1_2_1_1_4_1_143", "X_2_1_1_1_1_1_39_1_1_5_1_143", "X_2_1_1_1_1_1_3_1_1_6_1_143", "X_2_1_1_1_1_1_40_1_1_7_1_143", "X_2_1_1_1_1_1_4_1_1_8_1_143", "X_2_1_1_1_1_1_41_1_1_9_1_143", "X_2_1_1_1_1_1_5_1_1_10_1_143", "X_2_1_1_1_1_1_42_1_1_11_1_143", "X_2_1_1_1_1_1_6_1_1_12_1_143", "X_2_1_1_1_1_1_43_1_1_13_1_143", "X_2_1_1_1_1_1_7_1_1_14_1_143", "X_2_1_1_1_1_1_44_1_1_15_1_143", "X_2_1_1_1_1_1_8_1_1_16_1_143", "X_2_1_1_1_1_1_45_1_1_17_1_143", "X_2_1_1_1_1_1_9_1_1_18_1_143", "X_2_1_1_1_1_1_46_1_1_19_1_143", "X_2_1_1_1_1_1_10_1_1_20_1_143", "X_2_1_1_1_1_1_47_1_1_21_1_143", "X_2_1_1_1_1_1_11_1_1_22_1_143", "X_2_1_1_1_1_1_48_1_1_23_1_143", "X_2_1_1_1_1_1_12_1_1_24_1_143", "X_2_1_1_1_1_1_49_1_1_25_1_143", "X_2_1_1_1_1_1_13_1_1_26_1_143", "X_2_1_1_1_1_1_50_1_1_27_1_143", "X_2_1_1_1_1_1_14_1_1_28_1_143", "X_2_1_1_1_1_1_51_1_1_29_1_143", "X_2_1_1_1_1_1_15_1_1_30_1_143", "X_2_1_1_1_1_1_52_1_1_31_1_143", "X_2_1_1_1_1_1_16_1_1_32_1_143", "X_2_1_1_1_1_1_53_1_1_33_1_143", "X_2_1_1_1_1_1_17_1_1_34_1_143", "X_2_1_1_1_1_1_54_1_1_35_1_143", "X_2_1_1_1_1_1_18_1_1_36_1_143", "X_2_1_1_1_1_1_55_1_1_37_1_143", "X_2_1_1_1_1_1_19_1_1_38_1_143", "X_2_1_1_1_1_1_56_1_1_39_1_143", "X_2_1_1_1_1_1_20_1_1_40_1_143", "X_2_1_1_1_1_1_57_1_1_41_1_143", "X_2_1_1_1_1_1_21_1_1_42_1_143", "X_2_1_1_1_1_1_58_1_1_43_1_143", "X_2_1_1_1_1_1_22_1_1_44_1_143", "X_2_1_1_1_1_1_59_1_1_45_1_143", "X_2_1_1_1_1_1_23_1_1_46_1_143", "X_2_1_1_1_1_1_60_1_1_47_1_143", "X_2_1_1_1_1_1_24_1_1_48_1_143", "X_2_1_1_1_1_1_61_1_1_49_1_143", "X_2_1_1_1_1_1_25_1_1_50_1_143", "X_2_1_1_1_1_1_62_1_1_51_1_143", "X_2_1_1_1_1_1_26_1_1_52_1_143", "X_2_1_1_1_1_1_63_1_1_53_1_143", "X_2_1_1_1_1_1_27_1_1_54_1_143", "X_2_1_1_1_1_1_64_1_1_55_1_143", "X_2_1_1_1_1_1_28_1_1_56_1_143", "X_2_1_1_1_1_1_65_1_1_57_1_143", "X_2_1_1_1_1_1_29_1_1_58_1_143", "X_2_1_1_1_1_1_66_1_1_59_1_143", "X_2_1_1_1_1_1_30_1_1_60_1_143", "X_2_1_1_1_1_1_67_1_1_61_1_143", "X_2_1_1_1_1_1_31_1_1_62_1_143", "X_2_1_1_1_1_1_68_1_1_63_1_143", "X_2_1_1_1_1_1_32_1_1_64_1_143", "X_2_1_1_1_1_1_69_1_1_65_1_143", "X_2_1_1_1_1_1_33_1_1_66_1_143", "X_2_1_1_1_1_1_70_1_1_67_1_143", "X_2_1_1_1_1_1_34_1_1_68_1_143", "X_2_1_1_1_1_1_71_1_1_69_1_143", "X_2_1_1_1_1_1_35_1_1_70_1_143", "X_2_1_1_1_1_1_72_1_1_71_1_143", "X_2_1_1_1_1_1_36_1_1_72_1_143"], "CsaImage.ProtocolSliceNumber": [0, 1, 2, 3, 4, 5, 6, 7, 8, 9, 10, 11, 12, 13, 14, 15, 16, 17, 18, 19, 20, 21, 22, 23, 24, 25, 26, 27, 28, 29, 30, 31, 32, 33, 34, 35, 36, 37, 38, 39, 40, 41, 42, 43, 44, 45, 46, 47, 48, 49, 50, 51, 52, 53, 54, 55, 56, 57, 58, 59, 60, 61, 62, 63, 64, 65, 66, 67, 68, 69, 70, 71], "CsaImage.RFSWDDataType": ["measured", "predicted", "measured", "predicted", "measured", "predicted", "measured", "predicted", "measured", "predicted", "measured", "predicted", "measured", "predicted", "measured", "predicted", "measured", "predicted", "measured", "predicted", "measured", "predicted", "measured", "predicted", "measured", "predicted", "measured", "predicted", "measured", "predicted", "measured", "predicted", "measured", "predicted", "measured", "predicted", "measured", "predicted", "measured", "predicted", "measured", "predicted", "measured", "predicted", "measured", "predicted", "measured", "predicted", "measured", "predicted", "measured", "predicted", "measured", "predicted", "measured", "predicted", "measured", "measured", "measured", "measured", "measured", "measured", "measured", "measured", "measured", "measured", "measured", "measured", "measured", "measured", "measured", "measured"], "CsaImage.SlicePosition_PCS": [[-100.4209211, -111.50475798, -52.37762759], [-100.42158092, -111.25431166, -50.39336703], [-100.42224075, -111.00386439, -48.40911028], [-100.42290057, -110.75341807, -46.42485354], [-100.42356039, -110.50297175, -44.44059679], [-100.42422025, -110.25252543, -42.45634005], [-100.42488007, -110.00207816, -40.47208331], [-100.42553989, -109.75163184, -38.48782275], [-100.42619972, -109.50118552, -36.503566], [-100.42685954, -109.25073824, -34.51930926], [-100.42751936, -109.00029192, -32.53505251], [-100.42817919, -108.74984561, -30.55079577], [-100.42883901, -108.49939929, -28.56653902], [-100.42949883, -108.24895201, -26.58228228], [-100.43015866, -107.99850569, -24.59802554], [-100.43081848, -107.74805937, -22.61376879], [-100.4314783, -107.4976121, -20.62951205], [-100.43213813, -107.24716578, -18.6452534], [-100.43279795, -106.99671946, -16.66099665], [-100.43345777, -106.74627266, -14.67673991], [-100.4341176, -106.49582634, -12.69248316], [-100.43477742, -106.24537955, -10.70822642], [-100.43543724, -105.99493275, -8.72396777], [-100.43609707, -105.74448643, -6.73971102], [-100.43675689, -105.49403964, -4.75545428], [-100.43741671, -105.24359332, -2.77119753], [-100.43807654, -104.99314652, -0.78694079], [-100.43873639, -104.7427002, 1.19731691], [-100.43939621, -104.4922534, 3.18157365], [-100.44005604, -104.24180661, 5.16583088], [-100.44071586, -103.99136029, 7.15008762], [-100.44137568, -103.74091349, 9.13434484], [-100.44203551, -103.49046717, 11.11860182], [-100.44269533, -103.24002038, 13.10285893], [-100.44335515, -102.98957382, 15.08711603], [-100.44401498, -102.73912726, 17.07137325], [-100.4446748, -102.4886807, 19.05562999], [-100.44533462, -102.23823414, 21.03988721], [-100.44599445, -101.98778759, 23.02414396], [-100.44665427, -101.73734103, 25.00840166], [-100.44731409, -101.48689423, 26.9926584], [-100.44797392, -101.23644767, 28.9769161], [-100.44863374, -100.98600112, 30.96117284], [-100.44929356, -100.73555456, 32.94542959], [-100.44995339, -100.485108, 34.92968633], [-100.45061321, -100.23466132, 36.91394308], [-100.45127304, -99.98421476, 38.89819982], [-100.45193286, -99.73376821, 40.88245847], [-100.45259268, -99.48332159, 42.86671522], [-100.45325254, -99.23287501, 44.85097196], [-100.45391236, -98.98242843, 46.83522871], [-100.45457218, -98.73198183, 48.81948545], [-100.45523201, -98.48153524, 50.8037422], [-100.45589183, -98.23108868, 52.78799894], [-100.45655165, -97.98064206, 54.77225568], [-100.45721148, -97.7301955, 56.75651243], [-100.4578713, -97.47974883, 58.74077299], [-100.45853112, -97.22930227, 60.72502973], [-100.45919095, -96.97885571, 62.70928648], [-100.45985077, -96.72840915, 64.69354322], [-100.46051059, -96.47796259, 66.67779996], [-100.46117042, -96.22751604, 68.66205671], [-100.46183024, -95.97706924, 70.64631345], [-100.46249006, -95.72662268, 72.6305702], [-100.46314989, -95.47617612, 74.61482694], [-100.46380971, -95.22572957, 76.5990875], [-100.46446953, -94.97528277, 78.58334043], [-100.46512936, -94.72483645, 80.56760099], [-100.46578918, -94.47438965, 82.55185392], [-100.466449, -94.22394333, 84.53611448], [-100.46710883, -93.97349654, 86.52036741], [-100.46776868, -93.72305022, 88.50462797]], "CsaImage.TimeAfterStart": [1.0825, 0.7225, 1.0925, 0.7325, 1.1025, 0.7425, 1.1125, 0.7525, 1.1225, 0.7625, 1.1325, 0.7725, 1.1425, 0.7825, 1.1525, 0.7925, 1.1625, 0.8025, 1.1725, 0.8125, 1.1825, 0.8225, 1.1925, 0.8325, 1.2025, 0.8425, 1.2125, 0.8525, 1.2225, 0.8625, 1.2325, 0.8725, 1.2425, 0.8825, 1.2525, 0.8925, 1.2625, 0.9025, 1.2725, 0.9125, 1.2825, 0.9225, 1.2925, 0.9325, 1.3025, 0.9425, 1.3125, 0.9525, 1.3225, 0.9625, 1.3325, 0.9725, 1.3425, 0.9825, 1.3525, 0.9925, 1.3625, 1.0025, 1.3725, 1.0125, 1.3825, 1.0225, 1.3925, 1.0325, 1.4025, 1.0425, 1.4125, 1.0525, 1.4225, 1.0625, 1.4325, 1.0725], "ImagePositionPatient": [[-100.4209210984, -111.50475798177, -52.377627586366], [-100.42158092182, -111.25431166219, -50.393367027284], [-100.42224074523, -111.00386438894, -48.4091102829], [-100.42290056865, -110.75341806936, -46.424853538515], [-100.42356039207, -110.50297174978, -44.44059679413], [-100.42422024529, -110.2525254302, -42.456340049745], [-100.42488006871, -110.00207815694, -40.47208330536], [-100.42553989212, -109.75163183736, -38.487822746278], [-100.42619971554, -109.50118551778, -36.503566001894], [-100.42685953896, -109.25073824453, -34.519309257509], [-100.42751936238, -109.00029192495, -32.535052513124], [-100.42817918579, -108.74984560537, -30.550795768739], [-100.42883900921, -108.49939928579, -28.566539024355], [-100.42949883263, -108.24895201254, -26.58228227997], [-100.43015865605, -107.99850569296, -24.598025535585], [-100.43081847947, -107.74805937338, -22.6137687912], [-100.43147830288, -107.49761210012, -20.629512046816], [-100.4321381263, -107.24716578054, -18.645253395082], [-100.43279794972, -106.99671946096, -16.660996650697], [-100.43345777314, -106.74627266454, -14.676739906313], [-100.43411759655, -106.49582634496, -12.692483161928], [-100.43477741997, -106.24537954855, -10.708226417543], [-100.43543724339, -105.99493275213, -8.7239677658097], [-100.43609706681, -105.74448643255, -6.7397110214249], [-100.43675689022, -105.49403963613, -4.7554542770402], [-100.43741671364, -105.24359331655, -2.7711975326554], [-100.43807653706, -104.99314652013, -0.7869407882707], [-100.43873639028, -104.74270020055, 1.1973169097884], [-100.4393962137, -104.49225340414, 3.1815736541732], [-100.44005603712, -104.24180660772, 5.1658308753951], [-100.44071586053, -103.99136028814, 7.1500876197799], [-100.44137568395, -103.74091349172, 9.1343448410018], [-100.44203550737, -103.49046717214, 11.118601823805], [-100.44269533079, -103.24002037573, 13.102858925818], [-100.4433551542, -102.98957381773, 15.08711602783], [-100.44401497762, -102.73912725973, 17.071373249052], [-100.44467480104, -102.48868070173, 19.055629993437], [-100.44533462446, -102.23823414373, 21.039887214659], [-100.44599444787, -101.98778758573, 23.024143959044], [-100.44665427129, -101.73734102773, 25.008401657103], [-100.44731409471, -101.48689423132, 26.992658401488], [-100.44797391813, -101.23644767332, 28.976916099547], [-100.44863374154, -100.98600111532, 30.961172843931], [-100.44929356496, -100.73555455732, 32.945429588316], [-100.44995338838, -100.48510799932, 34.929686332701], [-100.4506132118, -100.23466132211, 36.913943077086], [-100.45127303522, -99.984214764115, 38.898199821471], [-100.45193285863, -99.733768206116, 40.882458473204], [-100.45259268205, -99.483321588513, 42.866715217589], [-100.45325253527, -99.232875011888, 44.850971961973], [-100.45391235869, -98.982428427812, 46.835228706358], [-100.45457218211, -98.73198182511, 48.819485450743], [-100.45523200552, -98.481535237309, 50.803742195128], [-100.45589182894, -98.23108867931, 52.787998939513], [-100.45655165236, -97.980642061707, 54.772255683897], [-100.45721147578, -97.730195503708, 56.756512428282], [-100.45787129919, -97.4797488265, 58.740772987364], [-100.45853112261, -97.229302268502, 60.725029731749], [-100.45919094603, -96.978855710503, 62.709286476134], [-100.45985076945, -96.728409152504, 64.693543220518], [-100.46051059286, -96.477962594506, 66.677799964903], [-100.46117041628, -96.227516036507, 68.662056709288], [-100.4618302397, -95.97706924009, 70.646313453673], [-100.46249006312, -95.726622682091, 72.630570198057], [-100.46314988654, -95.476176124092, 74.614826942442], [-100.46380970995, -95.225729566094, 76.599087501524], [-100.46446953337, -94.975282769676, 78.583340431212], [-100.46512935679, -94.724836450096, 80.567600990294], [-100.46578918021, -94.474389653679, 82.551853919981], [-100.46644900362, -94.223943334099, 84.536114479063], [-100.46710882704, -93.973496537682, 86.520367408751], [-100.46776868026, -93.723050218102, 88.504627967833]], "InstanceCreationTime": ["150145.480000", "150145.413000", "150145.482000", "150145.415000", "150145.484000", "150145.417000", "150145.486000", "150145.419000", "150145.488000", "150145.420000", "150145.490000", "150145.422000", "150145.492000", "150145.424000", "150145.493000", "150145.426000", "150145.495000", "150145.428000", "150145.497000", "150145.430000", "150145.499000", "150145.431000", "150145.501000", "150145.433000", "150145.503000", "150145.435000", "150145.505000", "150145.437000", "150145.507000", "150145.439000", "150145.510000", "150145.441000", "150145.512000", "150145.443000", "150145.514000", "150145.444000", "150145.515000", "150145.446000", "150145.517000", "150145.448000", "150145.519000", "150145.450000", "150145.521000", "150145.452000", "150145.523000", "150145.454000", "150145.525000", "150145.456000", "150145.527000", "150145.457000", "150145.529000", "150145.459000", "150145.531000", "150145.461000", "150145.533000", "150145.463000", "150145.535000", "150145.465000", "150145.537000", "150145.467000", "150145.539000", "150145.468000", "150145.540000", "150145.471000", "150145.542000", "150145.473000", "150145.544000", "150145.475000", "150145.546000", "150145.477000", "150145.548000", "150145.478000"], "InstanceNumber": [1, 2, 3, 4, 5, 6, 7, 8, 9, 10, 11, 12, 13, 14, 15, 16, 17, 18, 19, 20, 21, 22, 23, 24, 25, 26, 27, 28, 29, 30, 31, 32, 33, 34, 35, 36, 37, 38, 39, 40, 41, 42, 43, 44, 45, 46, 47, 48, 49, 50, 51, 52, 53, 54, 55, 56, 57, 58, 59, 60, 61, 62, 63, 64, 65, 66, 67, 68, 69, 70, 71, 72], "LargestImagePixelValue": [4095, 4092, 4095, 4094, 4094, 4094, 4095, 4093, 4094, 4095, 4095, 4095, 4094, 4095, 4095, 4095, 4094, 4094, 4095, 4094, 4092, 4092, 4094, 4094, 4094, 4091, 4094, 4089, 4086, 4091, 4088, 4090, 4095, 4093, 4095, 4095, 4094, 4093, 4092, 4092, 4094, 4094, 4087, 4095, 4095, 4093, 4093, 4090, 4094, 4095, 4095, 4095, 4095, 4093, 4094, 4095, 4091, 4095, 4094, 4095, 4092, 4095, 4094, 4095, 4094, 4094, 4094, 4094, 4095, 4094, 4093, 4094], "SliceLocation": [-65.895201095362, -63.895197655193, -61.895197880272, -59.895198224774, -57.895198569275, -55.895198913767, -53.895199138846, -51.895195698677, -49.895196043179, -47.895196268258, -45.895196612759, -43.89519695726, -41.895197301762, -39.895197526841, -37.895197871342, -35.895198215844, -33.895198440923, -31.895196893089, -29.895197237591, -27.895197522381, -25.895197866882, -23.895198151673, -21.895196544128, -19.895196888629, -17.89519717342, -15.895197517921, -13.895197802711, -11.895197201035, -9.8951974858257, -7.8951972975322, -5.8951976420336, -3.8951974537402, -1.8951975616997, 0.10480250832284, 2.1048025484898, 4.1048027069277, 6.1048023922819, 8.1048025507198, 10.104802236074, 12.104802867596, 14.104802582805, 16.104803214327, 18.104802899681, 20.104802585035, 22.104802270389, 24.104801970671, 26.104801656026, 28.104803233715, 30.104802926533, 32.104802614229, 34.104802302849, 36.104801993801, 38.104801682887, 40.104801368241, 42.104801061059, 44.104800746413, 46.104804231365, 48.10480391672, 50.104803602074, 52.104803287428, 54.104802972782, 56.104802658136, 58.104802373346, 60.1048020587, 62.104801744054, 64.104805214078, 66.104801144618, 68.104804584787, 70.104800515326, 72.104803955495, 74.104799886035, 76.104803326213], "SmallestImagePixelValue": [0, 0, 2, 0, 0, 2, 0, 0, 0, 0, 0, 0, 0, 0, 0, 0, 0, 0, 0, 0, 6, 0, 0, 2, 2, 0, 5, 1, 1, 0, 3, 1, 1, 0, 1, 1, 2, 0, 3, 0, 2, 1, 0, 2, 0, 0, 1, 0, 5, 0, 2, 1, 0, 2, 3, 0, 0, 0, 0, 0, 0, 0, 0, 1, 0, 0, 1, 0, 0, 0, 0, 0], "WindowCenter": [-320.0, -296.0, -256.0, -298.0, -260.0, -234.0, -222.0, -234.0, -198.0, -174.0, -136.0, -136.0, -22.0, -18.0, -180.0, -262.0, -240.0, -208.0, -240.0, -216.0, -226.0, -218.0, -232.0, -252.0, -212.0, -160.0, -144.0, -122.0, -120.0, -138.0, -120.0, -110.0, -134.0, -130.0, -102.0, -80.0, -80.0, -116.0, -74.0, -64.0, -56.0, -86.0, -218.0, -58.0, -208.0, -194.0, -200.0, -72.0, -52.0, -82.0, -30.0, -188.0, -52.0, -68.0, -212.0, -28.0, -32.0, -54.0, -46.0, -60.0, -38.0, -88.0, -100.0, -74.0, -154.0, -144.0, -166.0, -224.0, -212.0, -282.0, -284.0, -372.0], "WindowWidth": [6166.0, 6276.0, 6390.0, 6378.0, 6432.0, 6410.0, 6384.0, 6380.0, 6456.0, 6560.0, 6660.0, 6766.0, 6668.0, 6578.0, 6416.0, 6332.0, 6252.0, 6146.0, 6042.0, 5970.0, 5882.0, 5824.0, 5754.0, 5668.0, 5682.0, 5796.0, 5792.0, 5744.0, 5724.0, 5634.0, 5588.0, 5554.0, 5480.0, 5436.0, 5468.0, 5536.0, 5464.0, 5320.0, 5414.0, 5380.0, 5338.0, 5210.0, 4592.0, 5296.0, 4596.0, 4596.0, 4598.0, 5112.0, 5210.0, 4864.0, 5206.0, 4634.0, 5242.0, 5222.0, 4670.0, 5484.0, 5594.0, 5644.0, 5676.0, 5728.0, 5840.0, 5888.0, 5926.0, 6030.0, 6028.0, 6110.0, 6068.0, 6114.0, 6162.0, 6174.0, 6162.0, 6256.0]}}, "IntendedFor": ["ses-action01/func/sub-07_ses-action01_task-action_run-07_bold.nii.gz", "ses-action01/func/sub-07_ses-action01_task-action_run-08_bold.nii.gz", "ses-action01/func/sub-07_ses-action01_task-action_run-05_bold.nii.gz", "ses-action01/func/sub-07_ses-action01_task-action_run-03_bold.nii.gz", "ses-action01/func/sub-07_ses-action01_task-action_run-11_bold.nii.gz", "ses-action01/func/sub-07_ses-action01_task-action_run-01_bold.nii.gz", "ses-action01/func/sub-07_ses-action01_task-action_run-12_bold.nii.gz", "ses-action01/func/sub-07_ses-action01_task-action_run-02_bold.nii.gz", "ses-action01/func/sub-07_ses-action01_task-action_run-10_bold.nii.gz", "ses-action01/func/sub-07_ses-action01_task-action_run-09_bold.nii.gz", "ses-action01/func/sub-07_ses-action01_task-action_run-06_bold.nii.gz", "ses-action01/func/sub-07_ses-action01_task-action_run-04_bold.nii.gz"]}