{
  "AcquisitionMatrixPE": 100,
  "AcquisitionNumber": 1,
  "AcquisitionTime": "16:10:31.482500",
  "BandwidthPerPixelPhaseEncode": 18.519,
  "BaseResolution": 100,
  "BodyPartExamined": "BRAIN",
  "CoilCombinationMethod": "Sum of Squares",
  "ConsistencyInfo": "N4_VE11C_LATEST_20160120",
  "ConversionSoftware": "dcm2niix",
  "ConversionSoftwareVersion": "v1.0.20211006",
  "DerivedVendorReportedEchoSpacing": 0.000539986,
  "DeviceSerialNumber": "166078",
  "DwellTime": 2.1e-06,
  "EchoTime": 0.034,
  "EchoTrainLength": 100,
  "EffectiveEchoSpacing": 0.000539986,
  "FlipAngle": 90,
  "ImageOrientationPatientDICOM": [0.999997, -0.000482849, -0.0021962, 1.0027e-08, 0.976675, -0.214724],
  "ImageOrientationText": "Tra>Cor(-12.4)>Sag(-0.1)",
  "ImageType": [
    "ORIGINAL",
    "PRIMARY",
    "M",
    "ND",
    "MOSAIC"
],
  "ImagingFrequency": 123.258,
  "InPlanePhaseEncodingDirectionDICOM": "COL",
  "InstitutionAddress": "Street StreetNo,Bei Jing,District,CN,ZIP",
  "InstitutionName": "BeiJing Normal University",
  "InstitutionalDepartmentName": "Department",
  "MRAcquisitionType": "2D",
  "MagneticFieldStrength": 3,
  "Manufacturer": "Siemens",
  "ManufacturersModelName": "Prisma",
  "Modality": "MR",
  "MultibandAccelerationFactor": 3,
  "PartialFourier": 1,
  "PatientPosition": "HFS",
  "PercentPhaseFOV": 100,
  "PercentSampling": 100,
  "PhaseEncodingDirection": "j-",
  "PhaseEncodingSteps": 100,
  "PhaseResolution": 1,
  "PixelBandwidth": 2380,
  "ProcedureStepDescription": "BNU_P2018_64CH^Zhen.ZongLei",
  "ProtocolName": "bold_100x100_s3_2x2x2_static_156",
  "PulseSequenceDetails": "%SiemensSeq%\\ep2d_bold",
  "ReceiveCoilActiveElements": "HC1-7;NC1",
  "ReceiveCoilName": "HeadNeck_64",
  "ReconMatrixPE": 100,
  "RefLinesPE": 32,
  "RepetitionTime": 2,
  "SAR": 0.0846961,
  "ScanOptions": "FS",
  "ScanningSequence": "EP",
  "SequenceName": "*epfid2d1_100",
  "SequenceVariant": "SK",
  "SeriesDescription": "bold_100x100_s3_2x2x2_static_156",
  "SeriesNumber": 5,
  "ShimSetting": [-5469, -11538, -1312, 329, -3, -519, -139, 90],
  "SliceThickness": 2,
  "SliceTiming": [1.485, 0, 0.99, 0.0825, 1.0725, 0.165, 1.155, 0.2475, 1.2375, 0.33, 1.32, 0.4125, 1.4025, 0.5775, 1.5675, 0.66, 1.65, 0.7425, 1.7325, 0.825, 1.815, 0.9075, 1.8975, 0.495, 1.485, 0, 0.99, 0.0825, 1.0725, 0.165, 1.155, 0.2475, 1.2375, 0.33, 1.32, 0.4125, 1.4025, 0.5775, 1.5675, 0.66, 1.65, 0.7425, 1.7325, 0.825, 1.815, 0.9075, 1.8975, 0.495, 1.485, 0, 0.99, 0.0825, 1.0725, 0.165, 1.155, 0.2475, 1.2375, 0.33, 1.32, 0.4125, 1.4025, 0.5775, 1.5675, 0.66, 1.65, 0.7425, 1.7325, 0.825, 1.815, 0.9075, 1.8975, 0.495],
  "SoftwareVersions": "syngo MR E11",
  "SpacingBetweenSlices": 2,
  "StationName": "AWP166078",
  "TaskName": "action",
  "TotalReadoutTime": 0.0534586,
  "TxRefAmp": 227.228,
  "dcmmeta_affine": [
    [-1.9999949932098389, 2.00539673755884e-08, -0.004497302230447531, 104.92462921142578],
    [0.0009656987385824323, 1.9533494710922241, -0.42944708466529846, -76.11588287353516],
    [-0.004392397124320269, 0.4294481873512268, 1.9533445835113525, -87.68138122558594],
    [0.0, 0.0, 0.0, 1.0]
],
  "dcmmeta_reorient_transform": [
    [0.0, -1.0, 0.0, 99.0],
    [1.0, 0.0, 0.0, 0.0],
    [0.0, 0.0, 1.0, 0.0],
    [0.0, 0.0, 0.0, 1.0]
],
  "dcmmeta_shape": [100, 100, 72, 156],
  "dcmmeta_slice_dim": 2,
  "dcmmeta_version": 0.6,
  "global": {
    "const": {
      "AcquisitionMatrix": [100, 0, 0, 100],
      "AngioFlag": "N",
      "BitsAllocated": 16,
      "BitsStored": 12,
      "BodyPartExamined": "BRAIN",
      "Columns": 900,
      "EchoNumbers": 1,
      "EchoTime": 34.0,
      "EchoTrainLength": 100,
      "FlipAngle": 90.0,
      "HighBit": 11,
      "ImageOrientationPatient": [0.99999747178083, -0.0004828493671, -0.0021961986344, 1.0026984e-08, 0.97667474852184, -0.2147240918011],
      "ImagePositionPatient": [-904.92261651583, -898.21923557598, 128.37022153599],
      "ImageType": [
        "ORIGINAL",
        "PRIMARY",
        "M",
        "ND",
        "MOSAIC"
],
      "ImagedNucleus": "1H",
      "ImagingFrequency": 123.257708,
      "InPlanePhaseEncodingDirection": "COL",
      "MRAcquisitionType": "2D",
      "MagneticFieldStrength": 3.0,
      "Manufacturer": "SIEMENS",
      "ManufacturerModelName": "Prisma",
      "Modality": "MR",
      "NumberOfAverages": 1.0,
      "NumberOfPhaseEncodingSteps": 100,
      "PercentPhaseFieldOfView": 100.0,
      "PercentSampling": 100.0,
      "PerformedProcedureStepStartTime": "155536.703000",
      "PhotometricInterpretation": "MONOCHROME2",
      "PixelBandwidth": 2380.0,
      "PixelRepresentation": 0,
      "PixelSpacing": [2.0, 2.0],
      "ProtocolName": "bold_100x100_s3_2x2x2_static_156",
      "RepetitionTime": 2000.0,
      "Rows": 900,
      "SAR": 0.08469609050595,
      "SamplesPerPixel": 1,
      "ScanOptions": "FS",
      "ScanningSequence": "EP",
      "SequenceName": "*epfid2d1_100",
      "SequenceVariant": "SK",
      "SeriesDescription": "bold_100x100_s3_2x2x2_static_156",
      "SeriesNumber": 5,
      "SeriesTime": "161034.066000",
      "SliceLocation": -69.528040376514,
      "SliceThickness": 2.0,
      "SmallestImagePixelValue": 0,
      "SoftwareVersions": "syngo MR E11",
      "SpacingBetweenSlices": 1.9999999771383,
      "SpecificCharacterSet": "ISO_IR 100",
      "StudyID": "1",
      "StudyTime": "155536.619000",
      "TransmitCoilName": "Body",
      "VariableFlipAngleFlag": "N",
      "WindowCenterWidthExplanation": "Algo1",
      "dBdt": 0.0},
    "slices": {}
  },
  "time": {
    "samples": {
      "AcquisitionNumber": [1, 2, 3, 4, 5, 6, 7, 8, 9, 10, 11, 12, 13, 14, 15, 16, 17, 18, 19, 20, 21, 22, 23, 24, 25, 26, 27, 28, 29, 30, 31, 32, 33, 34, 35, 36, 37, 38, 39, 40, 41, 42, 43, 44, 45, 46, 47, 48, 49, 50, 51, 52, 53, 54, 55, 56, 57, 58, 59, 60, 61, 62, 63, 64, 65, 66, 67, 68, 69, 70, 71, 72, 73, 74, 75, 76, 77, 78, 79, 80, 81, 82, 83, 84, 85, 86, 87, 88, 89, 90, 91, 92, 93, 94, 95, 96, 97, 98, 99, 100, 101, 102, 103, 104, 105, 106, 107, 108, 109, 110, 111, 112, 113, 114, 115, 116, 117, 118, 119, 120, 121, 122, 123, 124, 125, 126, 127, 128, 129, 130, 131, 132, 133, 134, 135, 136, 137, 138, 139, 140, 141, 142, 143, 144, 145, 146, 147, 148, 149, 150, 151, 152, 153, 154, 155, 156],
      "AcquisitionTime": ["161031.482500", "161033.482500", "161035.482500", "161037.482500", "161039.482500", "161041.482500", "161043.482500", "161045.482500", "161047.482500", "161049.482500", "161051.482500", "161053.482500", "161055.482500", "161057.482500", "161059.482500", "161101.482500", "161103.482500", "161105.482500", "161107.482500", "161109.482500", "161111.482500", "161113.482500", "161115.482500", "161117.482500", "161119.482500", "161121.482500", "161123.482500", "161125.482500", "161127.482500", "161129.482500", "161131.482500", "161133.482500", "161135.482500", "161137.482500", "161139.482500", "161141.482500", "161143.482500", "161145.482500", "161147.482500", "161149.482500", "161151.482500", "161153.482500", "161155.482500", "161157.482500", "161159.482500", "161201.482500", "161203.482500", "161205.482500", "161207.482500", "161209.482500", "161211.482500", "161213.482500", "161215.482500", "161217.482500", "161219.482500", "161221.482500", "161223.482500", "161225.482500", "161227.482500", "161229.482500", "161231.482500", "161233.482500", "161235.482500", "161237.482500", "161239.482500", "161241.482500", "161243.482500", "161245.482500", "161247.482500", "161249.482500", "161251.482500", "161253.482500", "161255.482500", "161257.482500", "161259.482500", "161301.482500", "161303.482500", "161305.482500", "161307.482500", "161309.482500", "161311.482500", "161313.482500", "161315.482500", "161317.482500", "161319.482500", "161321.482500", "161323.482500", "161325.482500", "161327.482500", "161329.482500", "161331.482500", "161333.482500", "161335.482500", "161337.482500", "161339.482500", "161341.482500", "161343.482500", "161345.482500", "161347.482500", "161349.482500", "161351.482500", "161353.482500", "161355.482500", "161357.482500", "161359.482500", "161401.482500", "161403.482500", "161405.482500", "161407.482500", "161409.482500", "161411.482500", "161413.482500", "161415.482500", "161417.482500", "161419.482500", "161421.482500", "161423.482500", "161425.482500", "161427.482500", "161429.482500", "161431.482500", "161433.482500", "161435.482500", "161437.482500", "161439.482500", "161441.482500", "161443.482500", "161445.482500", "161447.482500", "161449.482500", "161451.482500", "161453.482500", "161455.482500", "161457.482500", "161459.482500", "161501.482500", "161503.482500", "161505.482500", "161507.482500", "161509.482500", "161511.482500", "161513.482500", "161515.482500", "161517.482500", "161519.482500", "161521.482500", "161523.482500", "161525.482500", "161527.482500", "161529.482500", "161531.482500", "161533.482500", "161535.482500", "161537.482500", "161539.482500", "161541.482500"],
      "ContentTime": ["161034.070000", "161035.566000", "161037.565000", "161039.565000", "161041.567000", "161044.066000", "161045.566000", "161047.567000", "161049.565000", "161051.565000", "161053.565000", "161055.565000", "161057.567000", "161100.067000", "161101.567000", "161103.567000", "161105.565000", "161108.066000", "161109.565000", "161111.565000", "161113.565000", "161115.566000", "161118.066000", "161120.067000", "161121.566000", "161123.565000", "161125.565000", "161127.565000", "161129.566000", "161131.565000", "161133.566000", "161135.567000", "161137.566000", "161139.567000", "161141.565000", "161143.565000", "161145.566000", "161147.565000", "161149.566000", "161151.566000", "161153.567000", "161155.566000", "161157.566000", "161159.566000", "161201.565000", "161203.566000", "161205.566000", "161207.566000", "161209.566000", "161211.567000", "161213.567000", "161215.566000", "161217.565000", "161219.566000", "161221.565000", "161223.566000", "161225.566000", "161227.567000", "161229.567000", "161231.566000", "161234.066000", "161236.065000", "161238.066000", "161240.065000", "161241.565000", "161243.567000", "161245.566000", "161247.566000", "161249.567000", "161251.565000", "161253.566000", "161255.565000", "161257.566000", "161259.566000", "161301.567000", "161304.067000", "161306.066000", "161307.566000", "161309.566000", "161311.565000", "161313.565000", "161315.566000", "161317.566000", "161319.566000", "161321.567000", "161323.567000", "161325.565000", "161327.565000", "161329.565000", "161331.565000", "161334.066000", "161336.067000", "161337.566000", "161339.566000", "161341.566000", "161343.565000", "161345.566000", "161347.566000", "161349.566000", "161351.565000", "161353.566000", "161355.566000", "161357.567000", "161400.066000", "161401.566000", "161403.565000", "161405.565000", "161407.566000", "161409.565000", "161411.567000", "161414.066000", "161415.566000", "161418.066000", "161419.565000", "161421.565000", "161423.565000", "161426.066000", "161427.566000", "161429.566000", "161431.566000", "161434.066000", "161435.565000", "161437.565000", "161439.565000", "161441.566000", "161443.565000", "161445.567000", "161448.067000", "161450.066000", "161451.567000", "161454.066000", "161455.565000", "161457.565000", "161459.566000", "161501.565000", "161503.567000", "161506.066000", "161507.566000", "161509.567000", "161512.066000", "161513.565000", "161515.566000", "161517.566000", "161519.565000", "161522.066000", "161523.566000", "161525.567000", "161528.066000", "161529.566000", "161531.565000", "161533.566000", "161535.565000", "161537.566000", "161539.566000", "161542.080000", "161543.511000"],
      "InstanceCreationTime": ["161034.070000", "161035.566000", "161037.565000", "161039.565000", "161041.567000", "161044.066000", "161045.566000", "161047.567000", "161049.565000", "161051.565000", "161053.565000", "161055.565000", "161057.567000", "161100.067000", "161101.567000", "161103.567000", "161105.565000", "161108.066000", "161109.565000", "161111.565000", "161113.565000", "161115.566000", "161118.066000", "161120.067000", "161121.566000", "161123.565000", "161125.565000", "161127.565000", "161129.566000", "161131.565000", "161133.566000", "161135.567000", "161137.566000", "161139.567000", "161141.565000", "161143.565000", "161145.566000", "161147.565000", "161149.566000", "161151.566000", "161153.567000", "161155.566000", "161157.566000", "161159.566000", "161201.565000", "161203.566000", "161205.566000", "161207.566000", "161209.566000", "161211.567000", "161213.567000", "161215.566000", "161217.565000", "161219.566000", "161221.565000", "161223.566000", "161225.566000", "161227.567000", "161229.567000", "161231.566000", "161234.066000", "161236.065000", "161238.066000", "161240.065000", "161241.565000", "161243.567000", "161245.566000", "161247.566000", "161249.567000", "161251.565000", "161253.566000", "161255.565000", "161257.566000", "161259.566000", "161301.567000", "161304.067000", "161306.066000", "161307.566000", "161309.566000", "161311.565000", "161313.565000", "161315.566000", "161317.566000", "161319.566000", "161321.567000", "161323.567000", "161325.565000", "161327.565000", "161329.565000", "161331.565000", "161334.066000", "161336.067000", "161337.566000", "161339.566000", "161341.566000", "161343.565000", "161345.566000", "161347.566000", "161349.566000", "161351.565000", "161353.566000", "161355.566000", "161357.567000", "161400.066000", "161401.566000", "161403.565000", "161405.565000", "161407.566000", "161409.565000", "161411.567000", "161414.066000", "161415.566000", "161418.066000", "161419.565000", "161421.565000", "161423.565000", "161426.066000", "161427.566000", "161429.566000", "161431.566000", "161434.066000", "161435.565000", "161437.565000", "161439.565000", "161441.566000", "161443.565000", "161445.567000", "161448.067000", "161450.066000", "161451.567000", "161454.066000", "161455.565000", "161457.565000", "161459.566000", "161501.565000", "161503.567000", "161506.066000", "161507.566000", "161509.567000", "161512.066000", "161513.565000", "161515.566000", "161517.566000", "161519.565000", "161522.066000", "161523.566000", "161525.567000", "161528.066000", "161529.566000", "161531.565000", "161533.566000", "161535.565000", "161537.566000", "161539.566000", "161542.080000", "161543.511000"],
      "InstanceNumber": [1, 2, 3, 4, 5, 6, 7, 8, 9, 10, 11, 12, 13, 14, 15, 16, 17, 18, 19, 20, 21, 22, 23, 24, 25, 26, 27, 28, 29, 30, 31, 32, 33, 34, 35, 36, 37, 38, 39, 40, 41, 42, 43, 44, 45, 46, 47, 48, 49, 50, 51, 52, 53, 54, 55, 56, 57, 58, 59, 60, 61, 62, 63, 64, 65, 66, 67, 68, 69, 70, 71, 72, 73, 74, 75, 76, 77, 78, 79, 80, 81, 82, 83, 84, 85, 86, 87, 88, 89, 90, 91, 92, 93, 94, 95, 96, 97, 98, 99, 100, 101, 102, 103, 104, 105, 106, 107, 108, 109, 110, 111, 112, 113, 114, 115, 116, 117, 118, 119, 120, 121, 122, 123, 124, 125, 126, 127, 128, 129, 130, 131, 132, 133, 134, 135, 136, 137, 138, 139, 140, 141, 142, 143, 144, 145, 146, 147, 148, 149, 150, 151, 152, 153, 154, 155, 156],
      "LargestImagePixelValue": [3636, 3590, 3569, 3536, 3571, 3526, 3568, 3535, 3564, 3549, 3534, 3555, 3554, 3580, 3557, 3562, 3543, 3577, 3591, 3562, 3618, 3546, 3576, 3556, 3553, 3538, 3599, 3552, 3567, 3585, 3558, 3558, 3555, 3600, 3563, 3570, 3559, 3587, 3596, 3562, 3550, 3564, 3546, 3553, 3555, 3570, 3580, 3572, 3593, 3573, 3571, 3607, 3595, 3578, 3584, 3585, 3587, 3573, 3572, 3558, 3563, 3568, 3578, 3588, 3586, 3576, 3570, 3600, 3585, 3574, 3579, 3584, 3509, 3629, 3572, 3585, 3554, 3550, 3552, 3520, 3529, 3514, 3505, 3474, 3542, 3489, 3538, 3528, 3516, 3494, 3491, 3522, 3513, 3505, 3523, 3475, 3410, 3414, 3418, 3424, 3410, 3452, 3416, 3433, 3422, 3445, 3419, 3436, 3421, 3417, 3400, 3471, 3396, 3427, 3412, 3410, 3438, 3424, 3398, 3403, 3396, 3422, 3405, 3435, 3377, 3412, 3385, 3449, 3425, 3415, 3398, 3369, 3424, 3388, 3440, 3398, 3390, 3375, 3393, 3417, 3447, 3390, 3454, 3438, 3456, 3425, 3410, 3424, 3470, 3414, 3555, 3442, 3417, 3515, 3411, 3482],
      "WindowCenter": [754.0, 752.0, 750.0, 751.0, 751.0, 751.0, 751.0, 751.0, 751.0, 751.0, 751.0, 751.0, 750.0, 750.0, 751.0, 751.0, 750.0, 750.0, 750.0, 750.0, 751.0, 751.0, 751.0, 750.0, 751.0, 750.0, 751.0, 751.0, 752.0, 751.0, 751.0, 751.0, 752.0, 751.0, 751.0, 751.0, 751.0, 751.0, 751.0, 751.0, 752.0, 751.0, 750.0, 750.0, 751.0, 751.0, 751.0, 750.0, 750.0, 750.0, 751.0, 751.0, 751.0, 751.0, 750.0, 750.0, 751.0, 751.0, 751.0, 750.0, 751.0, 750.0, 751.0, 752.0, 751.0, 751.0, 751.0, 752.0, 752.0, 751.0, 751.0, 751.0, 751.0, 754.0, 752.0, 751.0, 750.0, 752.0, 751.0, 750.0, 750.0, 750.0, 750.0, 750.0, 750.0, 749.0, 750.0, 749.0, 750.0, 749.0, 749.0, 749.0, 750.0, 750.0, 749.0, 748.0, 747.0, 748.0, 748.0, 748.0, 748.0, 748.0, 748.0, 748.0, 748.0, 748.0, 748.0, 748.0, 748.0, 748.0, 748.0, 748.0, 748.0, 748.0, 748.0, 749.0, 749.0, 749.0, 748.0, 749.0, 749.0, 748.0, 748.0, 749.0, 749.0, 748.0, 747.0, 748.0, 749.0, 749.0, 749.0, 748.0, 749.0, 748.0, 748.0, 748.0, 748.0, 748.0, 748.0, 748.0, 749.0, 749.0, 749.0, 748.0, 749.0, 749.0, 749.0, 749.0, 750.0, 749.0, 750.0, 748.0, 748.0, 749.0, 748.0, 749.0],
      "WindowWidth": [1646.0, 1639.0, 1636.0, 1637.0, 1637.0, 1637.0, 1637.0, 1637.0, 1637.0, 1638.0, 1638.0, 1638.0, 1635.0, 1636.0, 1636.0, 1636.0, 1636.0, 1636.0, 1634.0, 1636.0, 1638.0, 1637.0, 1638.0, 1636.0, 1636.0, 1635.0, 1637.0, 1636.0, 1640.0, 1638.0, 1638.0, 1638.0, 1639.0, 1639.0, 1638.0, 1638.0, 1638.0, 1636.0, 1636.0, 1639.0, 1640.0, 1637.0, 1635.0, 1636.0, 1638.0, 1639.0, 1636.0, 1636.0, 1636.0, 1636.0, 1636.0, 1638.0, 1637.0, 1637.0, 1635.0, 1636.0, 1637.0, 1637.0, 1637.0, 1635.0, 1636.0, 1635.0, 1638.0, 1639.0, 1638.0, 1637.0, 1636.0, 1639.0, 1640.0, 1638.0, 1637.0, 1638.0, 1637.0, 1646.0, 1641.0, 1636.0, 1634.0, 1639.0, 1638.0, 1636.0, 1635.0, 1636.0, 1634.0, 1634.0, 1635.0, 1633.0, 1634.0, 1633.0, 1634.0, 1633.0, 1630.0, 1632.0, 1635.0, 1633.0, 1631.0, 1628.0, 1627.0, 1628.0, 1629.0, 1629.0, 1628.0, 1627.0, 1627.0, 1629.0, 1629.0, 1628.0, 1629.0, 1628.0, 1630.0, 1629.0, 1628.0, 1629.0, 1628.0, 1628.0, 1628.0, 1631.0, 1632.0, 1630.0, 1630.0, 1631.0, 1631.0, 1630.0, 1630.0, 1631.0, 1631.0, 1628.0, 1627.0, 1628.0, 1631.0, 1632.0, 1631.0, 1629.0, 1631.0, 1628.0, 1630.0, 1628.0, 1629.0, 1628.0, 1628.0, 1629.0, 1632.0, 1631.0, 1632.0, 1630.0, 1632.0, 1631.0, 1631.0, 1631.0, 1633.0, 1630.0, 1634.0, 1630.0, 1629.0, 1632.0, 1630.0, 1631.0]
    },
    "slices": {}
  }
}