{
  "AcquisitionMatrixPE": 100,
  "AcquisitionNumber": 1,
  "AcquisitionTime": "10:20:39.417500",
  "BandwidthPerPixelPhaseEncode": 18.519,
  "BaseResolution": 100,
  "BodyPartExamined": "BRAIN",
  "CoilCombinationMethod": "Sum of Squares",
  "ConsistencyInfo": "N4_VE11C_LATEST_20160120",
  "ConversionSoftware": "dcm2niix",
  "ConversionSoftwareVersion": "v1.0.20211006",
  "DerivedVendorReportedEchoSpacing": 0.000539986,
  "DeviceSerialNumber": "166078",
  "DwellTime": 2.1e-06,
  "EchoTime": 0.034,
  "EchoTrainLength": 100,
  "EffectiveEchoSpacing": 0.000539986,
  "FlipAngle": 90,
  "ImageOrientationPatientDICOM": [0.99685, 0.0187054, 0.0770665, -5.99349e-09, 0.971785, -0.235869],
  "ImageOrientationText": "Tra>Cor(-13.6)>Sag(4.5)",
  "ImageType": [
    "ORIGINAL",
    "PRIMARY",
    "M",
    "ND",
    "MOSAIC"
],
  "ImagingFrequency": 123.258,
  "InPlanePhaseEncodingDirectionDICOM": "COL",
  "InstitutionAddress": "Street StreetNo,Bei Jing,District,CN,ZIP",
  "InstitutionName": "BeiJing Normal University",
  "InstitutionalDepartmentName": "Department",
  "MRAcquisitionType": "2D",
  "MagneticFieldStrength": 3,
  "Manufacturer": "Siemens",
  "ManufacturersModelName": "Prisma",
  "Modality": "MR",
  "MultibandAccelerationFactor": 3,
  "PartialFourier": 1,
  "PatientPosition": "HFS",
  "PercentPhaseFOV": 100,
  "PercentSampling": 100,
  "PhaseEncodingDirection": "j-",
  "PhaseEncodingSteps": 100,
  "PhaseResolution": 1,
  "PixelBandwidth": 2380,
  "ProcedureStepDescription": "BNU_P2018_64CH^Zhen.ZongLei",
  "ProtocolName": "bold_100x100_s3_2x2x2_static_156",
  "PulseSequenceDetails": "%SiemensSeq%\\ep2d_bold",
  "ReceiveCoilActiveElements": "HC1-7;NC1",
  "ReceiveCoilName": "HeadNeck_64",
  "ReconMatrixPE": 100,
  "RefLinesPE": 32,
  "RepetitionTime": 2,
  "SAR": 0.0680172,
  "ScanOptions": "FS",
  "ScanningSequence": "EP",
  "SequenceName": "*epfid2d1_100",
  "SequenceVariant": "SK",
  "SeriesDescription": "bold_100x100_s3_2x2x2_static_156",
  "SeriesNumber": 15,
  "ShimSetting": [-5428, -11517, -1313, 415, 115, -426, -218, -38],
  "SliceThickness": 2,
  "SliceTiming": [1.485, 0, 0.99, 0.0825, 1.0725, 0.165, 1.155, 0.2475, 1.2375, 0.33, 1.32, 0.4125, 1.4025, 0.5775, 1.5675, 0.66, 1.65, 0.7425, 1.7325, 0.825, 1.815, 0.9075, 1.8975, 0.495, 1.485, 0, 0.99, 0.0825, 1.0725, 0.165, 1.155, 0.2475, 1.2375, 0.33, 1.32, 0.4125, 1.4025, 0.5775, 1.5675, 0.66, 1.65, 0.7425, 1.7325, 0.825, 1.815, 0.9075, 1.8975, 0.495, 1.485, 0, 0.99, 0.0825, 1.0725, 0.165, 1.155, 0.2475, 1.2375, 0.33, 1.32, 0.4125, 1.4025, 0.5775, 1.5675, 0.66, 1.65, 0.7425, 1.7325, 0.825, 1.815, 0.9075, 1.8975, 0.495],
  "SoftwareVersions": "syngo MR E11",
  "SpacingBetweenSlices": 2,
  "StationName": "AWP166078",
  "TaskName": "action",
  "TotalReadoutTime": 0.0534586,
  "TxRefAmp": 209.779,
  "dcmmeta_affine": [
    [-1.9937009811401367, -1.1986972303645871e-08, 0.15860825777053833, 97.49837493896484],
    [-0.03741084039211273, 1.943569540977478, -0.4702529311180115, -70.97064208984375],
    [0.15413309633731842, 0.47173869609832764, 1.937448263168335, -101.6880111694336],
    [0.0, 0.0, 0.0, 1.0]
],
  "dcmmeta_reorient_transform": [
    [0.0, -1.0, 0.0, 99.0],
    [1.0, 0.0, 0.0, 0.0],
    [0.0, 0.0, 1.0, 0.0],
    [0.0, 0.0, 0.0, 1.0]
],
  "dcmmeta_shape": [100, 100, 72, 156],
  "dcmmeta_slice_dim": 2,
  "dcmmeta_version": 0.6,
  "global": {
    "const": {
      "AcquisitionMatrix": [100, 0, 0, 100],
      "AngioFlag": "N",
      "BitsAllocated": 16,
      "BitsStored": 12,
      "BodyPartExamined": "BRAIN",
      "Columns": 900,
      "EchoNumbers": 1,
      "EchoTime": 34.0,
      "EchoTrainLength": 100,
      "FlipAngle": 90.0,
      "HighBit": 11,
      "ImageOrientationPatient": [0.99685046763352, 0.018705419536, 0.07706654565252, -5.993486e-09, 0.9717847756587, -0.2358693490006],
      "ImagePositionPatient": [-894.97874111957, -913.83490011676, 72.056365481554],
      "ImageType": [
        "ORIGINAL",
        "PRIMARY",
        "M",
        "ND",
        "MOSAIC"
],
      "ImagedNucleus": "1H",
      "ImagingFrequency": 123.257749,
      "InPlanePhaseEncodingDirection": "COL",
      "LargestImagePixelValue": 4095,
      "MRAcquisitionType": "2D",
      "MagneticFieldStrength": 3.0,
      "Manufacturer": "SIEMENS",
      "ManufacturerModelName": "Prisma",
      "Modality": "MR",
      "NumberOfAverages": 1.0,
      "NumberOfPhaseEncodingSteps": 100,
      "PercentPhaseFieldOfView": 100.0,
      "PercentSampling": 100.0,
      "PerformedProcedureStepStartTime": "090325.218000",
      "PhotometricInterpretation": "MONOCHROME2",
      "PixelBandwidth": 2380.0,
      "PixelRepresentation": 0,
      "PixelSpacing": [2.0, 2.0],
      "ProtocolName": "bold_100x100_s3_2x2x2_static_156",
      "RepetitionTime": 2000.0,
      "Rows": 900,
      "SAR": 0.06801716196721,
      "SamplesPerPixel": 1,
      "ScanOptions": "FS",
      "ScanningSequence": "EP",
      "SequenceName": "*epfid2d1_100",
      "SequenceVariant": "SK",
      "SeriesDescription": "bold_100x100_s3_2x2x2_static_156",
      "SeriesNumber": 15,
      "SeriesTime": "102041.464000",
      "SliceLocation": -74.088524950361,
      "SliceThickness": 2.0,
      "SmallestImagePixelValue": 0,
      "SoftwareVersions": "syngo MR E11",
      "SpacingBetweenSlices": 1.9999999926164,
      "SpecificCharacterSet": "ISO_IR 100",
      "StudyID": "1",
      "StudyTime": "090325.146000",
      "TransmitCoilName": "Body",
      "VariableFlipAngleFlag": "N",
      "WindowCenterWidthExplanation": "Algo1",
      "dBdt": 0.0},
    "slices": {}
  },
  "time": {
    "samples": {
      "AcquisitionNumber": [1, 2, 3, 4, 5, 6, 7, 8, 9, 10, 11, 12, 13, 14, 15, 16, 17, 18, 19, 20, 21, 22, 23, 24, 25, 26, 27, 28, 29, 30, 31, 32, 33, 34, 35, 36, 37, 38, 39, 40, 41, 42, 43, 44, 45, 46, 47, 48, 49, 50, 51, 52, 53, 54, 55, 56, 57, 58, 59, 60, 61, 62, 63, 64, 65, 66, 67, 68, 69, 70, 71, 72, 73, 74, 75, 76, 77, 78, 79, 80, 81, 82, 83, 84, 85, 86, 87, 88, 89, 90, 91, 92, 93, 94, 95, 96, 97, 98, 99, 100, 101, 102, 103, 104, 105, 106, 107, 108, 109, 110, 111, 112, 113, 114, 115, 116, 117, 118, 119, 120, 121, 122, 123, 124, 125, 126, 127, 128, 129, 130, 131, 132, 133, 134, 135, 136, 137, 138, 139, 140, 141, 142, 143, 144, 145, 146, 147, 148, 149, 150, 151, 152, 153, 154, 155, 156],
      "AcquisitionTime": ["102039.417500", "102041.417500", "102043.417500", "102045.417500", "102047.417500", "102049.417500", "102051.417500", "102053.417500", "102055.417500", "102057.417500", "102059.417500", "102101.417500", "102103.417500", "102105.417500", "102107.417500", "102109.417500", "102111.417500", "102113.417500", "102115.417500", "102117.417500", "102119.417500", "102121.417500", "102123.417500", "102125.417500", "102127.417500", "102129.417500", "102131.417500", "102133.417500", "102135.417500", "102137.417500", "102139.417500", "102141.417500", "102143.417500", "102145.417500", "102147.417500", "102149.417500", "102151.417500", "102153.417500", "102155.417500", "102157.417500", "102159.417500", "102201.417500", "102203.417500", "102205.417500", "102207.417500", "102209.417500", "102211.417500", "102213.417500", "102215.417500", "102217.417500", "102219.417500", "102221.417500", "102223.417500", "102225.417500", "102227.417500", "102229.417500", "102231.417500", "102233.417500", "102235.417500", "102237.417500", "102239.417500", "102241.417500", "102243.417500", "102245.417500", "102247.417500", "102249.417500", "102251.417500", "102253.417500", "102255.417500", "102257.417500", "102259.417500", "102301.417500", "102303.417500", "102305.417500", "102307.417500", "102309.417500", "102311.417500", "102313.417500", "102315.417500", "102317.417500", "102319.417500", "102321.417500", "102323.417500", "102325.417500", "102327.417500", "102329.417500", "102331.417500", "102333.417500", "102335.417500", "102337.417500", "102339.417500", "102341.417500", "102343.417500", "102345.417500", "102347.417500", "102349.417500", "102351.417500", "102353.417500", "102355.417500", "102357.417500", "102359.417500", "102401.417500", "102403.417500", "102405.417500", "102407.417500", "102409.417500", "102411.417500", "102413.417500", "102415.417500", "102417.417500", "102419.417500", "102421.417500", "102423.417500", "102425.417500", "102427.417500", "102429.417500", "102431.417500", "102433.417500", "102435.417500", "102437.417500", "102439.417500", "102441.417500", "102443.417500", "102445.417500", "102447.417500", "102449.417500", "102451.417500", "102453.417500", "102455.417500", "102457.417500", "102459.417500", "102501.417500", "102503.417500", "102505.417500", "102507.417500", "102509.417500", "102511.417500", "102513.417500", "102515.417500", "102517.417500", "102519.417500", "102521.417500", "102523.417500", "102525.417500", "102527.417500", "102529.417500", "102531.417500", "102533.417500", "102535.417500", "102537.417500", "102539.417500", "102541.417500", "102543.417500", "102545.417500", "102547.417500", "102549.417500"],
      "ContentTime": ["102041.468000", "102042.963000", "102044.965000", "102046.964000", "102048.964000", "102050.964000", "102052.965000", "102054.964000", "102056.964000", "102058.963000", "102100.963000", "102102.964000", "102104.965000", "102106.965000", "102108.965000", "102110.964000", "102112.963000", "102114.963000", "102116.964000", "102118.964000", "102120.964000", "102122.965000", "102124.964000", "102126.965000", "102128.965000", "102130.963000", "102132.963000", "102134.964000", "102136.963000", "102138.965000", "102140.965000", "102142.964000", "102144.964000", "102146.964000", "102148.963000", "102150.963000", "102152.963000", "102154.965000", "102156.964000", "102158.965000", "102200.964000", "102202.964000", "102204.963000", "102206.964000", "102208.964000", "102210.963000", "102212.965000", "102214.965000", "102216.964000", "102218.965000", "102220.965000", "102222.963000", "102224.963000", "102226.963000", "102228.964000", "102230.964000", "102232.964000", "102234.965000", "102236.965000", "102238.965000", "102240.963000", "102242.963000", "102244.963000", "102246.963000", "102248.965000", "102250.964000", "102252.964000", "102254.965000", "102256.965000", "102258.963000", "102300.963000", "102302.963000", "102304.964000", "102306.964000", "102308.964000", "102310.964000", "102312.965000", "102314.963000", "102316.964000", "102318.964000", "102320.963000", "102322.964000", "102324.965000", "102326.964000", "102328.964000", "102330.965000", "102332.964000", "102334.964000", "102336.963000", "102338.964000", "102340.964000", "102342.964000", "102344.964000", "102346.964000", "102348.965000", "102350.963000", "102352.964000", "102355.464000", "102356.963000", "102358.965000", "102400.964000", "102402.965000", "102404.964000", "102406.964000", "102408.964000", "102410.963000", "102412.964000", "102414.965000", "102416.965000", "102418.964000", "102420.965000", "102422.964000", "102424.963000", "102426.963000", "102428.963000", "102430.964000", "102432.964000", "102434.964000", "102436.965000", "102438.964000", "102440.964000", "102442.963000", "102444.963000", "102446.964000", "102448.964000", "102450.964000", "102452.964000", "102454.965000", "102456.964000", "102458.964000", "102500.963000", "102502.964000", "102504.963000", "102506.963000", "102508.964000", "102510.964000", "102512.964000", "102514.964000", "102516.964000", "102518.964000", "102520.964000", "102522.964000", "102524.964000", "102526.981000", "102528.964000", "102530.964000", "102532.964000", "102534.964000", "102536.964000", "102538.964000", "102540.964000", "102542.964000", "102544.964000", "102546.965000", "102548.965000", "102550.838000"],
      "InstanceCreationTime": ["102041.468000", "102042.963000", "102044.965000", "102046.964000", "102048.964000", "102050.964000", "102052.965000", "102054.964000", "102056.964000", "102058.963000", "102100.963000", "102102.964000", "102104.965000", "102106.965000", "102108.965000", "102110.964000", "102112.963000", "102114.963000", "102116.964000", "102118.964000", "102120.964000", "102122.965000", "102124.964000", "102126.965000", "102128.965000", "102130.963000", "102132.963000", "102134.964000", "102136.963000", "102138.965000", "102140.965000", "102142.964000", "102144.964000", "102146.964000", "102148.963000", "102150.963000", "102152.963000", "102154.965000", "102156.964000", "102158.965000", "102200.964000", "102202.964000", "102204.963000", "102206.964000", "102208.964000", "102210.963000", "102212.965000", "102214.965000", "102216.964000", "102218.965000", "102220.965000", "102222.963000", "102224.963000", "102226.963000", "102228.964000", "102230.964000", "102232.964000", "102234.965000", "102236.965000", "102238.965000", "102240.963000", "102242.963000", "102244.963000", "102246.963000", "102248.965000", "102250.964000", "102252.964000", "102254.965000", "102256.965000", "102258.963000", "102300.963000", "102302.963000", "102304.964000", "102306.964000", "102308.964000", "102310.964000", "102312.965000", "102314.963000", "102316.964000", "102318.964000", "102320.963000", "102322.964000", "102324.965000", "102326.964000", "102328.964000", "102330.965000", "102332.964000", "102334.964000", "102336.963000", "102338.964000", "102340.964000", "102342.964000", "102344.964000", "102346.964000", "102348.965000", "102350.963000", "102352.964000", "102355.464000", "102356.963000", "102358.965000", "102400.964000", "102402.965000", "102404.964000", "102406.964000", "102408.964000", "102410.963000", "102412.964000", "102414.965000", "102416.965000", "102418.964000", "102420.965000", "102422.964000", "102424.963000", "102426.963000", "102428.963000", "102430.964000", "102432.964000", "102434.964000", "102436.965000", "102438.964000", "102440.964000", "102442.963000", "102444.963000", "102446.964000", "102448.964000", "102450.964000", "102452.964000", "102454.965000", "102456.964000", "102458.964000", "102500.963000", "102502.964000", "102504.963000", "102506.963000", "102508.964000", "102510.964000", "102512.964000", "102514.964000", "102516.964000", "102518.964000", "102520.964000", "102522.964000", "102524.964000", "102526.981000", "102528.964000", "102530.964000", "102532.964000", "102534.964000", "102536.964000", "102538.964000", "102540.964000", "102542.964000", "102544.964000", "102546.965000", "102548.965000", "102550.838000"],
      "InstanceNumber": [1, 2, 3, 4, 5, 6, 7, 8, 9, 10, 11, 12, 13, 14, 15, 16, 17, 18, 19, 20, 21, 22, 23, 24, 25, 26, 27, 28, 29, 30, 31, 32, 33, 34, 35, 36, 37, 38, 39, 40, 41, 42, 43, 44, 45, 46, 47, 48, 49, 50, 51, 52, 53, 54, 55, 56, 57, 58, 59, 60, 61, 62, 63, 64, 65, 66, 67, 68, 69, 70, 71, 72, 73, 74, 75, 76, 77, 78, 79, 80, 81, 82, 83, 84, 85, 86, 87, 88, 89, 90, 91, 92, 93, 94, 95, 96, 97, 98, 99, 100, 101, 102, 103, 104, 105, 106, 107, 108, 109, 110, 111, 112, 113, 114, 115, 116, 117, 118, 119, 120, 121, 122, 123, 124, 125, 126, 127, 128, 129, 130, 131, 132, 133, 134, 135, 136, 137, 138, 139, 140, 141, 142, 143, 144, 145, 146, 147, 148, 149, 150, 151, 152, 153, 154, 155, 156],
      "WindowCenter": [832.0, 828.0, 828.0, 829.0, 829.0, 831.0, 832.0, 832.0, 832.0, 833.0, 834.0, 834.0, 835.0, 835.0, 835.0, 835.0, 835.0, 833.0, 832.0, 832.0, 833.0, 833.0, 833.0, 833.0, 834.0, 834.0, 833.0, 833.0, 833.0, 833.0, 836.0, 836.0, 834.0, 833.0, 832.0, 833.0, 834.0, 834.0, 833.0, 833.0, 834.0, 833.0, 833.0, 833.0, 834.0, 834.0, 833.0, 834.0, 835.0, 836.0, 835.0, 835.0, 834.0, 834.0, 834.0, 834.0, 833.0, 834.0, 833.0, 833.0, 833.0, 833.0, 834.0, 836.0, 836.0, 834.0, 833.0, 833.0, 834.0, 835.0, 834.0, 834.0, 834.0, 834.0, 833.0, 831.0, 830.0, 831.0, 832.0, 833.0, 834.0, 834.0, 833.0, 833.0, 834.0, 836.0, 837.0, 838.0, 837.0, 835.0, 834.0, 834.0, 834.0, 835.0, 835.0, 836.0, 835.0, 833.0, 829.0, 828.0, 828.0, 829.0, 831.0, 832.0, 833.0, 834.0, 833.0, 834.0, 834.0, 835.0, 836.0, 836.0, 836.0, 836.0, 835.0, 836.0, 836.0, 836.0, 836.0, 836.0, 836.0, 836.0, 836.0, 836.0, 835.0, 835.0, 833.0, 832.0, 833.0, 833.0, 833.0, 833.0, 834.0, 836.0, 836.0, 835.0, 835.0, 836.0, 836.0, 835.0, 834.0, 836.0, 835.0, 835.0, 832.0, 832.0, 829.0, 828.0, 829.0, 830.0, 832.0, 834.0, 835.0, 835.0, 836.0, 836.0],
      "WindowWidth": [1860.0, 1847.0, 1847.0, 1850.0, 1853.0, 1859.0, 1861.0, 1860.0, 1861.0, 1864.0, 1868.0, 1869.0, 1871.0, 1872.0, 1872.0, 1873.0, 1871.0, 1866.0, 1863.0, 1863.0, 1865.0, 1864.0, 1863.0, 1865.0, 1869.0, 1868.0, 1866.0, 1865.0, 1864.0, 1866.0, 1874.0, 1874.0, 1868.0, 1864.0, 1861.0, 1865.0, 1868.0, 1868.0, 1867.0, 1866.0, 1867.0, 1864.0, 1866.0, 1867.0, 1870.0, 1868.0, 1866.0, 1868.0, 1871.0, 1874.0, 1873.0, 1871.0, 1870.0, 1868.0, 1867.0, 1868.0, 1867.0, 1869.0, 1867.0, 1866.0, 1866.0, 1866.0, 1869.0, 1876.0, 1875.0, 1869.0, 1866.0, 1865.0, 1869.0, 1871.0, 1868.0, 1868.0, 1870.0, 1868.0, 1865.0, 1860.0, 1856.0, 1859.0, 1863.0, 1867.0, 1869.0, 1869.0, 1865.0, 1865.0, 1868.0, 1873.0, 1877.0, 1880.0, 1876.0, 1870.0, 1867.0, 1866.0, 1869.0, 1871.0, 1872.0, 1873.0, 1873.0, 1865.0, 1853.0, 1848.0, 1851.0, 1853.0, 1859.0, 1863.0, 1864.0, 1866.0, 1866.0, 1867.0, 1868.0, 1871.0, 1873.0, 1875.0, 1875.0, 1874.0, 1873.0, 1873.0, 1875.0, 1875.0, 1874.0, 1873.0, 1873.0, 1874.0, 1873.0, 1873.0, 1872.0, 1870.0, 1865.0, 1862.0, 1863.0, 1863.0, 1864.0, 1864.0, 1868.0, 1873.0, 1875.0, 1872.0, 1873.0, 1875.0, 1876.0, 1871.0, 1869.0, 1874.0, 1871.0, 1871.0, 1862.0, 1861.0, 1853.0, 1851.0, 1853.0, 1857.0, 1862.0, 1870.0, 1871.0, 1871.0, 1872.0, 1874.0]
    },
    "slices": {}
  }
}