{
  "AcquisitionMatrixPE": 100,
  "AcquisitionNumber": 1,
  "AcquisitionTime": "09:53:34.525000",
  "BandwidthPerPixelPhaseEncode": 18.519,
  "BaseResolution": 100,
  "BodyPartExamined": "BRAIN",
  "CoilCombinationMethod": "Sum of Squares",
  "ConsistencyInfo": "N4_VE11C_LATEST_20160120",
  "ConversionSoftware": "dcm2niix",
  "ConversionSoftwareVersion": "v1.0.20211006",
  "DerivedVendorReportedEchoSpacing": 0.000539986,
  "DeviceSerialNumber": "166078",
  "DwellTime": 2.1e-06,
  "EchoTime": 0.034,
  "EchoTrainLength": 100,
  "EffectiveEchoSpacing": 0.000539986,
  "FlipAngle": 90,
  "ImageOrientationPatientDICOM": [0.99685, 0.0187054, 0.0770665, -5.99349e-09, 0.971785, -0.235869],
  "ImageOrientationText": "Tra>Cor(-13.6)>Sag(4.5)",
  "ImageType": [
    "ORIGINAL",
    "PRIMARY",
    "M",
    "ND",
    "MOSAIC"
],
  "ImagingFrequency": 123.258,
  "InPlanePhaseEncodingDirectionDICOM": "COL",
  "InstitutionAddress": "Street StreetNo,Bei Jing,District,CN,ZIP",
  "InstitutionName": "BeiJing Normal University",
  "InstitutionalDepartmentName": "Department",
  "MRAcquisitionType": "2D",
  "MagneticFieldStrength": 3,
  "Manufacturer": "Siemens",
  "ManufacturersModelName": "Prisma",
  "Modality": "MR",
  "MultibandAccelerationFactor": 3,
  "PartialFourier": 1,
  "PatientPosition": "HFS",
  "PercentPhaseFOV": 100,
  "PercentSampling": 100,
  "PhaseEncodingDirection": "j-",
  "PhaseEncodingSteps": 100,
  "PhaseResolution": 1,
  "PixelBandwidth": 2380,
  "ProcedureStepDescription": "BNU_P2018_64CH^Zhen.ZongLei",
  "ProtocolName": "bold_100x100_s3_2x2x2_static_156",
  "PulseSequenceDetails": "%SiemensSeq%\\ep2d_bold",
  "ReceiveCoilActiveElements": "HC1-7;NC1",
  "ReceiveCoilName": "HeadNeck_64",
  "ReconMatrixPE": 100,
  "RefLinesPE": 32,
  "RepetitionTime": 2,
  "SAR": 0.0680172,
  "ScanOptions": "FS",
  "ScanningSequence": "EP",
  "SequenceName": "*epfid2d1_100",
  "SequenceVariant": "SK",
  "SeriesDescription": "bold_100x100_s3_2x2x2_static_156",
  "SeriesNumber": 9,
  "ShimSetting": [-5428, -11517, -1313, 415, 115, -426, -218, -38],
  "SliceThickness": 2,
  "SliceTiming": [1.485, 0, 0.99, 0.0825, 1.0725, 0.165, 1.155, 0.2475, 1.2375, 0.33, 1.32, 0.4125, 1.4025, 0.5775, 1.5675, 0.66, 1.65, 0.7425, 1.7325, 0.825, 1.815, 0.9075, 1.8975, 0.495, 1.485, 0, 0.99, 0.0825, 1.0725, 0.165, 1.155, 0.2475, 1.2375, 0.33, 1.32, 0.4125, 1.4025, 0.5775, 1.5675, 0.66, 1.65, 0.7425, 1.7325, 0.825, 1.815, 0.9075, 1.8975, 0.495, 1.485, 0, 0.99, 0.0825, 1.0725, 0.165, 1.155, 0.2475, 1.2375, 0.33, 1.32, 0.4125, 1.4025, 0.5775, 1.5675, 0.66, 1.65, 0.7425, 1.7325, 0.825, 1.815, 0.9075, 1.8975, 0.495],
  "SoftwareVersions": "syngo MR E11",
  "SpacingBetweenSlices": 2,
  "StationName": "AWP166078",
  "TaskName": "action",
  "TotalReadoutTime": 0.0534586,
  "TxRefAmp": 209.779,
  "dcmmeta_affine": [
    [-1.9937009811401367, -1.1986972303645871e-08, 0.15860825777053833, 97.49837493896484],
    [-0.03741084039211273, 1.943569540977478, -0.4702529311180115, -70.97064208984375],
    [0.15413309633731842, 0.47173869609832764, 1.937448263168335, -101.6880111694336],
    [0.0, 0.0, 0.0, 1.0]
],
  "dcmmeta_reorient_transform": [
    [0.0, -1.0, 0.0, 99.0],
    [1.0, 0.0, 0.0, 0.0],
    [0.0, 0.0, 1.0, 0.0],
    [0.0, 0.0, 0.0, 1.0]
],
  "dcmmeta_shape": [100, 100, 72, 156],
  "dcmmeta_slice_dim": 2,
  "dcmmeta_version": 0.6,
  "global": {
    "const": {
      "AcquisitionMatrix": [100, 0, 0, 100],
      "AngioFlag": "N",
      "BitsAllocated": 16,
      "BitsStored": 12,
      "BodyPartExamined": "BRAIN",
      "Columns": 900,
      "EchoNumbers": 1,
      "EchoTime": 34.0,
      "EchoTrainLength": 100,
      "FlipAngle": 90.0,
      "HighBit": 11,
      "ImageOrientationPatient": [0.99685046763352, 0.018705419536, 0.07706654565252, -5.993486e-09, 0.9717847756587, -0.2358693490006],
      "ImagePositionPatient": [-894.97874111957, -913.83490011676, 72.056365481554],
      "ImageType": [
        "ORIGINAL",
        "PRIMARY",
        "M",
        "ND",
        "MOSAIC"
],
      "ImagedNucleus": "1H",
      "ImagingFrequency": 123.257739,
      "InPlanePhaseEncodingDirection": "COL",
      "MRAcquisitionType": "2D",
      "MagneticFieldStrength": 3.0,
      "Manufacturer": "SIEMENS",
      "ManufacturerModelName": "Prisma",
      "Modality": "MR",
      "NumberOfAverages": 1.0,
      "NumberOfPhaseEncodingSteps": 100,
      "PercentPhaseFieldOfView": 100.0,
      "PercentSampling": 100.0,
      "PerformedProcedureStepStartTime": "090325.218000",
      "PhotometricInterpretation": "MONOCHROME2",
      "PixelBandwidth": 2380.0,
      "PixelRepresentation": 0,
      "PixelSpacing": [2.0, 2.0],
      "ProtocolName": "bold_100x100_s3_2x2x2_static_156",
      "RepetitionTime": 2000.0,
      "Rows": 900,
      "SAR": 0.06801716196721,
      "SamplesPerPixel": 1,
      "ScanOptions": "FS",
      "ScanningSequence": "EP",
      "SequenceName": "*epfid2d1_100",
      "SequenceVariant": "SK",
      "SeriesDescription": "bold_100x100_s3_2x2x2_static_156",
      "SeriesNumber": 9,
      "SeriesTime": "095336.748000",
      "SliceLocation": -74.088524950361,
      "SliceThickness": 2.0,
      "SmallestImagePixelValue": 0,
      "SoftwareVersions": "syngo MR E11",
      "SpacingBetweenSlices": 1.9999999926164,
      "SpecificCharacterSet": "ISO_IR 100",
      "StudyID": "1",
      "StudyTime": "090325.146000",
      "TransmitCoilName": "Body",
      "VariableFlipAngleFlag": "N",
      "WindowCenterWidthExplanation": "Algo1",
      "dBdt": 0.0},
    "slices": {}
  },
  "time": {
    "samples": {
      "AcquisitionNumber": [1, 2, 3, 4, 5, 6, 7, 8, 9, 10, 11, 12, 13, 14, 15, 16, 17, 18, 19, 20, 21, 22, 23, 24, 25, 26, 27, 28, 29, 30, 31, 32, 33, 34, 35, 36, 37, 38, 39, 40, 41, 42, 43, 44, 45, 46, 47, 48, 49, 50, 51, 52, 53, 54, 55, 56, 57, 58, 59, 60, 61, 62, 63, 64, 65, 66, 67, 68, 69, 70, 71, 72, 73, 74, 75, 76, 77, 78, 79, 80, 81, 82, 83, 84, 85, 86, 87, 88, 89, 90, 91, 92, 93, 94, 95, 96, 97, 98, 99, 100, 101, 102, 103, 104, 105, 106, 107, 108, 109, 110, 111, 112, 113, 114, 115, 116, 117, 118, 119, 120, 121, 122, 123, 124, 125, 126, 127, 128, 129, 130, 131, 132, 133, 134, 135, 136, 137, 138, 139, 140, 141, 142, 143, 144, 145, 146, 147, 148, 149, 150, 151, 152, 153, 154, 155, 156],
      "AcquisitionTime": ["095334.525000", "095336.525000", "095338.525000", "095340.525000", "095342.525000", "095344.525000", "095346.525000", "095348.525000", "095350.525000", "095352.525000", "095354.525000", "095356.525000", "095358.525000", "095400.525000", "095402.525000", "095404.525000", "095406.525000", "095408.525000", "095410.525000", "095412.525000", "095414.525000", "095416.525000", "095418.525000", "095420.525000", "095422.525000", "095424.525000", "095426.525000", "095428.525000", "095430.525000", "095432.525000", "095434.525000", "095436.525000", "095438.525000", "095440.525000", "095442.525000", "095444.525000", "095446.525000", "095448.525000", "095450.525000", "095452.525000", "095454.525000", "095456.525000", "095458.525000", "095500.525000", "095502.525000", "095504.525000", "095506.525000", "095508.525000", "095510.525000", "095512.525000", "095514.525000", "095516.525000", "095518.525000", "095520.525000", "095522.525000", "095524.525000", "095526.525000", "095528.525000", "095530.525000", "095532.525000", "095534.525000", "095536.525000", "095538.525000", "095540.525000", "095542.525000", "095544.525000", "095546.525000", "095548.525000", "095550.525000", "095552.525000", "095554.525000", "095556.525000", "095558.525000", "095600.525000", "095602.525000", "095604.525000", "095606.525000", "095608.525000", "095610.525000", "095612.525000", "095614.525000", "095616.525000", "095618.525000", "095620.525000", "095622.525000", "095624.525000", "095626.525000", "095628.525000", "095630.525000", "095632.525000", "095634.525000", "095636.525000", "095638.525000", "095640.525000", "095642.525000", "095644.525000", "095646.525000", "095648.525000", "095650.525000", "095652.525000", "095654.525000", "095656.525000", "095658.525000", "095700.525000", "095702.525000", "095704.525000", "095706.525000", "095708.525000", "095710.525000", "095712.525000", "095714.525000", "095716.525000", "095718.525000", "095720.525000", "095722.525000", "095724.525000", "095726.525000", "095728.525000", "095730.525000", "095732.525000", "095734.525000", "095736.525000", "095738.525000", "095740.525000", "095742.525000", "095744.525000", "095746.525000", "095748.525000", "095750.525000", "095752.525000", "095754.525000", "095756.525000", "095758.525000", "095800.525000", "095802.525000", "095804.525000", "095806.525000", "095808.525000", "095810.525000", "095812.525000", "095814.525000", "095816.525000", "095818.525000", "095820.525000", "095822.525000", "095824.525000", "095826.525000", "095828.525000", "095830.525000", "095832.525000", "095834.525000", "095836.525000", "095838.525000", "095840.525000", "095842.525000", "095844.525000"],
      "ContentTime": ["095336.752000", "095338.248000", "095340.748000", "095342.248000", "095344.249000", "095346.248000", "095348.749000", "095350.748000", "095352.247000", "095354.247000", "095356.248000", "095358.249000", "095400.248000", "095402.248000", "095404.249000", "095406.747000", "095408.248000", "095410.247000", "095412.247000", "095414.248000", "095416.248000", "095418.749000", "095420.248000", "095422.749000", "095424.747000", "095426.248000", "095428.748000", "095430.748000", "095432.749000", "095434.248000", "095436.748000", "095438.248000", "095440.249000", "095442.748000", "095444.748000", "095446.748000", "095448.748000", "095450.749000", "095452.749000", "095454.749000", "095456.249000", "095458.749000", "095500.247000", "095502.747000", "095504.248000", "095506.749000", "095508.248000", "095510.749000", "095512.749000", "095514.748000", "095516.748000", "095518.748000", "095520.748000", "095522.247000", "095524.749000", "095526.749000", "095528.248000", "095530.748000", "095532.248000", "095534.248000", "095536.748000", "095538.748000", "095540.748000", "095542.749000", "095544.749000", "095546.749000", "095548.749000", "095550.749000", "095552.748000", "095554.248000", "095556.748000", "095558.749000", "095600.248000", "095602.749000", "095604.248000", "095606.748000", "095608.749000", "095610.748000", "095612.247000", "095614.747000", "095616.748000", "095618.248000", "095620.249000", "095622.749000", "095624.749000", "095626.249000", "095628.748000", "095630.748000", "095632.747000", "095634.748000", "095636.748000", "095638.748000", "095640.249000", "095642.749000", "095644.748000", "095646.248000", "095648.748000", "095650.748000", "095652.748000", "095654.248000", "095656.748000", "095658.748000", "095700.749000", "095702.748000", "095704.747000", "095706.247000", "095708.748000", "095710.248000", "095712.248000", "095714.748000", "095716.248000", "095718.749000", "095720.748000", "095722.248000", "095724.747000", "095726.249000", "095728.748000", "095730.749000", "095732.249000", "095734.749000", "095736.748000", "095738.272000", "095740.247000", "095742.748000", "095744.749000", "095746.749000", "095748.748000", "095750.748000", "095752.248000", "095754.248000", "095756.248000", "095758.248000", "095800.748000", "095802.749000", "095804.749000", "095806.749000", "095808.749000", "095810.749000", "095812.747000", "095814.747000", "095816.748000", "095818.749000", "095820.749000", "095822.749000", "095824.749000", "095826.748000", "095828.749000", "095830.748000", "095832.247000", "095834.748000", "095836.749000", "095838.748000", "095840.248000", "095842.749000", "095844.748000", "095846.325000"],
      "InstanceCreationTime": ["095336.752000", "095338.248000", "095340.748000", "095342.248000", "095344.249000", "095346.248000", "095348.749000", "095350.748000", "095352.247000", "095354.247000", "095356.248000", "095358.249000", "095400.248000", "095402.248000", "095404.249000", "095406.747000", "095408.248000", "095410.247000", "095412.247000", "095414.248000", "095416.248000", "095418.749000", "095420.248000", "095422.749000", "095424.747000", "095426.248000", "095428.748000", "095430.748000", "095432.749000", "095434.248000", "095436.748000", "095438.248000", "095440.249000", "095442.748000", "095444.748000", "095446.748000", "095448.748000", "095450.749000", "095452.749000", "095454.749000", "095456.249000", "095458.749000", "095500.247000", "095502.747000", "095504.248000", "095506.749000", "095508.248000", "095510.749000", "095512.749000", "095514.748000", "095516.748000", "095518.748000", "095520.748000", "095522.247000", "095524.749000", "095526.749000", "095528.248000", "095530.748000", "095532.248000", "095534.248000", "095536.748000", "095538.748000", "095540.748000", "095542.749000", "095544.749000", "095546.749000", "095548.749000", "095550.749000", "095552.748000", "095554.248000", "095556.748000", "095558.749000", "095600.248000", "095602.749000", "095604.248000", "095606.748000", "095608.749000", "095610.748000", "095612.247000", "095614.747000", "095616.748000", "095618.248000", "095620.249000", "095622.749000", "095624.749000", "095626.249000", "095628.748000", "095630.748000", "095632.747000", "095634.748000", "095636.748000", "095638.748000", "095640.249000", "095642.749000", "095644.748000", "095646.248000", "095648.748000", "095650.748000", "095652.748000", "095654.248000", "095656.748000", "095658.748000", "095700.749000", "095702.748000", "095704.747000", "095706.247000", "095708.748000", "095710.248000", "095712.248000", "095714.748000", "095716.248000", "095718.749000", "095720.748000", "095722.248000", "095724.747000", "095726.249000", "095728.748000", "095730.749000", "095732.249000", "095734.749000", "095736.748000", "095738.272000", "095740.247000", "095742.748000", "095744.749000", "095746.749000", "095748.748000", "095750.748000", "095752.248000", "095754.248000", "095756.248000", "095758.248000", "095800.748000", "095802.749000", "095804.749000", "095806.749000", "095808.749000", "095810.749000", "095812.747000", "095814.747000", "095816.748000", "095818.749000", "095820.749000", "095822.749000", "095824.749000", "095826.748000", "095828.749000", "095830.748000", "095832.247000", "095834.748000", "095836.749000", "095838.748000", "095840.248000", "095842.749000", "095844.748000", "095846.325000"],
      "InstanceNumber": [1, 2, 3, 4, 5, 6, 7, 8, 9, 10, 11, 12, 13, 14, 15, 16, 17, 18, 19, 20, 21, 22, 23, 24, 25, 26, 27, 28, 29, 30, 31, 32, 33, 34, 35, 36, 37, 38, 39, 40, 41, 42, 43, 44, 45, 46, 47, 48, 49, 50, 51, 52, 53, 54, 55, 56, 57, 58, 59, 60, 61, 62, 63, 64, 65, 66, 67, 68, 69, 70, 71, 72, 73, 74, 75, 76, 77, 78, 79, 80, 81, 82, 83, 84, 85, 86, 87, 88, 89, 90, 91, 92, 93, 94, 95, 96, 97, 98, 99, 100, 101, 102, 103, 104, 105, 106, 107, 108, 109, 110, 111, 112, 113, 114, 115, 116, 117, 118, 119, 120, 121, 122, 123, 124, 125, 126, 127, 128, 129, 130, 131, 132, 133, 134, 135, 136, 137, 138, 139, 140, 141, 142, 143, 144, 145, 146, 147, 148, 149, 150, 151, 152, 153, 154, 155, 156],
      "LargestImagePixelValue": [4095, 4095, 4095, 4095, 4095, 4095, 4095, 4095, 4095, 4095, 4095, 4095, 4095, 4095, 4095, 4073, 4095, 4095, 4095, 4095, 4095, 4095, 4095, 4095, 4095, 4095, 4095, 4095, 4095, 4095, 4095, 4095, 4095, 4095, 4095, 4095, 4095, 4095, 4095, 4095, 4095, 4095, 4095, 4095, 4095, 4095, 4095, 4095, 4095, 4095, 4095, 4095, 4095, 4095, 4095, 4095, 4095, 4095, 4095, 4095, 4095, 4095, 4095, 4095, 4095, 4095, 4095, 4095, 4095, 4095, 4095, 4095, 4095, 4095, 4095, 4095, 4095, 4095, 4095, 4095, 4095, 4095, 4095, 4095, 4095, 4095, 4095, 4095, 4095, 4095, 4095, 4095, 4095, 4095, 4095, 4095, 4095, 4095, 4095, 4095, 4095, 4095, 4095, 4095, 4095, 4095, 4095, 4095, 4095, 4095, 4086, 4095, 4095, 4095, 4095, 4095, 4095, 4095, 4095, 4095, 4095, 4095, 4095, 4095, 4095, 4095, 4095, 4095, 4095, 4095, 4079, 4095, 4095, 4095, 4095, 4095, 4095, 4095, 4095, 4095, 4095, 4095, 4095, 4095, 4095, 4095, 4095, 4095, 4095, 4095, 4095, 4095, 4095, 4095, 4095, 4095],
      "WindowCenter": [832.0, 830.0, 829.0, 828.0, 828.0, 827.0, 828.0, 829.0, 830.0, 830.0, 829.0, 829.0, 828.0, 828.0, 827.0, 828.0, 827.0, 827.0, 828.0, 826.0, 825.0, 826.0, 827.0, 828.0, 828.0, 828.0, 827.0, 827.0, 827.0, 827.0, 827.0, 826.0, 826.0, 828.0, 830.0, 829.0, 827.0, 827.0, 828.0, 829.0, 829.0, 828.0, 827.0, 828.0, 828.0, 828.0, 828.0, 828.0, 826.0, 826.0, 826.0, 827.0, 828.0, 827.0, 826.0, 825.0, 827.0, 828.0, 829.0, 827.0, 827.0, 827.0, 827.0, 827.0, 828.0, 828.0, 829.0, 828.0, 828.0, 828.0, 827.0, 827.0, 827.0, 827.0, 828.0, 827.0, 827.0, 828.0, 828.0, 828.0, 828.0, 828.0, 828.0, 828.0, 827.0, 827.0, 827.0, 828.0, 829.0, 828.0, 828.0, 827.0, 827.0, 827.0, 827.0, 827.0, 828.0, 828.0, 827.0, 828.0, 829.0, 828.0, 826.0, 826.0, 826.0, 827.0, 826.0, 827.0, 829.0, 828.0, 828.0, 827.0, 828.0, 828.0, 827.0, 827.0, 827.0, 828.0, 828.0, 828.0, 829.0, 829.0, 829.0, 828.0, 828.0, 828.0, 827.0, 826.0, 827.0, 827.0, 827.0, 826.0, 827.0, 828.0, 828.0, 828.0, 826.0, 827.0, 828.0, 827.0, 827.0, 827.0, 827.0, 827.0, 828.0, 828.0, 828.0, 828.0, 827.0, 826.0, 825.0, 825.0, 825.0, 826.0, 826.0, 826.0],
      "WindowWidth": [1860.0, 1853.0, 1851.0, 1848.0, 1847.0, 1845.0, 1848.0, 1851.0, 1853.0, 1854.0, 1853.0, 1852.0, 1849.0, 1849.0, 1846.0, 1848.0, 1844.0, 1846.0, 1848.0, 1843.0, 1840.0, 1841.0, 1846.0, 1850.0, 1851.0, 1848.0, 1845.0, 1845.0, 1846.0, 1846.0, 1845.0, 1843.0, 1843.0, 1849.0, 1854.0, 1852.0, 1847.0, 1846.0, 1849.0, 1852.0, 1851.0, 1850.0, 1847.0, 1849.0, 1849.0, 1850.0, 1848.0, 1848.0, 1844.0, 1842.0, 1842.0, 1845.0, 1849.0, 1846.0, 1843.0, 1841.0, 1847.0, 1850.0, 1853.0, 1847.0, 1845.0, 1845.0, 1846.0, 1846.0, 1848.0, 1850.0, 1851.0, 1850.0, 1849.0, 1849.0, 1847.0, 1846.0, 1847.0, 1846.0, 1849.0, 1846.0, 1846.0, 1849.0, 1850.0, 1849.0, 1848.0, 1849.0, 1850.0, 1847.0, 1846.0, 1845.0, 1847.0, 1851.0, 1852.0, 1850.0, 1848.0, 1845.0, 1846.0, 1847.0, 1847.0, 1847.0, 1848.0, 1848.0, 1846.0, 1850.0, 1851.0, 1850.0, 1844.0, 1842.0, 1843.0, 1844.0, 1843.0, 1847.0, 1850.0, 1849.0, 1847.0, 1847.0, 1848.0, 1848.0, 1846.0, 1846.0, 1845.0, 1848.0, 1849.0, 1849.0, 1852.0, 1852.0, 1852.0, 1850.0, 1849.0, 1848.0, 1844.0, 1842.0, 1844.0, 1846.0, 1845.0, 1843.0, 1846.0, 1850.0, 1850.0, 1847.0, 1844.0, 1844.0, 1847.0, 1846.0, 1846.0, 1847.0, 1847.0, 1846.0, 1847.0, 1848.0, 1850.0, 1850.0, 1846.0, 1843.0, 1840.0, 1839.0, 1840.0, 1842.0, 1843.0, 1844.0]
    },
    "slices": {}
  }
}