{
  "AcquisitionMatrixPE": 100,
  "AcquisitionNumber": 1,
  "AcquisitionTime": "09:33:24.200000",
  "BandwidthPerPixelPhaseEncode": 18.519,
  "BaseResolution": 100,
  "BodyPartExamined": "BRAIN",
  "CoilCombinationMethod": "Sum of Squares",
  "ConsistencyInfo": "N4_VE11C_LATEST_20160120",
  "ConversionSoftware": "dcm2niix",
  "ConversionSoftwareVersion": "v1.0.20211006",
  "DerivedVendorReportedEchoSpacing": 0.000539986,
  "DeviceSerialNumber": "166078",
  "DwellTime": 2.1e-06,
  "EchoTime": 0.034,
  "EchoTrainLength": 100,
  "EffectiveEchoSpacing": 0.000539986,
  "FlipAngle": 90,
  "ImageOrientationPatientDICOM": [0.99685, 0.0187054, 0.0770665, -5.99349e-09, 0.971785, -0.235869],
  "ImageOrientationText": "Tra>Cor(-13.6)>Sag(4.5)",
  "ImageType": [
    "ORIGINAL",
    "PRIMARY",
    "M",
    "ND",
    "MOSAIC"
],
  "ImagingFrequency": 123.258,
  "InPlanePhaseEncodingDirectionDICOM": "COL",
  "InstitutionAddress": "Street StreetNo,Bei Jing,District,CN,ZIP",
  "InstitutionName": "BeiJing Normal University",
  "InstitutionalDepartmentName": "Department",
  "MRAcquisitionType": "2D",
  "MagneticFieldStrength": 3,
  "Manufacturer": "Siemens",
  "ManufacturersModelName": "Prisma",
  "Modality": "MR",
  "MultibandAccelerationFactor": 3,
  "PartialFourier": 1,
  "PatientPosition": "HFS",
  "PercentPhaseFOV": 100,
  "PercentSampling": 100,
  "PhaseEncodingDirection": "j-",
  "PhaseEncodingSteps": 100,
  "PhaseResolution": 1,
  "PixelBandwidth": 2380,
  "ProcedureStepDescription": "BNU_P2018_64CH^Zhen.ZongLei",
  "ProtocolName": "bold_100x100_s3_2x2x2_static_156",
  "PulseSequenceDetails": "%SiemensSeq%\\ep2d_bold",
  "ReceiveCoilActiveElements": "HC1-7;NC1",
  "ReceiveCoilName": "HeadNeck_64",
  "ReconMatrixPE": 100,
  "RefLinesPE": 32,
  "RepetitionTime": 2,
  "SAR": 0.0680172,
  "ScanOptions": "FS",
  "ScanningSequence": "EP",
  "SequenceName": "*epfid2d1_100",
  "SequenceVariant": "SK",
  "SeriesDescription": "bold_100x100_s3_2x2x2_static_156",
  "SeriesNumber": 6,
  "ShimSetting": [-5428, -11517, -1313, 415, 115, -426, -218, -38],
  "SliceThickness": 2,
  "SliceTiming": [1.485, 0, 0.99, 0.0825, 1.0725, 0.165, 1.155, 0.2475, 1.2375, 0.33, 1.32, 0.4125, 1.4025, 0.5775, 1.5675, 0.66, 1.65, 0.7425, 1.7325, 0.825, 1.815, 0.9075, 1.8975, 0.495, 1.485, 0, 0.99, 0.0825, 1.0725, 0.165, 1.155, 0.2475, 1.2375, 0.33, 1.32, 0.4125, 1.4025, 0.5775, 1.5675, 0.66, 1.65, 0.7425, 1.7325, 0.825, 1.815, 0.9075, 1.8975, 0.495, 1.485, 0, 0.99, 0.0825, 1.0725, 0.165, 1.155, 0.2475, 1.2375, 0.33, 1.32, 0.4125, 1.4025, 0.5775, 1.5675, 0.66, 1.65, 0.7425, 1.7325, 0.825, 1.815, 0.9075, 1.8975, 0.495],
  "SoftwareVersions": "syngo MR E11",
  "SpacingBetweenSlices": 2,
  "StationName": "AWP166078",
  "TaskName": "action",
  "TotalReadoutTime": 0.0534586,
  "TxRefAmp": 209.779,
  "dcmmeta_affine": [
    [-1.9937009811401367, -1.1986972303645871e-08, 0.15860825777053833, 97.49837493896484],
    [-0.03741084039211273, 1.943569540977478, -0.4702529311180115, -70.97064208984375],
    [0.15413309633731842, 0.47173869609832764, 1.937448263168335, -101.6880111694336],
    [0.0, 0.0, 0.0, 1.0]
],
  "dcmmeta_reorient_transform": [
    [0.0, -1.0, 0.0, 99.0],
    [1.0, 0.0, 0.0, 0.0],
    [0.0, 0.0, 1.0, 0.0],
    [0.0, 0.0, 0.0, 1.0]
],
  "dcmmeta_shape": [100, 100, 72, 156],
  "dcmmeta_slice_dim": 2,
  "dcmmeta_version": 0.6,
  "global": {
    "const": {
      "AcquisitionMatrix": [100, 0, 0, 100],
      "AngioFlag": "N",
      "BitsAllocated": 16,
      "BitsStored": 12,
      "BodyPartExamined": "BRAIN",
      "Columns": 900,
      "EchoNumbers": 1,
      "EchoTime": 34.0,
      "EchoTrainLength": 100,
      "FlipAngle": 90.0,
      "HighBit": 11,
      "ImageOrientationPatient": [0.99685046763352, 0.018705419536, 0.07706654565252, -5.993486e-09, 0.9717847756587, -0.2358693490006],
      "ImagePositionPatient": [-894.97874111957, -913.83490011676, 72.056365481554],
      "ImageType": [
        "ORIGINAL",
        "PRIMARY",
        "M",
        "ND",
        "MOSAIC"
],
      "ImagedNucleus": "1H",
      "ImagingFrequency": 123.257728,
      "InPlanePhaseEncodingDirection": "COL",
      "MRAcquisitionType": "2D",
      "MagneticFieldStrength": 3.0,
      "Manufacturer": "SIEMENS",
      "ManufacturerModelName": "Prisma",
      "Modality": "MR",
      "NumberOfAverages": 1.0,
      "NumberOfPhaseEncodingSteps": 100,
      "PercentPhaseFieldOfView": 100.0,
      "PercentSampling": 100.0,
      "PerformedProcedureStepStartTime": "090325.218000",
      "PhotometricInterpretation": "MONOCHROME2",
      "PixelBandwidth": 2380.0,
      "PixelRepresentation": 0,
      "PixelSpacing": [2.0, 2.0],
      "ProtocolName": "bold_100x100_s3_2x2x2_static_156",
      "RepetitionTime": 2000.0,
      "Rows": 900,
      "SAR": 0.06801716196721,
      "SamplesPerPixel": 1,
      "ScanOptions": "FS",
      "ScanningSequence": "EP",
      "SequenceName": "*epfid2d1_100",
      "SequenceVariant": "SK",
      "SeriesDescription": "bold_100x100_s3_2x2x2_static_156",
      "SeriesNumber": 6,
      "SeriesTime": "093326.971000",
      "SliceLocation": -74.088524950361,
      "SliceThickness": 2.0,
      "SmallestImagePixelValue": 0,
      "SoftwareVersions": "syngo MR E11",
      "SpacingBetweenSlices": 1.9999999926164,
      "SpecificCharacterSet": "ISO_IR 100",
      "StudyID": "1",
      "StudyTime": "090325.146000",
      "TransmitCoilName": "Body",
      "VariableFlipAngleFlag": "N",
      "WindowCenterWidthExplanation": "Algo1",
      "dBdt": 0.0},
    "slices": {}
  },
  "time": {
    "samples": {
      "AcquisitionNumber": [1, 2, 3, 4, 5, 6, 7, 8, 9, 10, 11, 12, 13, 14, 15, 16, 17, 18, 19, 20, 21, 22, 23, 24, 25, 26, 27, 28, 29, 30, 31, 32, 33, 34, 35, 36, 37, 38, 39, 40, 41, 42, 43, 44, 45, 46, 47, 48, 49, 50, 51, 52, 53, 54, 55, 56, 57, 58, 59, 60, 61, 62, 63, 64, 65, 66, 67, 68, 69, 70, 71, 72, 73, 74, 75, 76, 77, 78, 79, 80, 81, 82, 83, 84, 85, 86, 87, 88, 89, 90, 91, 92, 93, 94, 95, 96, 97, 98, 99, 100, 101, 102, 103, 104, 105, 106, 107, 108, 109, 110, 111, 112, 113, 114, 115, 116, 117, 118, 119, 120, 121, 122, 123, 124, 125, 126, 127, 128, 129, 130, 131, 132, 133, 134, 135, 136, 137, 138, 139, 140, 141, 142, 143, 144, 145, 146, 147, 148, 149, 150, 151, 152, 153, 154, 155, 156],
      "AcquisitionTime": ["093324.200000", "093326.200000", "093328.200000", "093330.200000", "093332.200000", "093334.200000", "093336.200000", "093338.200000", "093340.200000", "093342.200000", "093344.200000", "093346.200000", "093348.200000", "093350.200000", "093352.200000", "093354.200000", "093356.200000", "093358.200000", "093400.200000", "093402.200000", "093404.200000", "093406.200000", "093408.200000", "093410.200000", "093412.200000", "093414.200000", "093416.200000", "093418.200000", "093420.200000", "093422.200000", "093424.200000", "093426.200000", "093428.200000", "093430.200000", "093432.200000", "093434.200000", "093436.200000", "093438.200000", "093440.200000", "093442.200000", "093444.200000", "093446.200000", "093448.200000", "093450.200000", "093452.200000", "093454.200000", "093456.200000", "093458.200000", "093500.200000", "093502.200000", "093504.200000", "093506.200000", "093508.200000", "093510.200000", "093512.200000", "093514.200000", "093516.200000", "093518.200000", "093520.200000", "093522.200000", "093524.200000", "093526.200000", "093528.200000", "093530.200000", "093532.200000", "093534.200000", "093536.200000", "093538.200000", "093540.200000", "093542.200000", "093544.200000", "093546.200000", "093548.200000", "093550.200000", "093552.200000", "093554.200000", "093556.200000", "093558.200000", "093600.200000", "093602.200000", "093604.200000", "093606.200000", "093608.200000", "093610.200000", "093612.200000", "093614.200000", "093616.200000", "093618.200000", "093620.200000", "093622.200000", "093624.200000", "093626.200000", "093628.200000", "093630.200000", "093632.200000", "093634.200000", "093636.200000", "093638.200000", "093640.200000", "093642.200000", "093644.200000", "093646.200000", "093648.200000", "093650.200000", "093652.200000", "093654.200000", "093656.200000", "093658.200000", "093700.200000", "093702.200000", "093704.200000", "093706.200000", "093708.200000", "093710.200000", "093712.200000", "093714.200000", "093716.200000", "093718.200000", "093720.200000", "093722.200000", "093724.200000", "093726.200000", "093728.200000", "093730.200000", "093732.200000", "093734.200000", "093736.200000", "093738.200000", "093740.200000", "093742.200000", "093744.200000", "093746.200000", "093748.200000", "093750.200000", "093752.200000", "093754.200000", "093756.200000", "093758.200000", "093800.200000", "093802.200000", "093804.200000", "093806.200000", "093808.200000", "093810.200000", "093812.200000", "093814.200000", "093816.200000", "093818.200000", "093820.200000", "093822.200000", "093824.200000", "093826.200000", "093828.200000", "093830.200000", "093832.200000", "093834.200000"],
      "ContentTime": ["093326.975000", "093328.471000", "093330.471000", "093332.471000", "093334.472000", "093336.472000", "093338.471000", "093340.470000", "093342.470000", "093344.470000", "093346.471000", "093348.470000", "093350.471000", "093352.472000", "093354.472000", "093356.471000", "093358.471000", "093400.471000", "093402.471000", "093404.471000", "093406.470000", "093408.472000", "093410.472000", "093412.472000", "093414.470000", "093416.471000", "093418.470000", "093420.471000", "093422.470000", "093424.470000", "093426.471000", "093428.472000", "093430.471000", "093432.471000", "093434.471000", "093436.471000", "093438.470000", "093440.470000", "093442.472000", "093444.471000", "093446.472000", "093448.472000", "093450.470000", "093452.470000", "093454.470000", "093456.471000", "093458.470000", "093500.471000", "093502.472000", "093504.471000", "093506.472000", "093508.471000", "093510.470000", "093512.471000", "093514.471000", "093516.471000", "093518.472000", "093520.472000", "093522.472000", "093524.471000", "093526.470000", "093528.471000", "093530.471000", "093532.470000", "093534.470000", "093536.471000", "093538.472000", "093540.472000", "093542.471000", "093544.471000", "093546.471000", "093548.471000", "093550.471000", "093552.472000", "093554.471000", "093556.471000", "093558.471000", "093600.470000", "093602.471000", "093604.471000", "093606.470000", "093608.470000", "093610.471000", "093612.471000", "093614.472000", "093616.472000", "093618.471000", "093620.471000", "093622.471000", "093624.471000", "093626.470000", "093628.471000", "093630.472000", "093632.472000", "093634.471000", "093636.470000", "093638.471000", "093640.471000", "093642.471000", "093644.470000", "093646.471000", "093648.472000", "093650.471000", "093652.470000", "093654.471000", "093656.471000", "093658.471000", "093700.471000", "093702.472000", "093704.472000", "093706.472000", "093708.472000", "093710.471000", "093712.471000", "093714.471000", "093716.471000", "093718.470000", "093720.472000", "093722.472000", "093724.471000", "093726.472000", "093728.471000", "093730.470000", "093732.471000", "093734.471000", "093736.471000", "093738.472000", "093740.472000", "093742.471000", "093744.470000", "093746.470000", "093748.471000", "093750.471000", "093752.470000", "093754.471000", "093756.472000", "093758.471000", "093800.472000", "093802.471000", "093804.471000", "093806.470000", "093808.470000", "093810.471000", "093812.471000", "093814.472000", "093816.472000", "093818.471000", "093820.471000", "093822.470000", "093824.470000", "093826.471000", "093828.471000", "093830.472000", "093832.472000", "093834.472000", "093836.078000"],
      "InstanceCreationTime": ["093326.975000", "093328.471000", "093330.471000", "093332.471000", "093334.472000", "093336.472000", "093338.471000", "093340.470000", "093342.470000", "093344.470000", "093346.471000", "093348.470000", "093350.471000", "093352.472000", "093354.472000", "093356.471000", "093358.471000", "093400.471000", "093402.471000", "093404.471000", "093406.470000", "093408.472000", "093410.472000", "093412.472000", "093414.470000", "093416.471000", "093418.470000", "093420.471000", "093422.470000", "093424.470000", "093426.471000", "093428.472000", "093430.471000", "093432.471000", "093434.471000", "093436.471000", "093438.470000", "093440.470000", "093442.472000", "093444.471000", "093446.472000", "093448.472000", "093450.470000", "093452.470000", "093454.470000", "093456.471000", "093458.470000", "093500.471000", "093502.472000", "093504.471000", "093506.472000", "093508.471000", "093510.470000", "093512.471000", "093514.471000", "093516.471000", "093518.472000", "093520.472000", "093522.472000", "093524.471000", "093526.470000", "093528.471000", "093530.471000", "093532.470000", "093534.470000", "093536.471000", "093538.472000", "093540.472000", "093542.471000", "093544.471000", "093546.471000", "093548.471000", "093550.471000", "093552.472000", "093554.471000", "093556.471000", "093558.471000", "093600.470000", "093602.471000", "093604.471000", "093606.470000", "093608.470000", "093610.471000", "093612.471000", "093614.472000", "093616.472000", "093618.471000", "093620.471000", "093622.471000", "093624.471000", "093626.470000", "093628.471000", "093630.472000", "093632.472000", "093634.471000", "093636.470000", "093638.471000", "093640.471000", "093642.471000", "093644.470000", "093646.471000", "093648.472000", "093650.471000", "093652.470000", "093654.471000", "093656.471000", "093658.471000", "093700.471000", "093702.472000", "093704.472000", "093706.472000", "093708.472000", "093710.471000", "093712.471000", "093714.471000", "093716.471000", "093718.470000", "093720.472000", "093722.472000", "093724.471000", "093726.472000", "093728.471000", "093730.470000", "093732.471000", "093734.471000", "093736.471000", "093738.472000", "093740.472000", "093742.471000", "093744.470000", "093746.470000", "093748.471000", "093750.471000", "093752.470000", "093754.471000", "093756.472000", "093758.471000", "093800.472000", "093802.471000", "093804.471000", "093806.470000", "093808.470000", "093810.471000", "093812.471000", "093814.472000", "093816.472000", "093818.471000", "093820.471000", "093822.470000", "093824.470000", "093826.471000", "093828.471000", "093830.472000", "093832.472000", "093834.472000", "093836.078000"],
      "InstanceNumber": [1, 2, 3, 4, 5, 6, 7, 8, 9, 10, 11, 12, 13, 14, 15, 16, 17, 18, 19, 20, 21, 22, 23, 24, 25, 26, 27, 28, 29, 30, 31, 32, 33, 34, 35, 36, 37, 38, 39, 40, 41, 42, 43, 44, 45, 46, 47, 48, 49, 50, 51, 52, 53, 54, 55, 56, 57, 58, 59, 60, 61, 62, 63, 64, 65, 66, 67, 68, 69, 70, 71, 72, 73, 74, 75, 76, 77, 78, 79, 80, 81, 82, 83, 84, 85, 86, 87, 88, 89, 90, 91, 92, 93, 94, 95, 96, 97, 98, 99, 100, 101, 102, 103, 104, 105, 106, 107, 108, 109, 110, 111, 112, 113, 114, 115, 116, 117, 118, 119, 120, 121, 122, 123, 124, 125, 126, 127, 128, 129, 130, 131, 132, 133, 134, 135, 136, 137, 138, 139, 140, 141, 142, 143, 144, 145, 146, 147, 148, 149, 150, 151, 152, 153, 154, 155, 156],
      "LargestImagePixelValue": [4036, 4075, 4095, 4095, 4095, 4089, 4095, 4095, 4095, 3995, 3957, 3933, 3974, 3964, 3961, 4013, 3941, 3942, 3944, 3947, 4000, 3963, 3937, 3954, 3953, 3979, 3959, 3925, 3960, 3999, 3952, 4022, 4095, 4017, 4068, 4007, 3933, 3936, 3943, 3938, 3924, 4026, 4084, 4095, 4065, 4030, 3936, 3908, 3972, 3957, 3950, 3947, 3968, 3951, 3983, 3966, 4014, 3975, 3953, 4008, 3966, 3942, 4016, 3981, 3931, 3974, 3955, 3990, 3961, 3988, 3948, 3989, 3975, 3986, 4022, 4001, 3976, 3986, 3962, 4005, 4024, 3975, 3936, 3954, 4028, 3952, 3957, 3982, 3938, 3957, 3980, 3975, 3939, 3951, 3974, 3958, 3975, 3973, 3957, 3974, 3951, 3978, 4067, 3966, 3950, 3966, 4010, 4095, 4095, 4031, 3956, 3944, 3960, 4017, 4095, 4086, 4049, 3988, 3951, 3951, 3990, 3946, 3949, 3967, 4008, 3971, 3946, 3959, 3951, 3946, 3960, 3963, 3968, 3986, 3982, 4095, 4095, 3977, 4095, 3960, 3923, 3933, 3953, 3971, 3955, 3951, 3951, 3961, 4057, 4059, 4095, 4095, 4081, 4095, 4079, 4021],
      "WindowCenter": [825.0, 825.0, 825.0, 823.0, 822.0, 822.0, 823.0, 824.0, 823.0, 823.0, 822.0, 822.0, 821.0, 822.0, 822.0, 823.0, 823.0, 822.0, 821.0, 821.0, 823.0, 823.0, 823.0, 822.0, 823.0, 823.0, 822.0, 823.0, 823.0, 822.0, 821.0, 821.0, 823.0, 824.0, 824.0, 824.0, 822.0, 820.0, 821.0, 823.0, 822.0, 822.0, 822.0, 823.0, 823.0, 825.0, 824.0, 822.0, 821.0, 821.0, 821.0, 822.0, 823.0, 823.0, 824.0, 824.0, 823.0, 823.0, 822.0, 824.0, 824.0, 824.0, 824.0, 823.0, 823.0, 824.0, 823.0, 822.0, 821.0, 821.0, 822.0, 823.0, 823.0, 823.0, 824.0, 824.0, 823.0, 822.0, 823.0, 822.0, 823.0, 823.0, 825.0, 825.0, 824.0, 821.0, 820.0, 821.0, 820.0, 821.0, 822.0, 822.0, 821.0, 821.0, 821.0, 822.0, 823.0, 823.0, 823.0, 823.0, 824.0, 824.0, 824.0, 823.0, 823.0, 823.0, 823.0, 825.0, 826.0, 826.0, 824.0, 823.0, 824.0, 824.0, 824.0, 823.0, 823.0, 823.0, 823.0, 824.0, 824.0, 823.0, 823.0, 823.0, 823.0, 823.0, 822.0, 823.0, 823.0, 823.0, 822.0, 822.0, 823.0, 823.0, 823.0, 824.0, 824.0, 824.0, 824.0, 822.0, 821.0, 822.0, 824.0, 824.0, 824.0, 823.0, 822.0, 821.0, 824.0, 825.0, 825.0, 824.0, 824.0, 823.0, 823.0, 824.0],
      "WindowWidth": [1840.0, 1840.0, 1841.0, 1834.0, 1830.0, 1831.0, 1834.0, 1836.0, 1834.0, 1832.0, 1831.0, 1831.0, 1827.0, 1830.0, 1832.0, 1834.0, 1832.0, 1829.0, 1829.0, 1829.0, 1834.0, 1833.0, 1832.0, 1832.0, 1832.0, 1832.0, 1831.0, 1832.0, 1834.0, 1830.0, 1827.0, 1828.0, 1835.0, 1836.0, 1839.0, 1837.0, 1831.0, 1825.0, 1829.0, 1834.0, 1831.0, 1830.0, 1830.0, 1834.0, 1836.0, 1840.0, 1835.0, 1830.0, 1828.0, 1827.0, 1828.0, 1830.0, 1833.0, 1834.0, 1836.0, 1835.0, 1834.0, 1834.0, 1832.0, 1836.0, 1838.0, 1836.0, 1837.0, 1835.0, 1834.0, 1836.0, 1832.0, 1832.0, 1828.0, 1829.0, 1830.0, 1834.0, 1833.0, 1835.0, 1837.0, 1836.0, 1834.0, 1832.0, 1832.0, 1831.0, 1834.0, 1833.0, 1838.0, 1841.0, 1838.0, 1829.0, 1826.0, 1826.0, 1825.0, 1829.0, 1831.0, 1830.0, 1826.0, 1828.0, 1829.0, 1831.0, 1834.0, 1834.0, 1834.0, 1835.0, 1836.0, 1836.0, 1837.0, 1833.0, 1833.0, 1834.0, 1836.0, 1842.0, 1845.0, 1843.0, 1838.0, 1833.0, 1836.0, 1839.0, 1838.0, 1835.0, 1833.0, 1833.0, 1832.0, 1835.0, 1837.0, 1834.0, 1833.0, 1833.0, 1834.0, 1834.0, 1831.0, 1833.0, 1833.0, 1833.0, 1829.0, 1830.0, 1834.0, 1835.0, 1833.0, 1838.0, 1838.0, 1838.0, 1837.0, 1830.0, 1827.0, 1831.0, 1837.0, 1838.0, 1837.0, 1833.0, 1830.0, 1829.0, 1837.0, 1842.0, 1842.0, 1838.0, 1836.0, 1835.0, 1835.0, 1838.0]
    },
    "slices": {}
  }
}