{
  "AcquisitionMatrixPE": 100,
  "AcquisitionNumber": 1,
  "AcquisitionTime": "10:14:49.597500",
  "BandwidthPerPixelPhaseEncode": 18.519,
  "BaseResolution": 100,
  "BodyPartExamined": "BRAIN",
  "CoilCombinationMethod": "Sum of Squares",
  "ConsistencyInfo": "N4_VE11C_LATEST_20160120",
  "ConversionSoftware": "dcm2niix",
  "ConversionSoftwareVersion": "v1.0.20211006",
  "DerivedVendorReportedEchoSpacing": 0.000539986,
  "DeviceSerialNumber": "166078",
  "DwellTime": 2.1e-06,
  "EchoTime": 0.034,
  "EchoTrainLength": 100,
  "EffectiveEchoSpacing": 0.000539986,
  "FlipAngle": 90,
  "ImageOrientationPatientDICOM": [0.99685, 0.0187054, 0.0770665, -5.99349e-09, 0.971785, -0.235869],
  "ImageOrientationText": "Tra>Cor(-13.6)>Sag(4.5)",
  "ImageType": [
    "ORIGINAL",
    "PRIMARY",
    "M",
    "ND",
    "MOSAIC"
],
  "ImagingFrequency": 123.258,
  "InPlanePhaseEncodingDirectionDICOM": "COL",
  "InstitutionAddress": "Street StreetNo,Bei Jing,District,CN,ZIP",
  "InstitutionName": "BeiJing Normal University",
  "InstitutionalDepartmentName": "Department",
  "MRAcquisitionType": "2D",
  "MagneticFieldStrength": 3,
  "Manufacturer": "Siemens",
  "ManufacturersModelName": "Prisma",
  "Modality": "MR",
  "MultibandAccelerationFactor": 3,
  "PartialFourier": 1,
  "PatientPosition": "HFS",
  "PercentPhaseFOV": 100,
  "PercentSampling": 100,
  "PhaseEncodingDirection": "j-",
  "PhaseEncodingSteps": 100,
  "PhaseResolution": 1,
  "PixelBandwidth": 2380,
  "ProcedureStepDescription": "BNU_P2018_64CH^Zhen.ZongLei",
  "ProtocolName": "bold_100x100_s3_2x2x2_static_156",
  "PulseSequenceDetails": "%SiemensSeq%\\ep2d_bold",
  "ReceiveCoilActiveElements": "HC1-7;NC1",
  "ReceiveCoilName": "HeadNeck_64",
  "ReconMatrixPE": 100,
  "RefLinesPE": 32,
  "RepetitionTime": 2,
  "SAR": 0.0680172,
  "ScanOptions": "FS",
  "ScanningSequence": "EP",
  "SequenceName": "*epfid2d1_100",
  "SequenceVariant": "SK",
  "SeriesDescription": "bold_100x100_s3_2x2x2_static_156",
  "SeriesNumber": 14,
  "ShimSetting": [-5428, -11517, -1313, 415, 115, -426, -218, -38],
  "SliceThickness": 2,
  "SliceTiming": [1.4825, 0, 0.9875, 0.0825, 1.07, 0.165, 1.1525, 0.2475, 1.235, 0.33, 1.3175, 0.4125, 1.4, 0.575, 1.565, 0.6575, 1.6475, 0.74, 1.73, 0.8225, 1.8125, 0.905, 1.895, 0.495, 1.4825, 0, 0.9875, 0.0825, 1.07, 0.165, 1.1525, 0.2475, 1.235, 0.33, 1.3175, 0.4125, 1.4, 0.575, 1.565, 0.6575, 1.6475, 0.74, 1.73, 0.8225, 1.8125, 0.905, 1.895, 0.495, 1.4825, 0, 0.9875, 0.0825, 1.07, 0.165, 1.1525, 0.2475, 1.235, 0.33, 1.3175, 0.4125, 1.4, 0.575, 1.565, 0.6575, 1.6475, 0.74, 1.73, 0.8225, 1.8125, 0.905, 1.895, 0.495],
  "SoftwareVersions": "syngo MR E11",
  "SpacingBetweenSlices": 2,
  "StationName": "AWP166078",
  "TaskName": "action",
  "TotalReadoutTime": 0.0534586,
  "TxRefAmp": 209.779,
  "dcmmeta_affine": [
    [-1.9937009811401367, -1.1986972303645871e-08, 0.15860825777053833, 97.49837493896484],
    [-0.03741084039211273, 1.943569540977478, -0.4702529311180115, -70.97064208984375],
    [0.15413309633731842, 0.47173869609832764, 1.937448263168335, -101.6880111694336],
    [0.0, 0.0, 0.0, 1.0]
],
  "dcmmeta_reorient_transform": [
    [0.0, -1.0, 0.0, 99.0],
    [1.0, 0.0, 0.0, 0.0],
    [0.0, 0.0, 1.0, 0.0],
    [0.0, 0.0, 0.0, 1.0]
],
  "dcmmeta_shape": [100, 100, 72, 156],
  "dcmmeta_slice_dim": 2,
  "dcmmeta_version": 0.6,
  "global": {
    "const": {
      "AcquisitionMatrix": [100, 0, 0, 100],
      "AngioFlag": "N",
      "BitsAllocated": 16,
      "BitsStored": 12,
      "BodyPartExamined": "BRAIN",
      "Columns": 900,
      "EchoNumbers": 1,
      "EchoTime": 34.0,
      "EchoTrainLength": 100,
      "FlipAngle": 90.0,
      "HighBit": 11,
      "ImageOrientationPatient": [0.99685046763352, 0.018705419536, 0.07706654565252, -5.993486e-09, 0.9717847756587, -0.2358693490006],
      "ImagePositionPatient": [-894.97874111957, -913.83490011676, 72.056365481554],
      "ImageType": [
        "ORIGINAL",
        "PRIMARY",
        "M",
        "ND",
        "MOSAIC"
],
      "ImagedNucleus": "1H",
      "ImagingFrequency": 123.257747,
      "InPlanePhaseEncodingDirection": "COL",
      "MRAcquisitionType": "2D",
      "MagneticFieldStrength": 3.0,
      "Manufacturer": "SIEMENS",
      "ManufacturerModelName": "Prisma",
      "Modality": "MR",
      "NumberOfAverages": 1.0,
      "NumberOfPhaseEncodingSteps": 100,
      "PercentPhaseFieldOfView": 100.0,
      "PercentSampling": 100.0,
      "PerformedProcedureStepStartTime": "090325.218000",
      "PhotometricInterpretation": "MONOCHROME2",
      "PixelBandwidth": 2380.0,
      "PixelRepresentation": 0,
      "PixelSpacing": [2.0, 2.0],
      "ProtocolName": "bold_100x100_s3_2x2x2_static_156",
      "RepetitionTime": 2000.0,
      "Rows": 900,
      "SAR": 0.06801716196721,
      "SamplesPerPixel": 1,
      "ScanOptions": "FS",
      "ScanningSequence": "EP",
      "SequenceName": "*epfid2d1_100",
      "SequenceVariant": "SK",
      "SeriesDescription": "bold_100x100_s3_2x2x2_static_156",
      "SeriesNumber": 14,
      "SeriesTime": "101451.947000",
      "SliceLocation": -74.088524950361,
      "SliceThickness": 2.0,
      "SmallestImagePixelValue": 0,
      "SoftwareVersions": "syngo MR E11",
      "SpacingBetweenSlices": 1.9999999926164,
      "SpecificCharacterSet": "ISO_IR 100",
      "StudyID": "1",
      "StudyTime": "090325.146000",
      "TransmitCoilName": "Body",
      "VariableFlipAngleFlag": "N",
      "WindowCenterWidthExplanation": "Algo1",
      "dBdt": 0.0},
    "slices": {}
  },
  "time": {
    "samples": {
      "AcquisitionNumber": [1, 2, 3, 4, 5, 6, 7, 8, 9, 10, 11, 12, 13, 14, 15, 16, 17, 18, 19, 20, 21, 22, 23, 24, 25, 26, 27, 28, 29, 30, 31, 32, 33, 34, 35, 36, 37, 38, 39, 40, 41, 42, 43, 44, 45, 46, 47, 48, 49, 50, 51, 52, 53, 54, 55, 56, 57, 58, 59, 60, 61, 62, 63, 64, 65, 66, 67, 68, 69, 70, 71, 72, 73, 74, 75, 76, 77, 78, 79, 80, 81, 82, 83, 84, 85, 86, 87, 88, 89, 90, 91, 92, 93, 94, 95, 96, 97, 98, 99, 100, 101, 102, 103, 104, 105, 106, 107, 108, 109, 110, 111, 112, 113, 114, 115, 116, 117, 118, 119, 120, 121, 122, 123, 124, 125, 126, 127, 128, 129, 130, 131, 132, 133, 134, 135, 136, 137, 138, 139, 140, 141, 142, 143, 144, 145, 146, 147, 148, 149, 150, 151, 152, 153, 154, 155, 156],
      "AcquisitionTime": ["101449.597500", "101451.597500", "101453.597500", "101455.597500", "101457.597500", "101459.597500", "101501.597500", "101503.597500", "101505.597500", "101507.597500", "101509.597500", "101511.597500", "101513.597500", "101515.597500", "101517.597500", "101519.597500", "101521.597500", "101523.597500", "101525.597500", "101527.597500", "101529.597500", "101531.597500", "101533.597500", "101535.597500", "101537.597500", "101539.597500", "101541.597500", "101543.597500", "101545.597500", "101547.597500", "101549.597500", "101551.597500", "101553.597500", "101555.597500", "101557.597500", "101559.597500", "101601.597500", "101603.597500", "101605.597500", "101607.597500", "101609.597500", "101611.597500", "101613.597500", "101615.597500", "101617.597500", "101619.597500", "101621.597500", "101623.597500", "101625.597500", "101627.597500", "101629.597500", "101631.597500", "101633.597500", "101635.597500", "101637.597500", "101639.597500", "101641.597500", "101643.597500", "101645.597500", "101647.597500", "101649.597500", "101651.597500", "101653.597500", "101655.597500", "101657.597500", "101659.597500", "101701.597500", "101703.597500", "101705.597500", "101707.597500", "101709.597500", "101711.597500", "101713.597500", "101715.597500", "101717.597500", "101719.597500", "101721.597500", "101723.597500", "101725.597500", "101727.597500", "101729.597500", "101731.597500", "101733.597500", "101735.597500", "101737.597500", "101739.597500", "101741.597500", "101743.597500", "101745.597500", "101747.597500", "101749.597500", "101751.597500", "101753.597500", "101755.597500", "101757.597500", "101759.597500", "101801.597500", "101803.597500", "101805.597500", "101807.597500", "101809.597500", "101811.597500", "101813.597500", "101815.597500", "101817.597500", "101819.597500", "101821.597500", "101823.597500", "101825.597500", "101827.597500", "101829.597500", "101831.597500", "101833.597500", "101835.597500", "101837.597500", "101839.597500", "101841.597500", "101843.597500", "101845.597500", "101847.597500", "101849.597500", "101851.597500", "101853.597500", "101855.597500", "101857.597500", "101859.597500", "101901.597500", "101903.597500", "101905.597500", "101907.597500", "101909.597500", "101911.597500", "101913.597500", "101915.597500", "101917.597500", "101919.597500", "101921.597500", "101923.597500", "101925.597500", "101927.597500", "101929.597500", "101931.597500", "101933.597500", "101935.597500", "101937.597500", "101939.597500", "101941.597500", "101943.597500", "101945.597500", "101947.597500", "101949.597500", "101951.597500", "101953.597500", "101955.597500", "101957.597500", "101959.597500"],
      "ContentTime": ["101451.951000", "101453.447000", "101455.448000", "101457.448000", "101459.448000", "101501.448000", "101503.447000", "101505.448000", "101507.446000", "101509.447000", "101511.446000", "101513.448000", "101515.447000", "101517.448000", "101519.448000", "101521.448000", "101523.447000", "101525.446000", "101527.446000", "101529.447000", "101531.448000", "101533.448000", "101535.448000", "101537.448000", "101539.447000", "101541.447000", "101543.447000", "101545.446000", "101547.447000", "101549.447000", "101551.447000", "101553.448000", "101555.447000", "101557.447000", "101559.448000", "101601.446000", "101603.446000", "101605.448000", "101607.447000", "101609.447000", "101611.448000", "101613.447000", "101615.447000", "101617.446000", "101619.447000", "101621.446000", "101623.447000", "101625.448000", "101627.448000", "101629.447000", "101631.448000", "101633.448000", "101635.446000", "101637.446000", "101639.446000", "101641.448000", "101643.447000", "101645.448000", "101647.447000", "101649.448000", "101651.448000", "101653.447000", "101655.446000", "101657.446000", "101659.448000", "101701.447000", "101703.448000", "101705.447000", "101707.448000", "101709.448000", "101711.446000", "101713.446000", "101715.447000", "101717.447000", "101719.448000", "101721.447000", "101723.447000", "101725.447000", "101727.447000", "101729.447000", "101731.447000", "101733.448000", "101735.448000", "101737.448000", "101739.448000", "101741.447000", "101743.448000", "101745.446000", "101747.447000", "101749.446000", "101751.448000", "101753.448000", "101755.448000", "101757.447000", "101759.448000", "101801.448000", "101803.446000", "101805.446000", "101807.446000", "101809.447000", "101811.447000", "101813.447000", "101815.447000", "101817.447000", "101819.447000", "101821.446000", "101823.447000", "101825.448000", "101827.448000", "101829.448000", "101831.448000", "101833.448000", "101835.448000", "101837.447000", "101839.447000", "101841.446000", "101843.448000", "101845.448000", "101847.448000", "101849.448000", "101851.447000", "101853.448000", "101855.446000", "101857.447000", "101859.447000", "101901.447000", "101903.448000", "101905.447000", "101907.447000", "101909.448000", "101911.447000", "101913.446000", "101915.446000", "101917.447000", "101919.447000", "101921.447000", "101923.447000", "101925.447000", "101927.447000", "101929.447000", "101931.447000", "101933.447000", "101935.448000", "101937.448000", "101939.447000", "101941.447000", "101943.448000", "101945.448000", "101947.447000", "101949.447000", "101951.447000", "101953.448000", "101955.448000", "101957.448000", "101959.448000", "102001.088000"],
      "InstanceCreationTime": ["101451.951000", "101453.447000", "101455.448000", "101457.448000", "101459.448000", "101501.448000", "101503.447000", "101505.448000", "101507.446000", "101509.447000", "101511.446000", "101513.448000", "101515.447000", "101517.448000", "101519.448000", "101521.448000", "101523.447000", "101525.446000", "101527.446000", "101529.447000", "101531.448000", "101533.448000", "101535.448000", "101537.448000", "101539.447000", "101541.447000", "101543.447000", "101545.446000", "101547.447000", "101549.447000", "101551.447000", "101553.448000", "101555.447000", "101557.447000", "101559.448000", "101601.446000", "101603.446000", "101605.448000", "101607.447000", "101609.447000", "101611.448000", "101613.447000", "101615.447000", "101617.446000", "101619.447000", "101621.446000", "101623.447000", "101625.448000", "101627.448000", "101629.447000", "101631.448000", "101633.448000", "101635.446000", "101637.446000", "101639.446000", "101641.448000", "101643.447000", "101645.448000", "101647.447000", "101649.448000", "101651.448000", "101653.447000", "101655.446000", "101657.446000", "101659.448000", "101701.447000", "101703.448000", "101705.447000", "101707.448000", "101709.448000", "101711.446000", "101713.446000", "101715.447000", "101717.447000", "101719.448000", "101721.447000", "101723.447000", "101725.447000", "101727.447000", "101729.447000", "101731.447000", "101733.448000", "101735.448000", "101737.448000", "101739.448000", "101741.447000", "101743.448000", "101745.446000", "101747.447000", "101749.446000", "101751.448000", "101753.448000", "101755.448000", "101757.447000", "101759.448000", "101801.448000", "101803.446000", "101805.446000", "101807.446000", "101809.447000", "101811.447000", "101813.447000", "101815.447000", "101817.447000", "101819.447000", "101821.446000", "101823.447000", "101825.448000", "101827.448000", "101829.448000", "101831.448000", "101833.448000", "101835.448000", "101837.447000", "101839.447000", "101841.446000", "101843.448000", "101845.448000", "101847.448000", "101849.448000", "101851.447000", "101853.448000", "101855.446000", "101857.447000", "101859.447000", "101901.447000", "101903.448000", "101905.447000", "101907.447000", "101909.448000", "101911.447000", "101913.446000", "101915.446000", "101917.447000", "101919.447000", "101921.447000", "101923.447000", "101925.447000", "101927.447000", "101929.447000", "101931.447000", "101933.447000", "101935.448000", "101937.448000", "101939.447000", "101941.447000", "101943.448000", "101945.448000", "101947.447000", "101949.447000", "101951.447000", "101953.448000", "101955.448000", "101957.448000", "101959.448000", "102001.088000"],
      "InstanceNumber": [1, 2, 3, 4, 5, 6, 7, 8, 9, 10, 11, 12, 13, 14, 15, 16, 17, 18, 19, 20, 21, 22, 23, 24, 25, 26, 27, 28, 29, 30, 31, 32, 33, 34, 35, 36, 37, 38, 39, 40, 41, 42, 43, 44, 45, 46, 47, 48, 49, 50, 51, 52, 53, 54, 55, 56, 57, 58, 59, 60, 61, 62, 63, 64, 65, 66, 67, 68, 69, 70, 71, 72, 73, 74, 75, 76, 77, 78, 79, 80, 81, 82, 83, 84, 85, 86, 87, 88, 89, 90, 91, 92, 93, 94, 95, 96, 97, 98, 99, 100, 101, 102, 103, 104, 105, 106, 107, 108, 109, 110, 111, 112, 113, 114, 115, 116, 117, 118, 119, 120, 121, 122, 123, 124, 125, 126, 127, 128, 129, 130, 131, 132, 133, 134, 135, 136, 137, 138, 139, 140, 141, 142, 143, 144, 145, 146, 147, 148, 149, 150, 151, 152, 153, 154, 155, 156],
      "LargestImagePixelValue": [4095, 4095, 4095, 4095, 4095, 4095, 4095, 4095, 4095, 4095, 4095, 4095, 4095, 4095, 4095, 4095, 4095, 4095, 4095, 4095, 4095, 4095, 4095, 4095, 4095, 4095, 4095, 4095, 4095, 4095, 4095, 4095, 4095, 4095, 4095, 4095, 4095, 4095, 4095, 4095, 4095, 4095, 4095, 4095, 4095, 4095, 4095, 4095, 4095, 4095, 4095, 4095, 4095, 4095, 4095, 4095, 4095, 4095, 4095, 4095, 4095, 4095, 4095, 4095, 4095, 4095, 4095, 4095, 4095, 4095, 4095, 4095, 4095, 4095, 4095, 4095, 4095, 4095, 4095, 4095, 4095, 4095, 4095, 4095, 4095, 4095, 4095, 4095, 4095, 4095, 4095, 4095, 4095, 4095, 4095, 4095, 4095, 4095, 4095, 4095, 4095, 4095, 4095, 4095, 4095, 4095, 4095, 4095, 4095, 4095, 4095, 4095, 4095, 4095, 4095, 4095, 4095, 4095, 4095, 4064, 4095, 4095, 4095, 4095, 4095, 4095, 4095, 4095, 4095, 4095, 4095, 4095, 4095, 4095, 4095, 4095, 4095, 4095, 4095, 4095, 4095, 4095, 4095, 4095, 4095, 4095, 4095, 4095, 4095, 4095, 4095, 4095, 4095, 4095, 4095, 4095],
      "WindowCenter": [831.0, 830.0, 830.0, 830.0, 830.0, 831.0, 831.0, 829.0, 829.0, 829.0, 830.0, 830.0, 829.0, 829.0, 830.0, 830.0, 831.0, 830.0, 829.0, 828.0, 828.0, 830.0, 832.0, 830.0, 829.0, 829.0, 831.0, 833.0, 832.0, 830.0, 829.0, 830.0, 830.0, 829.0, 829.0, 830.0, 830.0, 830.0, 830.0, 831.0, 832.0, 832.0, 830.0, 830.0, 830.0, 831.0, 831.0, 830.0, 830.0, 830.0, 832.0, 832.0, 831.0, 829.0, 829.0, 829.0, 829.0, 831.0, 831.0, 830.0, 829.0, 829.0, 831.0, 830.0, 829.0, 830.0, 830.0, 830.0, 831.0, 831.0, 832.0, 831.0, 831.0, 830.0, 831.0, 831.0, 830.0, 830.0, 830.0, 831.0, 831.0, 832.0, 831.0, 832.0, 833.0, 832.0, 831.0, 830.0, 829.0, 832.0, 832.0, 831.0, 829.0, 829.0, 830.0, 831.0, 833.0, 833.0, 832.0, 831.0, 831.0, 832.0, 831.0, 831.0, 832.0, 831.0, 832.0, 833.0, 833.0, 832.0, 831.0, 830.0, 830.0, 830.0, 829.0, 828.0, 829.0, 830.0, 830.0, 825.0, 831.0, 829.0, 829.0, 830.0, 832.0, 834.0, 834.0, 833.0, 833.0, 835.0, 836.0, 835.0, 833.0, 835.0, 835.0, 834.0, 833.0, 833.0, 833.0, 833.0, 833.0, 833.0, 833.0, 833.0, 835.0, 835.0, 834.0, 833.0, 832.0, 833.0, 834.0, 834.0, 833.0, 833.0, 834.0, 835.0],
      "WindowWidth": [1858.0, 1856.0, 1855.0, 1857.0, 1857.0, 1858.0, 1859.0, 1854.0, 1851.0, 1852.0, 1855.0, 1855.0, 1854.0, 1854.0, 1855.0, 1856.0, 1858.0, 1856.0, 1853.0, 1849.0, 1848.0, 1855.0, 1860.0, 1855.0, 1851.0, 1851.0, 1860.0, 1865.0, 1863.0, 1855.0, 1854.0, 1854.0, 1855.0, 1851.0, 1854.0, 1855.0, 1856.0, 1856.0, 1856.0, 1858.0, 1861.0, 1861.0, 1856.0, 1855.0, 1855.0, 1859.0, 1859.0, 1855.0, 1854.0, 1858.0, 1862.0, 1863.0, 1857.0, 1853.0, 1851.0, 1851.0, 1852.0, 1857.0, 1859.0, 1856.0, 1853.0, 1854.0, 1857.0, 1856.0, 1854.0, 1854.0, 1855.0, 1855.0, 1857.0, 1859.0, 1861.0, 1859.0, 1858.0, 1856.0, 1857.0, 1858.0, 1856.0, 1855.0, 1856.0, 1858.0, 1859.0, 1860.0, 1858.0, 1860.0, 1864.0, 1862.0, 1859.0, 1854.0, 1852.0, 1863.0, 1863.0, 1858.0, 1852.0, 1851.0, 1855.0, 1861.0, 1866.0, 1867.0, 1862.0, 1858.0, 1860.0, 1862.0, 1860.0, 1858.0, 1861.0, 1861.0, 1863.0, 1864.0, 1865.0, 1861.0, 1858.0, 1856.0, 1857.0, 1855.0, 1853.0, 1848.0, 1851.0, 1855.0, 1856.0, 1840.0, 1858.0, 1852.0, 1853.0, 1856.0, 1862.0, 1866.0, 1867.0, 1864.0, 1867.0, 1872.0, 1874.0, 1870.0, 1866.0, 1872.0, 1873.0, 1869.0, 1867.0, 1864.0, 1865.0, 1865.0, 1867.0, 1867.0, 1866.0, 1868.0, 1871.0, 1871.0, 1869.0, 1866.0, 1863.0, 1865.0, 1868.0, 1867.0, 1864.0, 1865.0, 1869.0, 1871.0]
    },
    "slices": {}
  }
}