{
  "AcquisitionMatrixPE": 100,
  "AcquisitionNumber": 1,
  "AcquisitionTime": "09:39:24.342500",
  "BandwidthPerPixelPhaseEncode": 18.519,
  "BaseResolution": 100,
  "BodyPartExamined": "BRAIN",
  "CoilCombinationMethod": "Sum of Squares",
  "ConsistencyInfo": "N4_VE11C_LATEST_20160120",
  "ConversionSoftware": "dcm2niix",
  "ConversionSoftwareVersion": "v1.0.20211006",
  "DerivedVendorReportedEchoSpacing": 0.000539986,
  "DeviceSerialNumber": "166078",
  "DwellTime": 2.1e-06,
  "EchoTime": 0.034,
  "EchoTrainLength": 100,
  "EffectiveEchoSpacing": 0.000539986,
  "FlipAngle": 90,
  "ImageOrientationPatientDICOM": [0.99685, 0.0187054, 0.0770665, -5.99349e-09, 0.971785, -0.235869],
  "ImageOrientationText": "Tra>Cor(-13.6)>Sag(4.5)",
  "ImageType": [
    "ORIGINAL",
    "PRIMARY",
    "M",
    "ND",
    "MOSAIC"
],
  "ImagingFrequency": 123.258,
  "InPlanePhaseEncodingDirectionDICOM": "COL",
  "InstitutionAddress": "Street StreetNo,Bei Jing,District,CN,ZIP",
  "InstitutionName": "BeiJing Normal University",
  "InstitutionalDepartmentName": "Department",
  "MRAcquisitionType": "2D",
  "MagneticFieldStrength": 3,
  "Manufacturer": "Siemens",
  "ManufacturersModelName": "Prisma",
  "Modality": "MR",
  "MultibandAccelerationFactor": 3,
  "PartialFourier": 1,
  "PatientPosition": "HFS",
  "PercentPhaseFOV": 100,
  "PercentSampling": 100,
  "PhaseEncodingDirection": "j-",
  "PhaseEncodingSteps": 100,
  "PhaseResolution": 1,
  "PixelBandwidth": 2380,
  "ProcedureStepDescription": "BNU_P2018_64CH^Zhen.ZongLei",
  "ProtocolName": "bold_100x100_s3_2x2x2_static_156",
  "PulseSequenceDetails": "%SiemensSeq%\\ep2d_bold",
  "ReceiveCoilActiveElements": "HC1-7;NC1",
  "ReceiveCoilName": "HeadNeck_64",
  "ReconMatrixPE": 100,
  "RefLinesPE": 32,
  "RepetitionTime": 2,
  "SAR": 0.0680172,
  "ScanOptions": "FS",
  "ScanningSequence": "EP",
  "SequenceName": "*epfid2d1_100",
  "SequenceVariant": "SK",
  "SeriesDescription": "bold_100x100_s3_2x2x2_static_156",
  "SeriesNumber": 7,
  "ShimSetting": [-5428, -11517, -1313, 415, 115, -426, -218, -38],
  "SliceThickness": 2,
  "SliceTiming": [1.485, 0, 0.99, 0.0825, 1.0725, 0.165, 1.155, 0.2475, 1.2375, 0.33, 1.32, 0.4125, 1.4025, 0.5775, 1.5675, 0.66, 1.65, 0.7425, 1.7325, 0.825, 1.815, 0.9075, 1.8975, 0.495, 1.485, 0, 0.99, 0.0825, 1.0725, 0.165, 1.155, 0.2475, 1.2375, 0.33, 1.32, 0.4125, 1.4025, 0.5775, 1.5675, 0.66, 1.65, 0.7425, 1.7325, 0.825, 1.815, 0.9075, 1.8975, 0.495, 1.485, 0, 0.99, 0.0825, 1.0725, 0.165, 1.155, 0.2475, 1.2375, 0.33, 1.32, 0.4125, 1.4025, 0.5775, 1.5675, 0.66, 1.65, 0.7425, 1.7325, 0.825, 1.815, 0.9075, 1.8975, 0.495],
  "SoftwareVersions": "syngo MR E11",
  "SpacingBetweenSlices": 2,
  "StationName": "AWP166078",
  "TaskName": "action",
  "TotalReadoutTime": 0.0534586,
  "TxRefAmp": 209.779,
  "dcmmeta_affine": [
    [-1.9937009811401367, -1.1986972303645871e-08, 0.15860825777053833, 97.49837493896484],
    [-0.03741084039211273, 1.943569540977478, -0.4702529311180115, -70.97064208984375],
    [0.15413309633731842, 0.47173869609832764, 1.937448263168335, -101.6880111694336],
    [0.0, 0.0, 0.0, 1.0]
],
  "dcmmeta_reorient_transform": [
    [0.0, -1.0, 0.0, 99.0],
    [1.0, 0.0, 0.0, 0.0],
    [0.0, 0.0, 1.0, 0.0],
    [0.0, 0.0, 0.0, 1.0]
],
  "dcmmeta_shape": [100, 100, 72, 156],
  "dcmmeta_slice_dim": 2,
  "dcmmeta_version": 0.6,
  "global": {
    "const": {
      "AcquisitionMatrix": [100, 0, 0, 100],
      "AngioFlag": "N",
      "BitsAllocated": 16,
      "BitsStored": 12,
      "BodyPartExamined": "BRAIN",
      "Columns": 900,
      "EchoNumbers": 1,
      "EchoTime": 34.0,
      "EchoTrainLength": 100,
      "FlipAngle": 90.0,
      "HighBit": 11,
      "ImageOrientationPatient": [0.99685046763352, 0.018705419536, 0.07706654565252, -5.993486e-09, 0.9717847756587, -0.2358693490006],
      "ImagePositionPatient": [-894.97874111957, -913.83490011676, 72.056365481554],
      "ImageType": [
        "ORIGINAL",
        "PRIMARY",
        "M",
        "ND",
        "MOSAIC"
],
      "ImagedNucleus": "1H",
      "ImagingFrequency": 123.257734,
      "InPlanePhaseEncodingDirection": "COL",
      "MRAcquisitionType": "2D",
      "MagneticFieldStrength": 3.0,
      "Manufacturer": "SIEMENS",
      "ManufacturerModelName": "Prisma",
      "Modality": "MR",
      "NumberOfAverages": 1.0,
      "NumberOfPhaseEncodingSteps": 100,
      "PercentPhaseFieldOfView": 100.0,
      "PercentSampling": 100.0,
      "PerformedProcedureStepStartTime": "090325.218000",
      "PhotometricInterpretation": "MONOCHROME2",
      "PixelBandwidth": 2380.0,
      "PixelRepresentation": 0,
      "PixelSpacing": [2.0, 2.0],
      "ProtocolName": "bold_100x100_s3_2x2x2_static_156",
      "RepetitionTime": 2000.0,
      "Rows": 900,
      "SAR": 0.06801716196721,
      "SamplesPerPixel": 1,
      "ScanOptions": "FS",
      "ScanningSequence": "EP",
      "SequenceName": "*epfid2d1_100",
      "SequenceVariant": "SK",
      "SeriesDescription": "bold_100x100_s3_2x2x2_static_156",
      "SeriesNumber": 7,
      "SeriesTime": "093926.364000",
      "SliceLocation": -74.088524950361,
      "SliceThickness": 2.0,
      "SmallestImagePixelValue": 0,
      "SoftwareVersions": "syngo MR E11",
      "SpacingBetweenSlices": 1.9999999926164,
      "SpecificCharacterSet": "ISO_IR 100",
      "StudyID": "1",
      "StudyTime": "090325.146000",
      "TransmitCoilName": "Body",
      "VariableFlipAngleFlag": "N",
      "WindowCenterWidthExplanation": "Algo1",
      "dBdt": 0.0},
    "slices": {}
  },
  "time": {
    "samples": {
      "AcquisitionNumber": [1, 2, 3, 4, 5, 6, 7, 8, 9, 10, 11, 12, 13, 14, 15, 16, 17, 18, 19, 20, 21, 22, 23, 24, 25, 26, 27, 28, 29, 30, 31, 32, 33, 34, 35, 36, 37, 38, 39, 40, 41, 42, 43, 44, 45, 46, 47, 48, 49, 50, 51, 52, 53, 54, 55, 56, 57, 58, 59, 60, 61, 62, 63, 64, 65, 66, 67, 68, 69, 70, 71, 72, 73, 74, 75, 76, 77, 78, 79, 80, 81, 82, 83, 84, 85, 86, 87, 88, 89, 90, 91, 92, 93, 94, 95, 96, 97, 98, 99, 100, 101, 102, 103, 104, 105, 106, 107, 108, 109, 110, 111, 112, 113, 114, 115, 116, 117, 118, 119, 120, 121, 122, 123, 124, 125, 126, 127, 128, 129, 130, 131, 132, 133, 134, 135, 136, 137, 138, 139, 140, 141, 142, 143, 144, 145, 146, 147, 148, 149, 150, 151, 152, 153, 154, 155, 156],
      "AcquisitionTime": ["093924.342500", "093926.342500", "093928.342500", "093930.342500", "093932.342500", "093934.342500", "093936.342500", "093938.342500", "093940.342500", "093942.342500", "093944.342500", "093946.342500", "093948.342500", "093950.342500", "093952.342500", "093954.342500", "093956.342500", "093958.342500", "094000.342500", "094002.342500", "094004.342500", "094006.342500", "094008.342500", "094010.342500", "094012.342500", "094014.342500", "094016.342500", "094018.342500", "094020.342500", "094022.342500", "094024.342500", "094026.342500", "094028.342500", "094030.342500", "094032.342500", "094034.342500", "094036.342500", "094038.342500", "094040.342500", "094042.342500", "094044.342500", "094046.342500", "094048.342500", "094050.342500", "094052.342500", "094054.342500", "094056.342500", "094058.342500", "094100.342500", "094102.342500", "094104.342500", "094106.342500", "094108.342500", "094110.342500", "094112.342500", "094114.342500", "094116.342500", "094118.342500", "094120.342500", "094122.342500", "094124.342500", "094126.342500", "094128.342500", "094130.342500", "094132.342500", "094134.342500", "094136.342500", "094138.342500", "094140.342500", "094142.342500", "094144.342500", "094146.342500", "094148.342500", "094150.342500", "094152.342500", "094154.342500", "094156.342500", "094158.342500", "094200.342500", "094202.342500", "094204.342500", "094206.342500", "094208.342500", "094210.342500", "094212.342500", "094214.342500", "094216.342500", "094218.342500", "094220.342500", "094222.342500", "094224.342500", "094226.342500", "094228.342500", "094230.342500", "094232.342500", "094234.342500", "094236.342500", "094238.342500", "094240.342500", "094242.342500", "094244.342500", "094246.342500", "094248.342500", "094250.342500", "094252.342500", "094254.342500", "094256.342500", "094258.342500", "094300.342500", "094302.342500", "094304.342500", "094306.342500", "094308.342500", "094310.342500", "094312.342500", "094314.342500", "094316.342500", "094318.342500", "094320.342500", "094322.342500", "094324.342500", "094326.342500", "094328.342500", "094330.342500", "094332.342500", "094334.342500", "094336.342500", "094338.342500", "094340.342500", "094342.342500", "094344.342500", "094346.342500", "094348.342500", "094350.342500", "094352.342500", "094354.342500", "094356.342500", "094358.342500", "094400.342500", "094402.342500", "094404.342500", "094406.342500", "094408.342500", "094410.342500", "094412.342500", "094414.342500", "094416.342500", "094418.342500", "094420.342500", "094422.342500", "094424.342500", "094426.342500", "094428.342500", "094430.342500", "094432.342500", "094434.342500"],
      "ContentTime": ["093926.368000", "093927.863000", "093929.863000", "093931.862000", "093933.862000", "093935.862000", "093937.862000", "093939.863000", "093941.864000", "093943.863000", "093945.863000", "093947.863000", "093949.863000", "093951.862000", "093953.862000", "093955.863000", "093957.864000", "093959.863000", "094001.864000", "094003.863000", "094005.863000", "094007.863000", "094009.863000", "094011.862000", "094013.862000", "094015.863000", "094017.863000", "094019.863000", "094021.864000", "094023.863000", "094025.862000", "094027.862000", "094029.862000", "094031.863000", "094033.864000", "094035.864000", "094037.864000", "094039.864000", "094041.862000", "094043.862000", "094045.862000", "094047.862000", "094049.863000", "094051.864000", "094053.864000", "094055.864000", "094057.863000", "094059.863000", "094101.863000", "094103.862000", "094105.863000", "094107.864000", "094109.864000", "094111.863000", "094113.864000", "094115.862000", "094117.862000", "094119.863000", "094121.863000", "094123.862000", "094125.864000", "094127.863000", "094129.864000", "094131.863000", "094133.862000", "094135.862000", "094137.862000", "094139.862000", "094141.862000", "094143.863000", "094145.863000", "094147.863000", "094149.863000", "094151.862000", "094153.863000", "094155.863000", "094157.863000", "094159.864000", "094201.863000", "094203.864000", "094205.863000", "094207.863000", "094209.862000", "094211.862000", "094213.863000", "094215.862000", "094217.863000", "094219.864000", "094221.864000", "094223.864000", "094225.863000", "094227.863000", "094229.863000", "094231.862000", "094233.862000", "094235.863000", "094237.864000", "094239.864000", "094241.863000", "094243.862000", "094245.862000", "094247.862000", "094249.862000", "094251.862000", "094253.864000", "094255.864000", "094257.864000", "094259.864000", "094301.863000", "094303.863000", "094305.863000", "094307.863000", "094309.864000", "094311.864000", "094313.863000", "094315.863000", "094317.864000", "094319.862000", "094321.863000", "094323.863000", "094325.862000", "094327.864000", "094329.863000", "094331.863000", "094333.864000", "094335.863000", "094337.862000", "094339.862000", "094341.862000", "094343.863000", "094345.864000", "094347.863000", "094349.863000", "094351.863000", "094353.862000", "094355.863000", "094357.862000", "094359.863000", "094401.862000", "094403.864000", "094405.863000", "094407.863000", "094409.863000", "094411.862000", "094413.862000", "094415.862000", "094417.862000", "094419.863000", "094421.863000", "094423.863000", "094425.863000", "094427.863000", "094429.862000", "094431.863000", "094433.862000", "094435.649000"],
      "InstanceCreationTime": ["093926.368000", "093927.863000", "093929.863000", "093931.862000", "093933.862000", "093935.862000", "093937.862000", "093939.863000", "093941.864000", "093943.863000", "093945.863000", "093947.863000", "093949.863000", "093951.862000", "093953.862000", "093955.863000", "093957.864000", "093959.863000", "094001.864000", "094003.863000", "094005.863000", "094007.863000", "094009.863000", "094011.862000", "094013.862000", "094015.863000", "094017.863000", "094019.863000", "094021.864000", "094023.863000", "094025.862000", "094027.862000", "094029.862000", "094031.863000", "094033.864000", "094035.864000", "094037.864000", "094039.864000", "094041.862000", "094043.862000", "094045.862000", "094047.862000", "094049.863000", "094051.864000", "094053.864000", "094055.864000", "094057.863000", "094059.863000", "094101.863000", "094103.862000", "094105.863000", "094107.864000", "094109.864000", "094111.863000", "094113.864000", "094115.862000", "094117.862000", "094119.863000", "094121.863000", "094123.862000", "094125.864000", "094127.863000", "094129.864000", "094131.863000", "094133.862000", "094135.862000", "094137.862000", "094139.862000", "094141.862000", "094143.863000", "094145.863000", "094147.863000", "094149.863000", "094151.862000", "094153.863000", "094155.863000", "094157.863000", "094159.864000", "094201.863000", "094203.864000", "094205.863000", "094207.863000", "094209.862000", "094211.862000", "094213.863000", "094215.862000", "094217.863000", "094219.864000", "094221.864000", "094223.864000", "094225.863000", "094227.863000", "094229.863000", "094231.862000", "094233.862000", "094235.863000", "094237.864000", "094239.864000", "094241.863000", "094243.862000", "094245.862000", "094247.862000", "094249.862000", "094251.862000", "094253.864000", "094255.864000", "094257.864000", "094259.864000", "094301.863000", "094303.863000", "094305.863000", "094307.863000", "094309.864000", "094311.864000", "094313.863000", "094315.863000", "094317.864000", "094319.862000", "094321.863000", "094323.863000", "094325.862000", "094327.864000", "094329.863000", "094331.863000", "094333.864000", "094335.863000", "094337.862000", "094339.862000", "094341.862000", "094343.863000", "094345.864000", "094347.863000", "094349.863000", "094351.863000", "094353.862000", "094355.863000", "094357.862000", "094359.863000", "094401.862000", "094403.864000", "094405.863000", "094407.863000", "094409.863000", "094411.862000", "094413.862000", "094415.862000", "094417.862000", "094419.863000", "094421.863000", "094423.863000", "094425.863000", "094427.863000", "094429.862000", "094431.863000", "094433.862000", "094435.649000"],
      "InstanceNumber": [1, 2, 3, 4, 5, 6, 7, 8, 9, 10, 11, 12, 13, 14, 15, 16, 17, 18, 19, 20, 21, 22, 23, 24, 25, 26, 27, 28, 29, 30, 31, 32, 33, 34, 35, 36, 37, 38, 39, 40, 41, 42, 43, 44, 45, 46, 47, 48, 49, 50, 51, 52, 53, 54, 55, 56, 57, 58, 59, 60, 61, 62, 63, 64, 65, 66, 67, 68, 69, 70, 71, 72, 73, 74, 75, 76, 77, 78, 79, 80, 81, 82, 83, 84, 85, 86, 87, 88, 89, 90, 91, 92, 93, 94, 95, 96, 97, 98, 99, 100, 101, 102, 103, 104, 105, 106, 107, 108, 109, 110, 111, 112, 113, 114, 115, 116, 117, 118, 119, 120, 121, 122, 123, 124, 125, 126, 127, 128, 129, 130, 131, 132, 133, 134, 135, 136, 137, 138, 139, 140, 141, 142, 143, 144, 145, 146, 147, 148, 149, 150, 151, 152, 153, 154, 155, 156],
      "LargestImagePixelValue": [4095, 4095, 4095, 4095, 4095, 4095, 4095, 4095, 4095, 4095, 4095, 4095, 4095, 4095, 4095, 4095, 4095, 4095, 4095, 4095, 4095, 4095, 4095, 4060, 4040, 4095, 4095, 4095, 4038, 3993, 4095, 4095, 4095, 4095, 4095, 4095, 4095, 4079, 4095, 4095, 4095, 4069, 4035, 4095, 4095, 4095, 4095, 4095, 4095, 4095, 4095, 4095, 4064, 4043, 4056, 4095, 4095, 4090, 4037, 4095, 4095, 4095, 4083, 4068, 4095, 4071, 4082, 4095, 4095, 4095, 4095, 4095, 4095, 4095, 4095, 4074, 4095, 4053, 4071, 4095, 4095, 4095, 4095, 4077, 4095, 4095, 4095, 4043, 4032, 4087, 4095, 4095, 4095, 4095, 4031, 4095, 4095, 4095, 4095, 4095, 4095, 4095, 4095, 4095, 4066, 4095, 4095, 4095, 4095, 4095, 4095, 4095, 4095, 4095, 4095, 4095, 4095, 4095, 4095, 4095, 4095, 4095, 4095, 4095, 4095, 4095, 4095, 4095, 4095, 4083, 4095, 4095, 4095, 4095, 4095, 4095, 4095, 4095, 4095, 4095, 4095, 4095, 4095, 4049, 4048, 4064, 4095, 4093, 4095, 4055, 4059, 4067, 4070, 4095, 4095, 4095],
      "WindowCenter": [829.0, 827.0, 827.0, 827.0, 827.0, 828.0, 827.0, 827.0, 826.0, 826.0, 826.0, 825.0, 825.0, 826.0, 826.0, 826.0, 825.0, 824.0, 824.0, 825.0, 825.0, 826.0, 825.0, 822.0, 822.0, 826.0, 827.0, 825.0, 823.0, 823.0, 825.0, 825.0, 826.0, 826.0, 826.0, 826.0, 824.0, 823.0, 824.0, 826.0, 826.0, 826.0, 824.0, 823.0, 824.0, 826.0, 826.0, 826.0, 826.0, 826.0, 826.0, 826.0, 825.0, 825.0, 825.0, 824.0, 824.0, 824.0, 825.0, 826.0, 826.0, 825.0, 824.0, 824.0, 824.0, 824.0, 824.0, 824.0, 825.0, 826.0, 825.0, 825.0, 826.0, 826.0, 825.0, 825.0, 827.0, 827.0, 824.0, 823.0, 824.0, 826.0, 827.0, 826.0, 826.0, 826.0, 826.0, 825.0, 825.0, 825.0, 826.0, 826.0, 825.0, 825.0, 824.0, 825.0, 826.0, 825.0, 826.0, 826.0, 827.0, 828.0, 826.0, 825.0, 825.0, 826.0, 826.0, 827.0, 827.0, 826.0, 826.0, 826.0, 826.0, 826.0, 826.0, 825.0, 826.0, 827.0, 827.0, 827.0, 827.0, 826.0, 826.0, 826.0, 827.0, 826.0, 825.0, 824.0, 825.0, 825.0, 826.0, 826.0, 825.0, 826.0, 827.0, 827.0, 826.0, 825.0, 825.0, 824.0, 825.0, 825.0, 824.0, 823.0, 823.0, 825.0, 825.0, 825.0, 826.0, 825.0, 824.0, 824.0, 824.0, 824.0, 824.0, 825.0],
      "WindowWidth": [1854.0, 1848.0, 1848.0, 1847.0, 1847.0, 1848.0, 1848.0, 1846.0, 1844.0, 1844.0, 1842.0, 1841.0, 1841.0, 1842.0, 1843.0, 1843.0, 1840.0, 1839.0, 1838.0, 1840.0, 1842.0, 1842.0, 1839.0, 1829.0, 1831.0, 1842.0, 1845.0, 1840.0, 1832.0, 1832.0, 1840.0, 1841.0, 1843.0, 1843.0, 1843.0, 1843.0, 1836.0, 1834.0, 1836.0, 1842.0, 1844.0, 1842.0, 1838.0, 1835.0, 1838.0, 1842.0, 1845.0, 1843.0, 1843.0, 1844.0, 1845.0, 1844.0, 1841.0, 1839.0, 1839.0, 1838.0, 1839.0, 1838.0, 1841.0, 1844.0, 1843.0, 1840.0, 1838.0, 1838.0, 1838.0, 1838.0, 1838.0, 1837.0, 1840.0, 1842.0, 1842.0, 1841.0, 1842.0, 1842.0, 1839.0, 1839.0, 1845.0, 1845.0, 1837.0, 1833.0, 1836.0, 1843.0, 1845.0, 1843.0, 1844.0, 1843.0, 1844.0, 1839.0, 1839.0, 1841.0, 1843.0, 1843.0, 1840.0, 1839.0, 1836.0, 1841.0, 1844.0, 1841.0, 1842.0, 1845.0, 1848.0, 1848.0, 1844.0, 1840.0, 1838.0, 1842.0, 1844.0, 1846.0, 1846.0, 1844.0, 1843.0, 1843.0, 1843.0, 1844.0, 1842.0, 1841.0, 1842.0, 1846.0, 1847.0, 1847.0, 1846.0, 1845.0, 1842.0, 1844.0, 1845.0, 1844.0, 1840.0, 1838.0, 1839.0, 1839.0, 1843.0, 1843.0, 1841.0, 1842.0, 1845.0, 1845.0, 1843.0, 1839.0, 1838.0, 1838.0, 1841.0, 1841.0, 1836.0, 1832.0, 1834.0, 1840.0, 1840.0, 1841.0, 1842.0, 1841.0, 1837.0, 1836.0, 1837.0, 1837.0, 1837.0, 1838.0]
    },
    "slices": {}
  }
}