{"AcquisitionMatrixPE": 100, "AcquisitionNumber": 1, "AcquisitionTime": "15:04:0.505000", "BaseResolution": 100, "BodyPartExamined": "BRAIN", "CoilCombinationMethod": "Sum of Squares", "ConsistencyInfo": "N4_VE11C_LATEST_20160120", "ConversionSoftware": "dcm2niix", "ConversionSoftwareVersion": "v1.0.20211006", "DeviceSerialNumber": "166078", "DwellTime": 8.8e-06, "EchoNumber": 2, "EchoTime": 0.00738, "EchoTime1": 0.00492, "EchoTime2": 0.00738, "FlipAngle": 60, "ImageOrientationPatientDICOM": [0.99956, 0.00397487, 0.0293987, 6.8539e-11, 0.990983, -0.133986], "ImageOrientationText": "Tra>Cor(-7.7)>Sag(1.7)", "ImageType": ["ORIGINAL", "PRIMARY", "P", "ND", "PHASE"], "ImagingFrequency": 123.258, "InPlanePhaseEncodingDirectionDICOM": "ROW", "InstitutionAddress": "Street StreetNo,Bei Jing,District,CN,ZIP", "InstitutionName": "BeiJing Normal University", "InstitutionalDepartmentName": "Department", "MRAcquisitionType": "2D", "MagneticFieldStrength": 3, "Manufacturer": "Siemens", "ManufacturersModelName": "Prisma", "MatrixCoilMode": "SENSE", "Modality": "MR", "MultibandAccelerationFactor": 2, "PartialFourier": 1, "PatientPosition": "HFS", "PercentPhaseFOV": 100, "PercentSampling": 100, "PhaseEncodingDirection": "i", "PhaseEncodingSteps": 100, "PhaseResolution": 1, "PixelBandwidth": 570, "ProcedureStepDescription": "BNU_P2018_64CH^Zhen.ZongLei", "ProtocolName": "field_mapping_2x2x2", "PulseSequenceDetails": "%SiemensSeq%\\gre_field_mapping", "ReceiveCoilActiveElements": "HC1-7;NC1", "ReceiveCoilName": "HeadNeck_64", "ReconMatrixPE": 100, "RepetitionTime": 0.72, "SAR": 0.120847, "ScanningSequence": "GR", "SequenceName": "*fm2d2r", "SequenceVariant": "SP", "SeriesDescription": "field_mapping_2x2x2", "SeriesNumber": 10, "ShimSetting": [-5454, -11514, -1271, 412, -53, -231, -17, 15], "SliceThickness": 2, "SliceTiming": [0.35938, 0, 0.375, 0.01562, 0.39062, 0.03125, 0.39062, 0.03125, 0.40625, 0.04688, 0.42188, 0.04688, 0.42188, 0.0625, 0.4375, 0.07812, 0.4375, 0.07812, 0.45312, 0.09375, 0.46875, 0.10938, 0.46875, 0.10938, 0.48438, 0.125, 0.5, 0.14062, 0.5, 0.14062, 0.51562, 0.15625, 0.53125, 0.17188, 0.53125, 0.17188, 0.54688, 0.1875, 0.54688, 0.1875, 0.5625, 0.20312, 0.57812, 0.21875, 0.57812, 0.21875, 0.59375, 0.23438, 0.60938, 0.25, 0.60938, 0.25, 0.625, 0.26562, 0.64062, 0.28125, 0.64062, 0.28125, 0.65625, 0.29688, 0.67188, 0.29688, 0.67188, 0.3125, 0.6875, 0.32812, 0.6875, 0.32812, 0.70312, 0.34375, 0.71875, 0.35938], "SoftwareVersions": "syngo MR E11", "SpacingBetweenSlices": 2, "StationName": "AWP166078", "TxRefAmp": 219.297, "dcmmeta_affine": [[-1.999119758605957, 1.3707800172735318e-10, 0.05933237075805664, 97.84969329833984], [-0.00794973410665989, 1.9819663763046265, -0.26785439252853394, -77.21003723144531], [0.05879749730229378, 0.2679723799228668, 1.9810943603515625, -86.39937591552734], [0.0, 0.0, 0.0, 1.0]], "dcmmeta_reorient_transform": [[0.0, -1.0, 0.0, 99.0], [1.0, 0.0, 0.0, 0.0], [0.0, 0.0, -1.0, 71.0], [0.0, 0.0, 0.0, 1.0]], "dcmmeta_shape": [100, 100, 72], "dcmmeta_slice_dim": 2, "dcmmeta_version": 0.6, "global": {"const": {"AcquisitionMatrix": [0, 100, 100, 0], "AcquisitionNumber": 1, "AngioFlag": "N", "BitsAllocated": 16, "BitsStored": 12, "BodyPartExamined": "BRAIN", "Columns": 100, "EchoNumbers": 2, "EchoTime": 7.38, "EchoTrainLength": 0, "FlipAngle": 60.0, "HighBit": 11, "ImageOrientationPatient": [0.99955986013282, 0.00397486685291, 0.02939874903383, 6.8539e-11, 0.99098319925535, -0.1339861888167], "ImageType": ["ORIGINAL", "PRIMARY", "P", "ND"], "ImagedNucleus": "1H", "ImagingFrequency": 123.257745, "InPlanePhaseEncodingDirection": "ROW", "MRAcquisitionType": "2D", "MagneticFieldStrength": 3.0, "Manufacturer": "SIEMENS", "ManufacturerModelName": "Prisma", "Modality": "MR", "NumberOfAverages": 1.0, "NumberOfPhaseEncodingSteps": 100, "PercentPhaseFieldOfView": 100.0, "PercentSampling": 100.0, "PerformedProcedureStepStartTime": "142154.535000", "PhotometricInterpretation": "MONOCHROME2", "PixelBandwidth": 570.0, "PixelRepresentation": 0, "PixelSpacing": [2.0, 2.0], "ProtocolName": "field_mapping_2x2x2", "RepetitionTime": 720.0, "RescaleIntercept": -4096.0, "RescaleSlope": 2.0, "RescaleType": "US", "Rows": 100, "SAR": 0.12084730829207, "SamplesPerPixel": 1, "ScanningSequence": "GR", "SequenceName": "*fm2d2r", "SequenceVariant": "SP", "SeriesDescription": "field_mapping_2x2x2", "SeriesNumber": 10, "SeriesTime": "150625.413000", "SliceThickness": 2.0, "SoftwareVersions": "syngo MR E11", "SpacingBetweenSlices": 2.0, "SpecificCharacterSet": "ISO_IR 100", "StudyID": "1", "StudyTime": "142154.468000", "TransmitCoilName": "Body", "VariableFlipAngleFlag": "N", "WindowCenterWidthExplanation": "Algo1", "dBdt": 0.0}, "slices": {"AcquisitionTime": ["150400.505000", "150400.145000", "150400.515000", "150400.155000", "150400.525000", "150400.165000", "150400.535000", "150400.175000", "150400.545000", "150400.185000", "150400.555000", "150400.195000", "150400.565000", "150400.205000", "150400.575000", "150400.215000", "150400.585000", "150400.225000", "150400.595000", "150400.235000", "150400.605000", "150400.245000", "150400.615000", "150400.255000", "150400.625000", "150400.265000", "150400.635000", "150400.275000", "150400.645000", "150400.285000", "150400.655000", "150400.295000", "150400.665000", "150400.305000", "150400.675000", "150400.315000", "150400.685000", "150400.325000", "150400.695000", "150400.335000", "150400.705000", "150400.345000", "150400.715000", "150400.355000", "150400.725000", "150400.365000", "150400.735000", "150400.375000", "150400.745000", "150400.385000", "150400.755000", "150400.395000", "150400.765000", "150400.405000", "150400.775000", "150400.415000", "150400.785000", "150400.425000", "150400.795000", "150400.435000", "150400.805000", "150400.445000", "150400.815000", "150400.455000", "150400.825000", "150400.465000", "150400.835000", "150400.475000", "150400.845000", "150400.485000", "150400.855000", "150400.495000"], "ContentTime": ["150625.485000", "150625.415000", "150625.487000", "150625.417000", "150625.488000", "150625.419000", "150625.490000", "150625.421000", "150625.492000", "150625.423000", "150625.494000", "150625.425000", "150625.496000", "150625.427000", "150625.498000", "150625.429000", "150625.500000", "150625.431000", "150625.502000", "150625.433000", "150625.504000", "150625.434000", "150625.506000", "150625.436000", "150625.508000", "150625.439000", "150625.510000", "150625.440000", "150625.512000", "150625.442000", "150625.514000", "150625.444000", "150625.516000", "150625.446000", "150625.518000", "150625.448000", "150625.520000", "150625.450000", "150625.522000", "150625.452000", "150625.524000", "150625.453000", "150625.526000", "150625.455000", "150625.528000", "150625.457000", "150625.529000", "150625.459000", "150625.532000", "150625.461000", "150625.533000", "150625.463000", "150625.535000", "150625.465000", "150625.537000", "150625.467000", "150625.539000", "150625.469000", "150625.541000", "150625.471000", "150625.543000", "150625.472000", "150625.545000", "150625.475000", "150625.547000", "150625.477000", "150625.549000", "150625.479000", "150625.551000", "150625.481000", "150625.553000", "150625.483000"], "CsaImage.GSWDDataType": ["measured", "predicted", "measured", "predicted", "measured", "predicted", "measured", "predicted", "measured", "predicted", "measured", "predicted", "measured", "predicted", "measured", "predicted", "measured", "predicted", "measured", "predicted", "measured", "predicted", "measured", "predicted", "measured", "predicted", "measured", "predicted", "measured", "predicted", "measured", "predicted", "measured", "predicted", "measured", "predicted", "measured", "predicted", "measured", "predicted", "measured", "predicted", "measured", "predicted", "measured", "predicted", "measured", "predicted", "measured", "predicted", "measured", "predicted", "measured", "predicted", "measured", "predicted", "measured", "predicted", "measured", "predicted", "measured", "predicted", "measured", "predicted", "measured", "predicted", "measured", "predicted", "measured", "predicted", "measured", "predicted"], "CsaImage.ICE_Dims": ["X_2_1_1_1_1_1_37_1_1_1_1_148", "X_2_1_1_1_1_1_1_1_1_2_1_148", "X_2_1_1_1_1_1_38_1_1_3_1_148", "X_2_1_1_1_1_1_2_1_1_4_1_148", "X_2_1_1_1_1_1_39_1_1_5_1_148", "X_2_1_1_1_1_1_3_1_1_6_1_148", "X_2_1_1_1_1_1_40_1_1_7_1_148", "X_2_1_1_1_1_1_4_1_1_8_1_148", "X_2_1_1_1_1_1_41_1_1_9_1_148", "X_2_1_1_1_1_1_5_1_1_10_1_148", "X_2_1_1_1_1_1_42_1_1_11_1_148", "X_2_1_1_1_1_1_6_1_1_12_1_148", "X_2_1_1_1_1_1_43_1_1_13_1_148", "X_2_1_1_1_1_1_7_1_1_14_1_148", "X_2_1_1_1_1_1_44_1_1_15_1_148", "X_2_1_1_1_1_1_8_1_1_16_1_148", "X_2_1_1_1_1_1_45_1_1_17_1_148", "X_2_1_1_1_1_1_9_1_1_18_1_148", "X_2_1_1_1_1_1_46_1_1_19_1_148", "X_2_1_1_1_1_1_10_1_1_20_1_148", "X_2_1_1_1_1_1_47_1_1_21_1_148", "X_2_1_1_1_1_1_11_1_1_22_1_148", "X_2_1_1_1_1_1_48_1_1_23_1_148", "X_2_1_1_1_1_1_12_1_1_24_1_148", "X_2_1_1_1_1_1_49_1_1_25_1_148", "X_2_1_1_1_1_1_13_1_1_26_1_148", "X_2_1_1_1_1_1_50_1_1_27_1_148", "X_2_1_1_1_1_1_14_1_1_28_1_148", "X_2_1_1_1_1_1_51_1_1_29_1_148", "X_2_1_1_1_1_1_15_1_1_30_1_148", "X_2_1_1_1_1_1_52_1_1_31_1_148", "X_2_1_1_1_1_1_16_1_1_32_1_148", "X_2_1_1_1_1_1_53_1_1_33_1_148", "X_2_1_1_1_1_1_17_1_1_34_1_148", "X_2_1_1_1_1_1_54_1_1_35_1_148", "X_2_1_1_1_1_1_18_1_1_36_1_148", "X_2_1_1_1_1_1_55_1_1_37_1_148", "X_2_1_1_1_1_1_19_1_1_38_1_148", "X_2_1_1_1_1_1_56_1_1_39_1_148", "X_2_1_1_1_1_1_20_1_1_40_1_148", "X_2_1_1_1_1_1_57_1_1_41_1_148", "X_2_1_1_1_1_1_21_1_1_42_1_148", "X_2_1_1_1_1_1_58_1_1_43_1_148", "X_2_1_1_1_1_1_22_1_1_44_1_148", "X_2_1_1_1_1_1_59_1_1_45_1_148", "X_2_1_1_1_1_1_23_1_1_46_1_148", "X_2_1_1_1_1_1_60_1_1_47_1_148", "X_2_1_1_1_1_1_24_1_1_48_1_148", "X_2_1_1_1_1_1_61_1_1_49_1_148", "X_2_1_1_1_1_1_25_1_1_50_1_148", "X_2_1_1_1_1_1_62_1_1_51_1_148", "X_2_1_1_1_1_1_26_1_1_52_1_148", "X_2_1_1_1_1_1_63_1_1_53_1_148", "X_2_1_1_1_1_1_27_1_1_54_1_148", "X_2_1_1_1_1_1_64_1_1_55_1_148", "X_2_1_1_1_1_1_28_1_1_56_1_148", "X_2_1_1_1_1_1_65_1_1_57_1_148", "X_2_1_1_1_1_1_29_1_1_58_1_148", "X_2_1_1_1_1_1_66_1_1_59_1_148", "X_2_1_1_1_1_1_30_1_1_60_1_148", "X_2_1_1_1_1_1_67_1_1_61_1_148", "X_2_1_1_1_1_1_31_1_1_62_1_148", "X_2_1_1_1_1_1_68_1_1_63_1_148", "X_2_1_1_1_1_1_32_1_1_64_1_148", "X_2_1_1_1_1_1_69_1_1_65_1_148", "X_2_1_1_1_1_1_33_1_1_66_1_148", "X_2_1_1_1_1_1_70_1_1_67_1_148", "X_2_1_1_1_1_1_34_1_1_68_1_148", "X_2_1_1_1_1_1_71_1_1_69_1_148", "X_2_1_1_1_1_1_35_1_1_70_1_148", "X_2_1_1_1_1_1_72_1_1_71_1_148", "X_2_1_1_1_1_1_36_1_1_72_1_148"], "CsaImage.ProtocolSliceNumber": [0, 1, 2, 3, 4, 5, 6, 7, 8, 9, 10, 11, 12, 13, 14, 15, 16, 17, 18, 19, 20, 21, 22, 23, 24, 25, 26, 27, 28, 29, 30, 31, 32, 33, 34, 35, 36, 37, 38, 39, 40, 41, 42, 43, 44, 45, 46, 47, 48, 49, 50, 51, 52, 53, 54, 55, 56, 57, 58, 59, 60, 61, 62, 63, 64, 65, 66, 67, 68, 69, 70, 71], "CsaImage.RFSWDDataType": ["measured", "predicted", "measured", "predicted", "measured", "predicted", "measured", "predicted", "measured", "predicted", "measured", "predicted", "measured", "predicted", "measured", "predicted", "measured", "predicted", "measured", "predicted", "measured", "predicted", "measured", "predicted", "measured", "predicted", "measured", "predicted", "measured", "predicted", "measured", "predicted", "measured", "predicted", "measured", "predicted", "measured", "predicted", "measured", "predicted", "measured", "predicted", "measured", "predicted", "measured", "predicted", "measured", "predicted", "measured", "predicted", "measured", "predicted", "measured", "predicted", "measured", "predicted", "measured", "predicted", "measured", "predicted", "measured", "predicted", "measured", "predicted", "measured", "predicted", "measured", "predicted", "measured", "measured", "measured", "measured"], "CsaImage.SlicePosition_PCS": [[-97.84968281, -119.00463954, -59.87009818], [-97.90901518, -118.73678485, -57.88900382], [-97.96834767, -118.46893016, -55.90790946], [-98.02768016, -118.20107547, -53.9268151], [-98.08701265, -117.93322078, -51.94571693], [-98.14634514, -117.66536609, -49.96462638], [-98.20567763, -117.3975114, -47.98353202], [-98.26501012, -117.12965862, -46.00243766], [-98.32434261, -116.86180393, -44.0213433], [-98.3836751, -116.59394923, -42.04024894], [-98.44300759, -116.32609454, -40.05915458], [-98.50234008, -116.05823985, -38.07806022], [-98.56167257, -115.79038516, -36.09696586], [-98.62100506, -115.52253047, -34.1158715], [-98.68033755, -115.25467674, -32.13477714], [-98.73967004, -114.98682205, -30.15368278], [-98.79900253, -114.71896831, -28.17258842], [-98.85833502, -114.45111362, -26.19149787], [-98.91766751, -114.18325893, -24.21040351], [-98.97699994, -113.91540424, -22.22930915], [-99.03633243, -113.6475505, -20.24821479], [-99.09566492, -113.37969581, -18.26712043], [-99.15499741, -113.11184112, -16.28602607], [-99.2143299, -112.84398738, -14.30493171], [-99.27366239, -112.57613269, -12.32383735], [-99.33299488, -112.308278, -10.34274299], [-99.39232737, -112.04042331, -8.36164863], [-99.45165986, -111.77256957, -6.38055618], [-99.51099235, -111.50471488, -4.39946182], [-99.57032484, -111.23686019, -2.41836746], [-99.62965733, -110.9690055, -0.4372731], [-99.68898982, -110.70115176, 1.54382031], [-99.74832231, -110.43329707, 3.52491467], [-99.8076548, -110.16544238, 5.50600903], [-99.86698729, -109.89758865, 7.48710291], [-99.92631978, -109.62973396, 9.46819698], [-99.98565227, -109.36187927, 11.44929098], [-100.04498476, -109.09402457, 13.43038504], [-100.10431725, -108.82617084, 15.41147893], [-100.16364974, -108.55831615, 17.39257329], [-100.22298222, -108.29046146, 19.37366765], [-100.28231471, -108.02260772, 21.35476105], [-100.3416472, -107.75475303, 23.33585541], [-100.40097969, -107.48689834, 25.31694977], [-100.46031218, -107.21904413, 27.29804413], [-100.51964467, -106.95118943, 29.27913659], [-100.57897716, -106.68333522, 31.26023095], [-100.63830965, -106.41548053, 33.24132531], [-100.69764214, -106.14762632, 35.22241967], [-100.75697463, -105.8797721, 37.20351403], [-100.81630712, -105.61191741, 39.18460839], [-100.87563961, -105.3440632, 41.16570275], [-100.9349721, -105.07620851, 43.14679711], [-100.99430453, -104.80835429, 45.12789147], [-101.05363702, -104.5404996, 47.10898583], [-101.11296951, -104.27264539, 49.09007638], [-101.172302, -104.0047907, 51.07117074], [-101.23163449, -103.73693649, 53.0522651], [-101.29096698, -103.46908203, 55.03335946], [-101.35029947, -103.20122758, 57.01445382], [-101.40963196, -102.93337313, 58.99554818], [-101.46896445, -102.66551868, 60.97664254], [-101.52829694, -102.39766423, 62.9577369], [-101.58762943, -102.12981001, 64.93883126], [-101.64696192, -101.86195556, 66.91992562], [-101.70629441, -101.59410111, 68.90101998], [-101.7656269, -101.32624666, 70.88211434], [-101.82495939, -101.0583922, 72.86320489], [-101.88429188, -100.79053775, 74.84430306], [-101.94362437, -100.5226833, 76.82539742], [-102.00295686, -100.25482891, 78.80649178], [-102.06228924, -99.98697451, 80.78758614]], "CsaImage.TimeAfterStart": [1.0825, 0.7225, 1.0925, 0.7325, 1.1025, 0.7425, 1.1125, 0.7525, 1.1225, 0.7625, 1.1325, 0.7725, 1.1425, 0.7825, 1.1525, 0.7925, 1.1625, 0.8025, 1.1725, 0.8125, 1.1825, 0.8225, 1.1925, 0.8325, 1.2025, 0.8425, 1.2125, 0.8525, 1.2225, 0.8625, 1.2325, 0.8725, 1.2425, 0.8825, 1.2525, 0.8925, 1.2625, 0.9025, 1.2725, 0.9125, 1.2825, 0.9225, 1.2925, 0.9325, 1.3025, 0.9425, 1.3125, 0.9525, 1.3225, 0.9625, 1.3325, 0.9725, 1.3425, 0.9825, 1.3525, 0.9925, 1.3625, 1.0025, 1.3725, 1.0125, 1.3825, 1.0225, 1.3925, 1.0325, 1.4025, 1.0425, 1.4125, 1.0525, 1.4225, 1.0625, 1.4325, 1.0725], "ImagePositionPatient": [[-97.849682805109, -119.00463954234, -59.870098184795], [-97.909015175867, -118.73678485179, -57.889003824444], [-97.968347665834, -118.46893016124, -55.907909464092], [-98.027680155802, -118.20107547069, -53.926815103741], [-98.087012645769, -117.93322078014, -51.945716928692], [-98.146345135736, -117.66536608959, -49.964626383037], [-98.205677625704, -117.39751139903, -47.983532022686], [-98.265010115671, -117.12965861583, -46.002437662334], [-98.324342605639, -116.86180392528, -44.021343301983], [-98.383675095606, -116.59394923473, -42.040248941631], [-98.443007585573, -116.32609454418, -40.05915458128], [-98.502340075541, -116.05823985362, -38.078060220928], [-98.561672565508, -115.79038516307, -36.096965860576], [-98.621005055475, -115.52253047252, -34.115871500225], [-98.680337545443, -115.25467673564, -32.134777139873], [-98.73967003541, -114.98682204509, -30.153682779522], [-98.799002525377, -114.71896830821, -28.17258841917], [-98.858335015345, -114.45111361766, -26.191497873516], [-98.917667505312, -114.18325892711, -24.210403513164], [-98.976999935675, -113.91540423656, -22.229309152813], [-99.036332425642, -113.64755049968, -20.248214792461], [-99.095664915609, -113.37969580913, -18.26712043211], [-99.154997405577, -113.11184111858, -16.286026071758], [-99.214329895544, -112.8439873817, -14.304931711407], [-99.273662385511, -112.57613269115, -12.323837351055], [-99.332994875479, -112.3082780006, -10.342742990703], [-99.392327365446, -112.04042331005, -8.3616486303519], [-99.451659855413, -111.77256957317, -6.3805561773489], [-99.510992345381, -111.50471488262, -4.3994618169974], [-99.570324835348, -111.23686019206, -2.4183674566458], [-99.629657325315, -110.96900550151, -0.4372730962943], [-99.688989815283, -110.70115176463, 1.543820310383], [-99.74832230525, -110.43329707408, 3.5249146707345], [-99.807654795218, -110.16544238353, 5.5060090310861], [-99.866987285185, -109.89758864665, 7.4871029146005], [-99.926319775152, -109.6297339561, 9.4681969769288], [-99.98565226512, -109.36187926555, 11.449290979653], [-100.04498475509, -109.094024575, 13.430385041981], [-100.10431724505, -108.82617083812, 15.411478925495], [-100.16364973502, -108.55831614757, 17.392573285847], [-100.22298222499, -108.29046145702, 19.373667646198], [-100.28231471496, -108.02260772014, 21.354761052876], [-100.34164720492, -107.75475302959, 23.335855413227], [-100.40097969489, -107.48689833904, 25.316949773579], [-100.46031218486, -107.21904412532, 27.29804413393], [-100.51964467483, -106.95118943477, 29.279136586933], [-100.57897716479, -106.68333522106, 31.260230947285], [-100.63830965476, -106.4154805305, 33.241325307636], [-100.69764214473, -106.14762631679, 35.222419667988], [-100.7569746347, -105.87977210307, 37.20351402834], [-100.81630712466, -105.61191741252, 39.184608388691], [-100.87563961463, -105.34406319881, 41.165702749043], [-100.9349721046, -105.07620850826, 43.146797109394], [-100.99430453496, -104.80835429454, 45.127891469746], [-101.05363702493, -104.54049960399, 47.108985830097], [-101.11296951489, -104.27264539028, 49.090076375752], [-101.17230200486, -104.00479069972, 51.071170736103], [-101.23163449483, -103.73693648601, 53.052265096455], [-101.2909669848, -103.46908203388, 55.033359456806], [-101.35029947476, -103.20122758174, 57.014453817158], [-101.40963196473, -102.93337312961, 58.995548177509], [-101.4689644547, -102.66551867748, 60.976642537861], [-101.52829694467, -102.39766422534, 62.957736898213], [-101.58762943463, -102.12981001163, 64.938831258564], [-101.6469619246, -101.8619555595, 66.919925618916], [-101.70629441457, -101.59410110736, 68.901019979267], [-101.76562690454, -101.32624665523, 70.882114339619], [-101.8249593945, -101.0583922031, 72.863204885273], [-101.88429188447, -100.79053775096, 74.844303060322], [-101.94362437444, -100.52268329883, 76.825397420674], [-102.0029568644, -100.2548289063, 78.806491781025], [-102.06228923516, -99.986974513773, 80.787586141377]], "InstanceCreationTime": ["150625.485000", "150625.415000", "150625.487000", "150625.417000", "150625.488000", "150625.419000", "150625.490000", "150625.421000", "150625.492000", "150625.423000", "150625.494000", "150625.425000", "150625.496000", "150625.427000", "150625.498000", "150625.429000", "150625.500000", "150625.431000", "150625.502000", "150625.433000", "150625.504000", "150625.434000", "150625.506000", "150625.436000", "150625.508000", "150625.439000", "150625.510000", "150625.440000", "150625.512000", "150625.442000", "150625.514000", "150625.444000", "150625.516000", "150625.446000", "150625.518000", "150625.448000", "150625.520000", "150625.450000", "150625.522000", "150625.452000", "150625.524000", "150625.453000", "150625.526000", "150625.455000", "150625.528000", "150625.457000", "150625.529000", "150625.459000", "150625.532000", "150625.461000", "150625.533000", "150625.463000", "150625.535000", "150625.465000", "150625.537000", "150625.467000", "150625.539000", "150625.469000", "150625.541000", "150625.471000", "150625.543000", "150625.472000", "150625.545000", "150625.475000", "150625.547000", "150625.477000", "150625.549000", "150625.479000", "150625.551000", "150625.481000", "150625.553000", "150625.483000"], "InstanceNumber": [1, 2, 3, 4, 5, 6, 7, 8, 9, 10, 11, 12, 13, 14, 15, 16, 17, 18, 19, 20, 21, 22, 23, 24, 25, 26, 27, 28, 29, 30, 31, 32, 33, 34, 35, 36, 37, 38, 39, 40, 41, 42, 43, 44, 45, 46, 47, 48, 49, 50, 51, 52, 53, 54, 55, 56, 57, 58, 59, 60, 61, 62, 63, 64, 65, 66, 67, 68, 69, 70, 71, 72], "LargestImagePixelValue": [4095, 4094, 4093, 4095, 4094, 4094, 4095, 4095, 4094, 4092, 4091, 4095, 4094, 4095, 4095, 4095, 4094, 4094, 4094, 4092, 4094, 4094, 4094, 4095, 4094, 4094, 4084, 4094, 4094, 4092, 4091, 4093, 4095, 4095, 4093, 4083, 4088, 4094, 4088, 4091, 4092, 4094, 4089, 4094, 4094, 4095, 4092, 4092, 4094, 4094, 4095, 4094, 4094, 4093, 4094, 4091, 4094, 4093, 4093, 4094, 4095, 4092, 4093, 4095, 4095, 4095, 4093, 4089, 4094, 4094, 4095, 4094], "SliceLocation": [-72.339275379536, -70.339275047014, -68.339274710956, -66.339274374898, -64.339270260202, -62.339273702781, -60.339273366723, -58.339273286111, -56.339272950052, -54.339272613994, -52.339272277936, -50.339271941878, -48.339271605819, -46.339271269761, -44.339271061426, -42.339270725368, -40.339270517032, -38.339273959611, -36.339273623553, -34.339273289263, -32.339273080928, -30.33927274487, -28.339272408811, -26.339272200476, -24.339271864418, -22.33927152836, -20.339271192301, -18.339272873285, -16.339272537226, -14.339272201168, -12.33927186511, -10.339272601434, -8.3392722653757, -6.3392719293175, -4.3392721933118, -2.3392721524596, -0.3392721706486, 1.6607278702036, 3.6607276062093, 5.6607279422675, 7.6607282783257, 9.6607275420017, 11.66072787806, 13.660728214118, 15.660728486315, 17.660726933055, 19.660727205251, 21.66072754131, 23.660727813506, 25.660728085703, 27.660728421761, 29.660728693958, 31.660729030016, 33.660729300445, 35.660729636503, 37.660726130063, 39.660726466121, 41.660726738318, 43.660727042445, 45.660727346573, 47.6607276507, 49.660727954828, 51.660728258955, 53.660728531152, 55.660728835279, 57.660729139407, 59.660729443534, 61.660725969025, 63.660730051789, 65.660730355917, 67.660730652062, 69.66073094467], "SmallestImagePixelValue": [0, 0, 0, 0, 0, 0, 1, 0, 0, 0, 0, 0, 0, 0, 0, 1, 0, 0, 1, 0, 0, 0, 0, 1, 6, 0, 1, 0, 0, 0, 0, 0, 1, 0, 3, 2, 1, 4, 0, 0, 2, 3, 5, 5, 0, 0, 11, 1, 1, 0, 0, 0, 1, 0, 3, 3, 1, 0, 5, 3, 2, 0, 0, 1, 0, 1, 0, 0, 0, 0, 0, 1], "WindowCenter": [-216.0, -218.0, -234.0, -210.0, -222.0, -216.0, -236.0, -224.0, -204.0, -170.0, -124.0, -170.0, -164.0, -150.0, -128.0, -214.0, -204.0, -208.0, -192.0, -202.0, -190.0, -168.0, -164.0, -192.0, -254.0, -294.0, -398.0, -392.0, -372.0, -224.0, -184.0, -160.0, -138.0, -140.0, -136.0, -82.0, -90.0, -66.0, -68.0, -76.0, -38.0, -32.0, -20.0, -4.0, 18.0, -40.0, -82.0, -126.0, -270.0, -166.0, -270.0, -258.0, -140.0, -216.0, -206.0, -42.0, -54.0, -48.0, -34.0, -62.0, -30.0, -74.0, -56.0, -110.0, -122.0, -174.0, -182.0, -188.0, -242.0, -226.0, -248.0, -280.0], "WindowWidth": [6234.0, 6222.0, 6200.0, 6226.0, 6232.0, 6194.0, 6206.0, 6174.0, 6200.0, 6206.0, 6226.0, 6204.0, 6238.0, 6252.0, 6302.0, 6224.0, 6182.0, 6056.0, 5986.0, 5944.0, 5870.0, 5812.0, 5850.0, 5738.0, 5482.0, 5208.0, 4722.0, 4718.0, 4714.0, 5278.0, 5270.0, 5388.0, 5378.0, 5338.0, 5204.0, 5406.0, 5256.0, 5346.0, 5276.0, 5220.0, 5386.0, 5248.0, 5238.0, 5340.0, 5372.0, 5144.0, 5126.0, 5160.0, 4646.0, 5198.0, 4646.0, 4646.0, 4990.0, 4640.0, 4650.0, 5364.0, 5274.0, 5300.0, 5460.0, 5302.0, 5634.0, 5618.0, 5748.0, 5714.0, 5852.0, 5938.0, 6082.0, 6166.0, 6234.0, 6248.0, 6228.0, 6228.0]}}, "IntendedFor": ["ses-action01/func/sub-02_ses-action01_task-action_run-08_bold.nii.gz", "ses-action01/func/sub-02_ses-action01_task-action_run-07_bold.nii.gz", "ses-action01/func/sub-02_ses-action01_task-action_run-05_bold.nii.gz", "ses-action01/func/sub-02_ses-action01_task-action_run-03_bold.nii.gz", "ses-action01/func/sub-02_ses-action01_task-action_run-01_bold.nii.gz", "ses-action01/func/sub-02_ses-action01_task-action_run-11_bold.nii.gz", "ses-action01/func/sub-02_ses-action01_task-action_run-02_bold.nii.gz", "ses-action01/func/sub-02_ses-action01_task-action_run-12_bold.nii.gz", "ses-action01/func/sub-02_ses-action01_task-action_run-10_bold.nii.gz", "ses-action01/func/sub-02_ses-action01_task-action_run-06_bold.nii.gz", "ses-action01/func/sub-02_ses-action01_task-action_run-09_bold.nii.gz", "ses-action01/func/sub-02_ses-action01_task-action_run-04_bold.nii.gz"]}