{"AcquisitionMatrixPE": 100, "AcquisitionNumber": 1, "AcquisitionTime": "16:19:58.332500", "BaseResolution": 100, "BodyPartExamined": "BRAIN", "CoilCombinationMethod": "Sum of Squares", "ConsistencyInfo": "N4_VE11C_LATEST_20160120", "ConversionSoftware": "dcm2niix", "ConversionSoftwareVersion": "v1.0.20211006", "DeviceSerialNumber": "166078", "DwellTime": 8.8e-06, "EchoNumber": 2, "EchoTime": 0.00738, "EchoTime1": 0.00492, "EchoTime2": 0.00738, "FlipAngle": 60, "ImageOrientationPatientDICOM": [1, 4.896e-12, -6.8e-14, -4.897e-12, 0.999903, -0.0139622], "ImageOrientationText": "Tra>Cor(-0.8)", "ImageType": ["ORIGINAL", "PRIMARY", "P", "ND", "PHASE"], "ImagingFrequency": 123.258, "InPlanePhaseEncodingDirectionDICOM": "ROW", "InstitutionAddress": "Street StreetNo,Bei Jing,District,CN,ZIP", "InstitutionName": "BeiJing Normal University", "InstitutionalDepartmentName": "Department", "MRAcquisitionType": "2D", "MagneticFieldStrength": 3, "Manufacturer": "Siemens", "ManufacturersModelName": "Prisma", "MatrixCoilMode": "SENSE", "Modality": "MR", "MultibandAccelerationFactor": 2, "PartialFourier": 1, "PatientPosition": "HFS", "PercentPhaseFOV": 100, "PercentSampling": 100, "PhaseEncodingDirection": "i", "PhaseEncodingSteps": 100, "PhaseResolution": 1, "PixelBandwidth": 570, "ProcedureStepDescription": "BNU_P2018_64CH^Zhen.ZongLei", "ProtocolName": "field_mapping_2x2x2", "PulseSequenceDetails": "%SiemensSeq%\\gre_field_mapping", "ReceiveCoilActiveElements": "HC1-7;NC1", "ReceiveCoilName": "HeadNeck_64", "ReconMatrixPE": 100, "RepetitionTime": 0.72, "SAR": 0.131915, "ScanningSequence": "GR", "SequenceName": "*fm2d2r", "SequenceVariant": "SP", "SeriesDescription": "field_mapping_2x2x2", "SeriesNumber": 10, "ShimSetting": [-5469, -11543, -1272, 291, -62, -194, -9, 63], "SliceThickness": 2, "SliceTiming": [0.35938, 0, 0.375, 0.01562, 0.39062, 0.03125, 0.39062, 0.03125, 0.40625, 0.04688, 0.40625, 0.04688, 0.42188, 0.0625, 0.4375, 0.07812, 0.4375, 0.07812, 0.45312, 0.09375, 0.46875, 0.10938, 0.46875, 0.10938, 0.48438, 0.125, 0.5, 0.14062, 0.5, 0.14062, 0.51562, 0.15625, 0.53125, 0.15625, 0.53125, 0.17188, 0.54688, 0.1875, 0.54688, 0.1875, 0.5625, 0.20312, 0.57812, 0.21875, 0.57812, 0.21875, 0.59375, 0.23438, 0.60938, 0.25, 0.60938, 0.25, 0.625, 0.26562, 0.64062, 0.28125, 0.64062, 0.28125, 0.65625, 0.29688, 0.65625, 0.29688, 0.67188, 0.3125, 0.6875, 0.32812, 0.6875, 0.32812, 0.70312, 0.34375, 0.71875, 0.35938], "SoftwareVersions": "syngo MR E11", "SpacingBetweenSlices": 2, "StationName": "AWP166078", "TxRefAmp": 213.971, "dcmmeta_affine": [[-2.0, -9.79399981254625e-12, 0.0, 101.3559341430664], [-9.791999676378449e-12, 1.9998050928115845, -0.027924537658691406, -89.20735168457031], [-1.36000003034438e-13, 0.02792436070740223, 1.9998092651367188, -51.13164520263672], [0.0, 0.0, 0.0, 1.0]], "dcmmeta_reorient_transform": [[0.0, -1.0, 0.0, 99.0], [1.0, 0.0, 0.0, 0.0], [0.0, 0.0, -1.0, 71.0], [0.0, 0.0, 0.0, 1.0]], "dcmmeta_shape": [100, 100, 72], "dcmmeta_slice_dim": 2, "dcmmeta_version": 0.6, "global": {"const": {"AcquisitionMatrix": [0, 100, 100, 0], "AcquisitionNumber": 1, "AngioFlag": "N", "BitsAllocated": 16, "BitsStored": 12, "BodyPartExamined": "BRAIN", "Columns": 100, "EchoNumbers": 2, "EchoTime": 7.38, "EchoTrainLength": 0, "FlipAngle": 60.0, "HighBit": 11, "ImageOrientationPatient": [1.0, 4.896e-12, -6.8e-14, -4.897e-12, 0.99990252401187, -0.0139621801554], "ImageType": ["ORIGINAL", "PRIMARY", "P", "ND"], "ImagedNucleus": "1H", "ImagingFrequency": 123.257723, "InPlanePhaseEncodingDirection": "ROW", "MRAcquisitionType": "2D", "MagneticFieldStrength": 3.0, "Manufacturer": "SIEMENS", "ManufacturerModelName": "Prisma", "Modality": "MR", "NumberOfAverages": 1.0, "NumberOfPhaseEncodingSteps": 100, "PercentPhaseFieldOfView": 100.0, "PercentSampling": 100.0, "PerformedProcedureStepStartTime": "153942.174000", "PhotometricInterpretation": "MONOCHROME2", "PixelBandwidth": 570.0, "PixelRepresentation": 0, "PixelSpacing": [2.0, 2.0], "ProtocolName": "field_mapping_2x2x2", "RepetitionTime": 720.0, "RescaleIntercept": -4096.0, "RescaleSlope": 2.0, "RescaleType": "US", "Rows": 100, "SAR": 0.13191470587256, "SamplesPerPixel": 1, "ScanningSequence": "GR", "SequenceName": "*fm2d2r", "SequenceVariant": "SP", "SeriesDescription": "field_mapping_2x2x2", "SeriesNumber": 10, "SeriesTime": "162223.240000", "SliceThickness": 2.0, "SoftwareVersions": "syngo MR E11", "SpacingBetweenSlices": 2.0, "SpecificCharacterSet": "ISO_IR 100", "StudyID": "1", "StudyTime": "153942.074000", "TransmitCoilName": "Body", "VariableFlipAngleFlag": "N", "WindowCenterWidthExplanation": "Algo1", "dBdt": 0.0}, "slices": {"AcquisitionTime": ["161958.332500", "161957.972500", "161958.342500", "161957.982500", "161958.352500", "161957.992500", "161958.362500", "161958.002500", "161958.372500", "161958.012500", "161958.382500", "161958.022500", "161958.392500", "161958.032500", "161958.402500", "161958.042500", "161958.412500", "161958.052500", "161958.422500", "161958.062500", "161958.432500", "161958.072500", "161958.442500", "161958.082500", "161958.452500", "161958.092500", "161958.462500", "161958.102500", "161958.472500", "161958.112500", "161958.482500", "161958.122500", "161958.492500", "161958.132500", "161958.502500", "161958.142500", "161958.512500", "161958.152500", "161958.522500", "161958.162500", "161958.532500", "161958.172500", "161958.542500", "161958.182500", "161958.552500", "161958.192500", "161958.562500", "161958.202500", "161958.572500", "161958.212500", "161958.582500", "161958.222500", "161958.592500", "161958.232500", "161958.602500", "161958.242500", "161958.612500", "161958.252500", "161958.622500", "161958.262500", "161958.632500", "161958.272500", "161958.642500", "161958.282500", "161958.652500", "161958.292500", "161958.662500", "161958.302500", "161958.672500", "161958.312500", "161958.682500", "161958.322500"], "ContentTime": ["162223.334000", "162223.242000", "162223.336000", "162223.245000", "162223.338000", "162223.247000", "162223.340000", "162223.251000", "162223.342000", "162223.253000", "162223.344000", "162223.255000", "162223.346000", "162223.259000", "162223.348000", "162223.261000", "162223.350000", "162223.264000", "162223.352000", "162223.267000", "162223.354000", "162223.270000", "162223.356000", "162223.273000", "162223.358000", "162223.275000", "162223.360000", "162223.277000", "162223.362000", "162223.279000", "162223.364000", "162223.282000", "162223.365000", "162223.285000", "162223.367000", "162223.291000", "162223.369000", "162223.293000", "162223.371000", "162223.296000", "162223.373000", "162223.298000", "162223.375000", "162223.300000", "162223.377000", "162223.302000", "162223.380000", "162223.305000", "162223.382000", "162223.307000", "162223.384000", "162223.309000", "162223.386000", "162223.311000", "162223.388000", "162223.313000", "162223.390000", "162223.315000", "162223.392000", "162223.317000", "162223.394000", "162223.319000", "162223.396000", "162223.321000", "162223.398000", "162223.323000", "162223.400000", "162223.326000", "162223.402000", "162223.328000", "162223.404000", "162223.332000"], "CsaImage.GSWDDataType": ["measured", "predicted", "measured", "predicted", "measured", "predicted", "measured", "predicted", "measured", "predicted", "measured", "predicted", "measured", "predicted", "measured", "predicted", "measured", "predicted", "measured", "predicted", "measured", "predicted", "measured", "predicted", "measured", "predicted", "measured", "predicted", "measured", "predicted", "measured", "predicted", "measured", "predicted", "measured", "predicted", "measured", "predicted", "measured", "predicted", "measured", "predicted", "measured", "predicted", "measured", "predicted", "measured", "predicted", "measured", "predicted", "measured", "predicted", "measured", "predicted", "measured", "predicted", "measured", "predicted", "measured", "predicted", "measured", "predicted", "measured", "predicted", "measured", "measured", "measured", "measured", "measured", "measured", "measured", "measured"], "CsaImage.ICE_Dims": ["X_2_1_1_1_1_1_37_1_1_1_1_233", "X_2_1_1_1_1_1_1_1_1_2_1_233", "X_2_1_1_1_1_1_38_1_1_3_1_233", "X_2_1_1_1_1_1_2_1_1_4_1_233", "X_2_1_1_1_1_1_39_1_1_5_1_233", "X_2_1_1_1_1_1_3_1_1_6_1_233", "X_2_1_1_1_1_1_40_1_1_7_1_233", "X_2_1_1_1_1_1_4_1_1_8_1_233", "X_2_1_1_1_1_1_41_1_1_9_1_233", "X_2_1_1_1_1_1_5_1_1_10_1_233", "X_2_1_1_1_1_1_42_1_1_11_1_233", "X_2_1_1_1_1_1_6_1_1_12_1_233", "X_2_1_1_1_1_1_43_1_1_13_1_233", "X_2_1_1_1_1_1_7_1_1_14_1_233", "X_2_1_1_1_1_1_44_1_1_15_1_233", "X_2_1_1_1_1_1_8_1_1_16_1_233", "X_2_1_1_1_1_1_45_1_1_17_1_233", "X_2_1_1_1_1_1_9_1_1_18_1_233", "X_2_1_1_1_1_1_46_1_1_19_1_233", "X_2_1_1_1_1_1_10_1_1_20_1_233", "X_2_1_1_1_1_1_47_1_1_21_1_233", "X_2_1_1_1_1_1_11_1_1_22_1_233", "X_2_1_1_1_1_1_48_1_1_23_1_233", "X_2_1_1_1_1_1_12_1_1_24_1_233", "X_2_1_1_1_1_1_49_1_1_25_1_233", "X_2_1_1_1_1_1_13_1_1_26_1_233", "X_2_1_1_1_1_1_50_1_1_27_1_233", "X_2_1_1_1_1_1_14_1_1_28_1_233", "X_2_1_1_1_1_1_51_1_1_29_1_233", "X_2_1_1_1_1_1_15_1_1_30_1_233", "X_2_1_1_1_1_1_52_1_1_31_1_233", "X_2_1_1_1_1_1_16_1_1_32_1_233", "X_2_1_1_1_1_1_53_1_1_33_1_233", "X_2_1_1_1_1_1_17_1_1_34_1_233", "X_2_1_1_1_1_1_54_1_1_35_1_233", "X_2_1_1_1_1_1_18_1_1_36_1_233", "X_2_1_1_1_1_1_55_1_1_37_1_233", "X_2_1_1_1_1_1_19_1_1_38_1_233", "X_2_1_1_1_1_1_56_1_1_39_1_233", "X_2_1_1_1_1_1_20_1_1_40_1_233", "X_2_1_1_1_1_1_57_1_1_41_1_233", "X_2_1_1_1_1_1_21_1_1_42_1_233", "X_2_1_1_1_1_1_58_1_1_43_1_233", "X_2_1_1_1_1_1_22_1_1_44_1_233", "X_2_1_1_1_1_1_59_1_1_45_1_233", "X_2_1_1_1_1_1_23_1_1_46_1_233", "X_2_1_1_1_1_1_60_1_1_47_1_233", "X_2_1_1_1_1_1_24_1_1_48_1_233", "X_2_1_1_1_1_1_61_1_1_49_1_233", "X_2_1_1_1_1_1_25_1_1_50_1_233", "X_2_1_1_1_1_1_62_1_1_51_1_233", "X_2_1_1_1_1_1_26_1_1_52_1_233", "X_2_1_1_1_1_1_63_1_1_53_1_233", "X_2_1_1_1_1_1_27_1_1_54_1_233", "X_2_1_1_1_1_1_64_1_1_55_1_233", "X_2_1_1_1_1_1_28_1_1_56_1_233", "X_2_1_1_1_1_1_65_1_1_57_1_233", "X_2_1_1_1_1_1_29_1_1_58_1_233", "X_2_1_1_1_1_1_66_1_1_59_1_233", "X_2_1_1_1_1_1_30_1_1_60_1_233", "X_2_1_1_1_1_1_67_1_1_61_1_233", "X_2_1_1_1_1_1_31_1_1_62_1_233", "X_2_1_1_1_1_1_68_1_1_63_1_233", "X_2_1_1_1_1_1_32_1_1_64_1_233", "X_2_1_1_1_1_1_69_1_1_65_1_233", "X_2_1_1_1_1_1_33_1_1_66_1_233", "X_2_1_1_1_1_1_70_1_1_67_1_233", "X_2_1_1_1_1_1_34_1_1_68_1_233", "X_2_1_1_1_1_1_71_1_1_69_1_233", "X_2_1_1_1_1_1_35_1_1_70_1_233", "X_2_1_1_1_1_1_72_1_1_71_1_233", "X_2_1_1_1_1_1_36_1_1_72_1_233"], "CsaImage.ProtocolSliceNumber": [0, 1, 2, 3, 4, 5, 6, 7, 8, 9, 10, 11, 12, 13, 14, 15, 16, 17, 18, 19, 20, 21, 22, 23, 24, 25, 26, 27, 28, 29, 30, 31, 32, 33, 34, 35, 36, 37, 38, 39, 40, 41, 42, 43, 44, 45, 46, 47, 48, 49, 50, 51, 52, 53, 54, 55, 56, 57, 58, 59, 60, 61, 62, 63, 64, 65, 66, 67, 68, 69, 70, 71], "CsaImage.RFSWDDataType": ["measured", "predicted", "measured", "predicted", "measured", "predicted", "measured", "predicted", "measured", "predicted", "measured", "predicted", "measured", "predicted", "measured", "predicted", "measured", "predicted", "measured", "predicted", "measured", "predicted", "measured", "predicted", "measured", "predicted", "measured", "predicted", "measured", "predicted", "measured", "predicted", "measured", "predicted", "measured", "predicted", "measured", "predicted", "measured", "predicted", "measured", "predicted", "measured", "predicted", "measured", "predicted", "measured", "predicted", "measured", "predicted", "measured", "predicted", "measured", "predicted", "measured", "predicted", "measured", "predicted", "measured", "predicted", "measured", "measured", "measured", "measured", "measured", "measured", "measured", "measured", "measured", "measured", "measured", "measured"], "CsaImage.SlicePosition_PCS": [[-101.35593224, -108.77333441, -48.36683588], [-101.35593224, -108.74541083, -46.36703043], [-101.35593224, -108.71748629, -44.36722498], [-101.35593224, -108.68956175, -42.36742334], [-101.35593224, -108.66163721, -40.36761789], [-101.35593224, -108.63371268, -38.36781244], [-101.35593224, -108.60578814, -36.36800699], [-101.35593224, -108.57786455, -34.36820154], [-101.35593224, -108.54994002, -32.36839609], [-101.35593224, -108.52201548, -30.36859064], [-101.35593224, -108.49409094, -28.3687871], [-101.35593224, -108.4661664, -26.36898165], [-101.35593224, -108.43824282, -24.3691762], [-101.35593224, -108.41031828, -22.36937074], [-101.35593224, -108.38239374, -20.3695672], [-101.35593224, -108.35446921, -18.36976175], [-101.35593224, -108.32654467, -16.3699563], [-101.35593224, -108.29862108, -14.37015085], [-101.35593224, -108.27069655, -12.37034635], [-101.35593224, -108.24277201, -10.3705409], [-101.35593224, -108.21484747, -8.37073641], [-101.35593224, -108.18692293, -6.37093096], [-101.35593224, -108.1589984, -4.37112598], [-101.35593224, -108.13107481, -2.37132077], [-101.35593224, -108.10315027, -0.3715158], [-101.35593224, -108.07522574, 1.62828922], [-101.35593224, -108.0473012, 3.62809439], [-101.35593224, -108.01937666, 5.62789936], [-101.35593224, -107.99145308, 7.62770434], [-101.35593224, -107.96352806, 9.62750979], [-101.35593224, -107.935604, 11.62731428], [-101.35593224, -107.90767946, 13.62711973], [-101.35593224, -107.8797554, 15.62692423], [-101.35593224, -107.85183087, 17.62672873], [-101.35593224, -107.82390633, 19.62653418], [-101.35593224, -107.79598227, 21.62633963], [-101.35593224, -107.76805773, 23.62614508], [-101.35593224, -107.74013319, 25.62595053], [-101.35593224, -107.71220913, 27.62575407], [-101.35593224, -107.68428459, 29.62555952], [-101.35593224, -107.65636053, 31.62536497], [-101.35593224, -107.628436, 33.62516852], [-101.35593224, -107.60051146, 35.62497397], [-101.35593224, -107.5725874, 37.62477942], [-101.35593224, -107.54466286, 39.62458487], [-101.35593224, -107.51673832, 41.62439032], [-101.35593224, -107.48881426, 43.62419577], [-101.35593224, -107.46088972, 45.62400122], [-101.35593224, -107.43296566, 47.62380667], [-101.35593224, -107.40504112, 49.62361212], [-101.35593224, -107.37711659, 51.62341376], [-101.35593224, -107.34919253, 53.62321921], [-101.35593224, -107.32126799, 55.62302466], [-101.35593224, -107.29334345, 57.62283011], [-101.35593224, -107.26541939, 59.62263556], [-101.35593224, -107.23749485, 61.62244101], [-101.35593224, -107.20957079, 63.62224646], [-101.35593224, -107.18164625, 65.62204809], [-101.35593224, -107.15372172, 67.62185736], [-101.35593224, -107.12579766, 69.62165899], [-101.35593224, -107.09787312, 71.62146826], [-101.35593224, -107.06994858, 73.6212699], [-101.35593224, -107.04202452, 75.62107916], [-101.35593224, -107.01409998, 77.6208808], [-101.35593224, -106.98617544, 79.62068243], [-101.35593224, -106.95825138, 81.6204917], [-101.35593224, -106.93032685, 83.62029333], [-101.35593224, -106.90240278, 85.6201026], [-101.35593224, -106.87447825, 87.61990423], [-101.35593224, -106.84655371, 89.6197135], [-101.35593224, -106.81862965, 91.61951513], [-101.35593224, -106.79070511, 93.6193244]], "CsaImage.TimeAfterStart": [1.0825, 0.7225, 1.0925, 0.7325, 1.1025, 0.7425, 1.1125, 0.7525, 1.1225, 0.7625, 1.1325, 0.7725, 1.1425, 0.7825, 1.1525, 0.7925, 1.1625, 0.8025, 1.1725, 0.8125, 1.1825, 0.8225, 1.1925, 0.8325, 1.2025, 0.8425, 1.2125, 0.8525, 1.2225, 0.8625, 1.2325, 0.8725, 1.2425, 0.8825, 1.2525, 0.8925, 1.2625, 0.9025, 1.2725, 0.9125, 1.2825, 0.9225, 1.2925, 0.9325, 1.3025, 0.9425, 1.3125, 0.9525, 1.3225, 0.9625, 1.3325, 0.9725, 1.3425, 0.9825, 1.3525, 0.9925, 1.3625, 1.0025, 1.3725, 1.0125, 1.3825, 1.0225, 1.3925, 1.0325, 1.4025, 1.0425, 1.4125, 1.0525, 1.4225, 1.0625, 1.4325, 1.0725], "ImagePositionPatient": [[-101.35593223523, -108.77333441004, -48.366835878494], [-101.35593223523, -108.74541082605, -46.367030428055], [-101.35593223523, -108.7174862884, -44.367224977615], [-101.35593223523, -108.68956175074, -42.367423341873], [-101.35593223523, -108.66163721308, -40.367617891433], [-101.35593223523, -108.63371267542, -38.367812440994], [-101.35593223523, -108.60578813776, -36.368006990555], [-101.35593223523, -108.57786455378, -34.368201540115], [-101.35593223523, -108.54994001612, -32.368396089676], [-101.35593223523, -108.52201547846, -30.368590639236], [-101.35593223523, -108.4940909408, -28.368787096145], [-101.35593223523, -108.46616640314, -26.368981645706], [-101.35593223523, -108.43824281916, -24.369176195266], [-101.35593223523, -108.4103182815, -22.369370744827], [-101.35593223523, -108.38239374384, -20.369567201736], [-101.35593223523, -108.35446920618, -18.369761751297], [-101.35593223523, -108.32654466852, -16.369956300857], [-101.35593223523, -108.29862108454, -14.370150850418], [-101.35593223523, -108.27069654688, -12.370346353653], [-101.35593223523, -108.24277200922, -10.370540903213], [-101.35593223523, -108.21484747156, -8.3707364064481], [-101.35593223523, -108.1869229339, -6.3709309560086], [-101.35593223523, -108.15899839624, -4.3711259824063], [-101.35593223523, -108.13107481226, -2.3713207703854], [-101.35593223523, -108.1031502746, -0.3715157967832], [-101.35593223523, -108.07522573694, 1.6282892215226], [-101.35593223523, -108.04730119928, 3.62809438884], [-101.35593223523, -108.01937666163, 5.6278993624423], [-101.35593223523, -107.99145307764, 7.6277043360446], [-101.35593223523, -107.96352806315, 9.6275097864841], [-101.35593223523, -107.93560400232, 11.627314283249], [-101.35593223523, -107.90767946466, 13.627119733689], [-101.35593223523, -107.87975540384, 15.626924230454], [-101.35593223523, -107.85183086618, 17.626728727219], [-101.35593223523, -107.82390632853, 19.626534177658], [-101.35593223523, -107.7959822677, 21.626339628098], [-101.35593223523, -107.76805773005, 23.626145078537], [-101.35593223523, -107.74013319239, 25.625950528977], [-101.35593223523, -107.71220913157, 27.625754072068], [-101.35593223523, -107.68428459391, 29.625559522507], [-101.35593223523, -107.65636053309, 31.625364972946], [-101.35593223523, -107.62843599543, 33.625168516037], [-101.35593223523, -107.60051145777, 35.624973966477], [-101.35593223523, -107.57258739695, 37.624779416916], [-101.35593223523, -107.54466285929, 39.624584867356], [-101.35593223523, -107.51673832163, 41.624390317795], [-101.35593223523, -107.48881426081, 43.624195768235], [-101.35593223523, -107.46088972315, 45.624001218674], [-101.35593223523, -107.43296566233, 47.623806669113], [-101.35593223523, -107.40504112467, 49.623612119553], [-101.35593223523, -107.37711658701, 51.623413755295], [-101.35593223523, -107.34919252619, 53.623219205735], [-101.35593223523, -107.32126798853, 55.623024656174], [-101.35593223523, -107.29334345087, 57.622830106613], [-101.35593223523, -107.26541939005, 59.622635557053], [-101.35593223523, -107.23749485239, 61.622441007492], [-101.35593223523, -107.20957079157, 63.622246457932], [-101.35593223523, -107.18164625391, 65.622048093674], [-101.35593223523, -107.15372171625, 67.621857358811], [-101.35593223523, -107.12579765543, 69.621658994553], [-101.35593223523, -107.09787311777, 71.62146825969], [-101.35593223523, -107.06994858011, 73.621269895432], [-101.35593223523, -107.04202451929, 75.621079160569], [-101.35593223523, -107.01409998163, 77.620880796311], [-101.35593223523, -106.98617544397, 79.620682432053], [-101.35593223523, -106.95825138315, 81.62049169719], [-101.35593223523, -106.93032684549, 83.620293332932], [-101.35593223523, -106.90240278467, 85.620102598069], [-101.35593223523, -106.87447824701, 87.619904233811], [-101.35593223523, -106.84655370935, 89.619713498947], [-101.35593223523, -106.81862964853, 91.61951513469], [-101.35593223523, -106.79070511087, 93.619324399826]], "InstanceCreationTime": ["162223.334000", "162223.242000", "162223.336000", "162223.245000", "162223.338000", "162223.247000", "162223.340000", "162223.251000", "162223.342000", "162223.253000", "162223.344000", "162223.255000", "162223.346000", "162223.259000", "162223.348000", "162223.261000", "162223.350000", "162223.264000", "162223.352000", "162223.267000", "162223.354000", "162223.270000", "162223.356000", "162223.273000", "162223.358000", "162223.275000", "162223.360000", "162223.277000", "162223.362000", "162223.279000", "162223.364000", "162223.282000", "162223.365000", "162223.285000", "162223.367000", "162223.291000", "162223.369000", "162223.293000", "162223.371000", "162223.296000", "162223.373000", "162223.298000", "162223.375000", "162223.300000", "162223.377000", "162223.302000", "162223.380000", "162223.305000", "162223.382000", "162223.307000", "162223.384000", "162223.309000", "162223.386000", "162223.311000", "162223.388000", "162223.313000", "162223.390000", "162223.315000", "162223.392000", "162223.317000", "162223.394000", "162223.319000", "162223.396000", "162223.321000", "162223.398000", "162223.323000", "162223.400000", "162223.326000", "162223.402000", "162223.328000", "162223.404000", "162223.332000"], "InstanceNumber": [1, 2, 3, 4, 5, 6, 7, 8, 9, 10, 11, 12, 13, 14, 15, 16, 17, 18, 19, 20, 21, 22, 23, 24, 25, 26, 27, 28, 29, 30, 31, 32, 33, 34, 35, 36, 37, 38, 39, 40, 41, 42, 43, 44, 45, 46, 47, 48, 49, 50, 51, 52, 53, 54, 55, 56, 57, 58, 59, 60, 61, 62, 63, 64, 65, 66, 67, 68, 69, 70, 71, 72], "LargestImagePixelValue": [4095, 4095, 4092, 4093, 4094, 4094, 4094, 4094, 4093, 4095, 4093, 4094, 4094, 4094, 4092, 4093, 4093, 4094, 4093, 4094, 4094, 4094, 4093, 4095, 4095, 4095, 4094, 4094, 4093, 4094, 4094, 4095, 4091, 4092, 4093, 4094, 4093, 4092, 4094, 4095, 4094, 4095, 4085, 4095, 4094, 4095, 4095, 4093, 4093, 4094, 4095, 4095, 4095, 4095, 4094, 4094, 4092, 4091, 4094, 4094, 4094, 4094, 4095, 4095, 4095, 4095, 4095, 4095, 4094, 4095, 4093, 4095], "SliceLocation": [-49.880834164513, -47.880833772976, -45.880833368123, -43.880836777596, -41.880836372743, -39.88083596789, -37.880835563038, -35.8808351715, -33.880834766648, -31.880834361795, -29.880835864105, -27.880835459253, -25.880835067715, -23.880834662863, -21.880836165173, -19.88083576032, -17.880835355467, -15.88083496393, -13.880835512659, -11.880835107806, -9.8808356565349, -7.8808352516822, -5.8808353236203, -3.8808351704783, -1.8808352424164, 0.11916473034473, 2.1191648521029, 4.1191647801649, 6.1191646949115, 8.1191651064218, 10.119164551035, 12.119164955888, 14.119164400502, 16.119163851773, 18.119164256626, 20.119164654821, 22.119165059673, 24.119165464526, 26.119163955558, 28.119164360411, 30.119164758606, 32.119163256296, 34.119163661148, 36.119164059343, 38.119164464196, 40.119164869049, 42.119165267244, 44.119165672096, 46.119166070291, 48.119166475144, 50.119163065671, 52.119163463866, 54.119163868719, 56.119164273571, 58.119164671766, 60.119165076619, 62.119165474814, 64.119162065341, 66.119166284519, 68.119162868389, 70.119167087567, 72.119163678094, 74.119167890614, 76.119164481142, 78.119161071669, 80.119165284189, 82.119161874717, 84.119166087237, 86.119162677764, 88.119166896942, 90.119163480812, 92.11916769999], "SmallestImagePixelValue": [0, 0, 0, 0, 0, 0, 1, 0, 0, 0, 0, 0, 0, 0, 1, 0, 0, 0, 0, 0, 0, 0, 1, 0, 1, 1, 2, 3, 0, 0, 0, 6, 0, 2, 0, 7, 10, 6, 0, 2, 0, 3, 0, 2, 1, 1, 0, 0, 1, 3, 3, 0, 0, 0, 0, 0, 0, 0, 0, 0, 0, 0, 0, 0, 0, 0, 0, 0, 0, 0, 1, 0], "WindowCenter": [-228.0, -220.0, -212.0, -254.0, -218.0, -236.0, -244.0, -240.0, -168.0, -82.0, -62.0, -64.0, -88.0, -48.0, -120.0, -156.0, -94.0, -132.0, -138.0, -116.0, -174.0, -188.0, -222.0, -258.0, -238.0, -252.0, -214.0, -188.0, -196.0, -204.0, -174.0, -158.0, -152.0, -126.0, -122.0, -112.0, -116.0, -100.0, -84.0, -124.0, -50.0, -42.0, -34.0, -38.0, -14.0, -20.0, -80.0, -62.0, -178.0, -26.0, -6.0, 14.0, 12.0, 22.0, 18.0, -50.0, -16.0, -24.0, -18.0, -52.0, -34.0, -86.0, -104.0, -176.0, -224.0, -246.0, -312.0, -324.0, -384.0, -388.0, -352.0, -396.0], "WindowWidth": [6206.0, 6304.0, 6280.0, 6214.0, 6230.0, 6246.0, 6216.0, 6224.0, 6220.0, 6246.0, 6216.0, 6202.0, 6162.0, 6164.0, 6090.0, 6026.0, 6044.0, 5940.0, 5900.0, 5854.0, 5788.0, 5756.0, 5690.0, 5598.0, 5602.0, 5512.0, 5558.0, 5606.0, 5590.0, 5476.0, 5524.0, 5562.0, 5530.0, 5512.0, 5462.0, 5454.0, 5354.0, 5352.0, 5358.0, 5056.0, 5388.0, 5434.0, 5356.0, 5300.0, 5372.0, 5332.0, 4918.0, 5130.0, 4630.0, 5166.0, 5308.0, 5390.0, 5378.0, 5416.0, 5456.0, 5294.0, 5454.0, 5582.0, 5616.0, 5606.0, 5672.0, 5708.0, 5828.0, 5876.0, 6000.0, 6030.0, 6094.0, 6084.0, 6166.0, 6252.0, 6278.0, 6426.0]}}, "IntendedFor": ["ses-action01/func/sub-11_ses-action01_task-action_run-05_bold.nii.gz", "ses-action01/func/sub-11_ses-action01_task-action_run-07_bold.nii.gz", "ses-action01/func/sub-11_ses-action01_task-action_run-08_bold.nii.gz", "ses-action01/func/sub-11_ses-action01_task-action_run-01_bold.nii.gz", "ses-action01/func/sub-11_ses-action01_task-action_run-11_bold.nii.gz", "ses-action01/func/sub-11_ses-action01_task-action_run-03_bold.nii.gz", "ses-action01/func/sub-11_ses-action01_task-action_run-10_bold.nii.gz", "ses-action01/func/sub-11_ses-action01_task-action_run-02_bold.nii.gz", "ses-action01/func/sub-11_ses-action01_task-action_run-12_bold.nii.gz", "ses-action01/func/sub-11_ses-action01_task-action_run-04_bold.nii.gz", "ses-action01/func/sub-11_ses-action01_task-action_run-09_bold.nii.gz", "ses-action01/func/sub-11_ses-action01_task-action_run-06_bold.nii.gz"]}