{
  "AcquisitionMatrixPE": 100,
  "AcquisitionNumber": 1,
  "AcquisitionTime": "14:06:52.145000",
  "BandwidthPerPixelPhaseEncode": 18.519,
  "BaseResolution": 100,
  "BodyPartExamined": "BRAIN",
  "CoilCombinationMethod": "Sum of Squares",
  "ConsistencyInfo": "N4_VE11C_LATEST_20160120",
  "ConversionSoftware": "dcm2niix",
  "ConversionSoftwareVersion": "v1.0.20211006",
  "DerivedVendorReportedEchoSpacing": 0.000539986,
  "DeviceSerialNumber": "166078",
  "DwellTime": 2.1e-06,
  "EchoTime": 0.034,
  "EchoTrainLength": 100,
  "EffectiveEchoSpacing": 0.000539986,
  "FlipAngle": 90,
  "ImageOrientationPatientDICOM": [1, -5.21588e-05, -0.000273251, 3.9258e-08, 0.982292, -0.187358],
  "ImageOrientationText": "Tra>Cor(-10.8)>Sag(-0.0)",
  "ImageType": [
    "ORIGINAL",
    "PRIMARY",
    "M",
    "ND",
    "MOSAIC"
],
  "ImagingFrequency": 123.258,
  "InPlanePhaseEncodingDirectionDICOM": "COL",
  "InstitutionAddress": "Street StreetNo,Bei Jing,District,CN,ZIP",
  "InstitutionName": "BeiJing Normal University",
  "InstitutionalDepartmentName": "Department",
  "MRAcquisitionType": "2D",
  "MagneticFieldStrength": 3,
  "Manufacturer": "Siemens",
  "ManufacturersModelName": "Prisma",
  "Modality": "MR",
  "MultibandAccelerationFactor": 3,
  "PartialFourier": 1,
  "PatientPosition": "HFS",
  "PercentPhaseFOV": 100,
  "PercentSampling": 100,
  "PhaseEncodingDirection": "j-",
  "PhaseEncodingSteps": 100,
  "PhaseResolution": 1,
  "PixelBandwidth": 2380,
  "ProcedureStepDescription": "BNU_P2018_64CH^Zhen.ZongLei",
  "ProtocolName": "bold_100x100_s3_2x2x2_static_156",
  "PulseSequenceDetails": "%SiemensSeq%\\ep2d_bold",
  "ReceiveCoilActiveElements": "HC1-7;NC1",
  "ReceiveCoilName": "HeadNeck_64",
  "ReconMatrixPE": 100,
  "RefLinesPE": 32,
  "RepetitionTime": 2,
  "SAR": 0.0858331,
  "ScanOptions": "FS",
  "ScanningSequence": "EP",
  "SequenceName": "*epfid2d1_100",
  "SequenceVariant": "SK",
  "SeriesDescription": "bold_100x100_s3_2x2x2_static_156",
  "SeriesNumber": 15,
  "ShimSetting": [-5444, -11516, -1230, 507, 35, -190, -117, 18],
  "SliceThickness": 2,
  "SliceTiming": [1.485, 0, 0.99, 0.0825, 1.0725, 0.165, 1.155, 0.2475, 1.2375, 0.33, 1.32, 0.4125, 1.4025, 0.5775, 1.5675, 0.66, 1.65, 0.7425, 1.7325, 0.825, 1.815, 0.9075, 1.8975, 0.495, 1.485, 0, 0.99, 0.0825, 1.0725, 0.165, 1.155, 0.2475, 1.2375, 0.33, 1.32, 0.4125, 1.4025, 0.5775, 1.5675, 0.66, 1.65, 0.7425, 1.7325, 0.825, 1.815, 0.9075, 1.8975, 0.495, 1.485, 0, 0.99, 0.0825, 1.0725, 0.165, 1.155, 0.2475, 1.2375, 0.33, 1.32, 0.4125, 1.4025, 0.5775, 1.5675, 0.66, 1.65, 0.7425, 1.7325, 0.825, 1.815, 0.9075, 1.8975, 0.495],
  "SoftwareVersions": "syngo MR E11",
  "SpacingBetweenSlices": 2,
  "StationName": "AWP166078",
  "TaskName": "action",
  "TotalReadoutTime": 0.0534586,
  "TxRefAmp": 227.505,
  "dcmmeta_affine": [
    [-1.9999998807907104, 7.851598127217585e-08, -0.0005563698359765112, 101.46329498291016],
    [0.00010431757982587442, 1.9645832777023315, -0.3747164011001587, -80.93180084228516],
    [-0.0005465027643367648, 0.3747164011001587, 1.9645832777023315, -77.75297546386719],
    [0.0, 0.0, 0.0, 1.0]
],
  "dcmmeta_reorient_transform": [
    [0.0, -1.0, 0.0, 99.0],
    [1.0, 0.0, 0.0, 0.0],
    [0.0, 0.0, 1.0, 0.0],
    [0.0, 0.0, 0.0, 1.0]
],
  "dcmmeta_shape": [100, 100, 72, 156],
  "dcmmeta_slice_dim": 2,
  "dcmmeta_version": 0.6,
  "global": {
    "const": {
      "AcquisitionMatrix": [100, 0, 0, 100],
      "AngioFlag": "N",
      "BitsAllocated": 16,
      "BitsStored": 12,
      "BodyPartExamined": "BRAIN",
      "Columns": 900,
      "EchoNumbers": 1,
      "EchoTime": 34.0,
      "EchoTrainLength": 100,
      "FlipAngle": 90.0,
      "HighBit": 11,
      "ImageOrientationPatient": [0.99999996130657, -5.21587901e-05, -0.0002732513719, 3.9257991e-08, 0.98229165890162, -0.187358204657],
      "ImagePositionPatient": [-901.46330645827, -899.35355135159, 109.44911334353],
      "ImageType": [
        "ORIGINAL",
        "PRIMARY",
        "M",
        "ND",
        "MOSAIC"
],
      "ImagedNucleus": "1H",
      "ImagingFrequency": 123.257734,
      "InPlanePhaseEncodingDirection": "COL",
      "MRAcquisitionType": "2D",
      "MagneticFieldStrength": 3.0,
      "Manufacturer": "SIEMENS",
      "ManufacturerModelName": "Prisma",
      "Modality": "MR",
      "NumberOfAverages": 1.0,
      "NumberOfPhaseEncodingSteps": 100,
      "PercentPhaseFieldOfView": 100.0,
      "PercentSampling": 100.0,
      "PerformedProcedureStepStartTime": "125823.622000",
      "PhotometricInterpretation": "MONOCHROME2",
      "PixelBandwidth": 2380.0,
      "PixelRepresentation": 0,
      "PixelSpacing": [2.0, 2.0],
      "ProtocolName": "bold_100x100_s3_2x2x2_static_156",
      "RepetitionTime": 2000.0,
      "Rows": 900,
      "SAR": 0.08583313248598,
      "SamplesPerPixel": 1,
      "ScanOptions": "FS",
      "ScanningSequence": "EP",
      "SequenceName": "*epfid2d1_100",
      "SequenceVariant": "SK",
      "SeriesDescription": "bold_100x100_s3_2x2x2_static_156",
      "SeriesNumber": 15,
      "SeriesTime": "140654.998000",
      "SliceLocation": -61.241086750241,
      "SliceThickness": 2.0,
      "SmallestImagePixelValue": 0,
      "SoftwareVersions": "syngo MR E11",
      "SpacingBetweenSlices": 2.0000000338651,
      "SpecificCharacterSet": "ISO_IR 100",
      "StudyID": "1",
      "StudyTime": "125823.466000",
      "TransmitCoilName": "Body",
      "VariableFlipAngleFlag": "N",
      "WindowCenterWidthExplanation": "Algo1",
      "dBdt": 0.0},
    "slices": {}
  },
  "time": {
    "samples": {
      "AcquisitionNumber": [1, 2, 3, 4, 5, 6, 7, 8, 9, 10, 11, 12, 13, 14, 15, 16, 17, 18, 19, 20, 21, 22, 23, 24, 25, 26, 27, 28, 29, 30, 31, 32, 33, 34, 35, 36, 37, 38, 39, 40, 41, 42, 43, 44, 45, 46, 47, 48, 49, 50, 51, 52, 53, 54, 55, 56, 57, 58, 59, 60, 61, 62, 63, 64, 65, 66, 67, 68, 69, 70, 71, 72, 73, 74, 75, 76, 77, 78, 79, 80, 81, 82, 83, 84, 85, 86, 87, 88, 89, 90, 91, 92, 93, 94, 95, 96, 97, 98, 99, 100, 101, 102, 103, 104, 105, 106, 107, 108, 109, 110, 111, 112, 113, 114, 115, 116, 117, 118, 119, 120, 121, 122, 123, 124, 125, 126, 127, 128, 129, 130, 131, 132, 133, 134, 135, 136, 137, 138, 139, 140, 141, 142, 143, 144, 145, 146, 147, 148, 149, 150, 151, 152, 153, 154, 155, 156],
      "AcquisitionTime": ["140652.145000", "140654.145000", "140656.145000", "140658.145000", "140700.145000", "140702.145000", "140704.145000", "140706.145000", "140708.145000", "140710.145000", "140712.145000", "140714.145000", "140716.145000", "140718.145000", "140720.145000", "140722.145000", "140724.145000", "140726.145000", "140728.145000", "140730.145000", "140732.145000", "140734.145000", "140736.145000", "140738.145000", "140740.145000", "140742.145000", "140744.145000", "140746.145000", "140748.145000", "140750.145000", "140752.145000", "140754.145000", "140756.145000", "140758.145000", "140800.145000", "140802.145000", "140804.145000", "140806.145000", "140808.145000", "140810.145000", "140812.145000", "140814.145000", "140816.145000", "140818.145000", "140820.145000", "140822.145000", "140824.145000", "140826.145000", "140828.145000", "140830.145000", "140832.145000", "140834.145000", "140836.145000", "140838.145000", "140840.145000", "140842.145000", "140844.145000", "140846.145000", "140848.145000", "140850.145000", "140852.145000", "140854.145000", "140856.145000", "140858.145000", "140900.145000", "140902.145000", "140904.145000", "140906.145000", "140908.145000", "140910.145000", "140912.145000", "140914.145000", "140916.145000", "140918.145000", "140920.145000", "140922.145000", "140924.145000", "140926.145000", "140928.145000", "140930.145000", "140932.145000", "140934.145000", "140936.145000", "140938.145000", "140940.145000", "140942.145000", "140944.145000", "140946.145000", "140948.145000", "140950.145000", "140952.145000", "140954.145000", "140956.145000", "140958.145000", "141000.145000", "141002.145000", "141004.145000", "141006.145000", "141008.145000", "141010.145000", "141012.145000", "141014.145000", "141016.145000", "141018.145000", "141020.145000", "141022.145000", "141024.145000", "141026.145000", "141028.145000", "141030.145000", "141032.145000", "141034.145000", "141036.145000", "141038.145000", "141040.145000", "141042.145000", "141044.145000", "141046.145000", "141048.145000", "141050.145000", "141052.145000", "141054.145000", "141056.145000", "141058.145000", "141100.145000", "141102.145000", "141104.145000", "141106.145000", "141108.145000", "141110.145000", "141112.145000", "141114.145000", "141116.145000", "141118.145000", "141120.145000", "141122.145000", "141124.145000", "141126.145000", "141128.145000", "141130.145000", "141132.145000", "141134.145000", "141136.145000", "141138.145000", "141140.145000", "141142.145000", "141144.145000", "141146.145000", "141148.145000", "141150.145000", "141152.145000", "141154.145000", "141156.145000", "141158.145000", "141200.145000", "141202.145000"],
      "ContentTime": ["140655.003000", "140656.498000", "140658.497000", "140700.497000", "140702.498000", "140704.498000", "140706.498000", "140708.497000", "140710.497000", "140712.498000", "140714.498000", "140716.498000", "140718.498000", "140720.498000", "140722.498000", "140724.497000", "140726.497000", "140728.497000", "140730.497000", "140732.498000", "140734.497000", "140736.498000", "140738.498000", "140740.497000", "140742.497000", "140744.497000", "140746.497000", "140748.497000", "140750.498000", "140752.498000", "140754.498000", "140756.499000", "140758.497000", "140800.497000", "140802.497000", "140804.497000", "140806.497000", "140808.497000", "140810.497000", "140812.498000", "140814.498000", "140816.497000", "140818.497000", "140820.498000", "140822.498000", "140824.497000", "140826.497000", "140828.497000", "140830.498000", "140832.498000", "140834.497000", "140836.498000", "140838.498000", "140840.497000", "140842.498000", "140844.497000", "140846.497000", "140848.499000", "140850.498000", "140852.497000", "140854.497000", "140856.498000", "140858.498000", "140900.497000", "140902.497000", "140904.498000", "140906.498000", "140908.497000", "140910.497000", "140912.497000", "140914.497000", "140916.498000", "140918.497000", "140920.497000", "140922.499000", "140924.498000", "140926.498000", "140928.497000", "140930.497000", "140932.498000", "140934.497000", "140936.497000", "140938.498000", "140940.499000", "140942.498000", "140944.498000", "140946.497000", "140948.498000", "140950.498000", "140952.498000", "140954.498000", "140956.497000", "140958.498000", "141000.497000", "141002.497000", "141004.498000", "141006.497000", "141008.497000", "141010.497000", "141012.497000", "141014.498000", "141016.498000", "141018.498000", "141020.497000", "141022.498000", "141024.498000", "141026.497000", "141028.497000", "141030.498000", "141032.499000", "141034.498000", "141036.497000", "141038.497000", "141040.497000", "141042.498000", "141044.498000", "141046.498000", "141048.498000", "141050.498000", "141052.499000", "141054.497000", "141056.498000", "141058.497000", "141100.497000", "141102.498000", "141104.497000", "141106.498000", "141108.499000", "141110.497000", "141112.497000", "141114.498000", "141116.497000", "141118.497000", "141120.497000", "141122.498000", "141124.498000", "141126.498000", "141128.498000", "141130.497000", "141132.498000", "141134.498000", "141136.498000", "141138.497000", "141140.498000", "141142.499000", "141144.499000", "141146.498000", "141148.497000", "141150.498000", "141152.498000", "141154.498000", "141156.497000", "141158.498000", "141200.499000", "141202.498000", "141204.190000"],
      "InstanceCreationTime": ["140655.003000", "140656.498000", "140658.497000", "140700.497000", "140702.498000", "140704.498000", "140706.498000", "140708.497000", "140710.497000", "140712.498000", "140714.498000", "140716.498000", "140718.498000", "140720.498000", "140722.498000", "140724.497000", "140726.497000", "140728.497000", "140730.497000", "140732.498000", "140734.497000", "140736.498000", "140738.498000", "140740.497000", "140742.497000", "140744.497000", "140746.497000", "140748.497000", "140750.498000", "140752.498000", "140754.498000", "140756.499000", "140758.497000", "140800.497000", "140802.497000", "140804.497000", "140806.497000", "140808.497000", "140810.497000", "140812.498000", "140814.498000", "140816.497000", "140818.497000", "140820.498000", "140822.498000", "140824.497000", "140826.497000", "140828.497000", "140830.498000", "140832.498000", "140834.497000", "140836.498000", "140838.498000", "140840.497000", "140842.498000", "140844.497000", "140846.497000", "140848.499000", "140850.498000", "140852.497000", "140854.497000", "140856.498000", "140858.498000", "140900.497000", "140902.497000", "140904.498000", "140906.498000", "140908.497000", "140910.497000", "140912.497000", "140914.497000", "140916.498000", "140918.497000", "140920.497000", "140922.499000", "140924.498000", "140926.498000", "140928.497000", "140930.497000", "140932.498000", "140934.497000", "140936.497000", "140938.498000", "140940.499000", "140942.498000", "140944.498000", "140946.497000", "140948.498000", "140950.498000", "140952.498000", "140954.498000", "140956.497000", "140958.498000", "141000.497000", "141002.497000", "141004.498000", "141006.497000", "141008.497000", "141010.497000", "141012.497000", "141014.498000", "141016.498000", "141018.498000", "141020.497000", "141022.498000", "141024.498000", "141026.497000", "141028.497000", "141030.498000", "141032.499000", "141034.498000", "141036.497000", "141038.497000", "141040.497000", "141042.498000", "141044.498000", "141046.498000", "141048.498000", "141050.498000", "141052.499000", "141054.497000", "141056.498000", "141058.497000", "141100.497000", "141102.498000", "141104.497000", "141106.498000", "141108.499000", "141110.497000", "141112.497000", "141114.498000", "141116.497000", "141118.497000", "141120.497000", "141122.498000", "141124.498000", "141126.498000", "141128.498000", "141130.497000", "141132.498000", "141134.498000", "141136.498000", "141138.497000", "141140.498000", "141142.499000", "141144.499000", "141146.498000", "141148.497000", "141150.498000", "141152.498000", "141154.498000", "141156.497000", "141158.498000", "141200.499000", "141202.498000", "141204.190000"],
      "InstanceNumber": [1, 2, 3, 4, 5, 6, 7, 8, 9, 10, 11, 12, 13, 14, 15, 16, 17, 18, 19, 20, 21, 22, 23, 24, 25, 26, 27, 28, 29, 30, 31, 32, 33, 34, 35, 36, 37, 38, 39, 40, 41, 42, 43, 44, 45, 46, 47, 48, 49, 50, 51, 52, 53, 54, 55, 56, 57, 58, 59, 60, 61, 62, 63, 64, 65, 66, 67, 68, 69, 70, 71, 72, 73, 74, 75, 76, 77, 78, 79, 80, 81, 82, 83, 84, 85, 86, 87, 88, 89, 90, 91, 92, 93, 94, 95, 96, 97, 98, 99, 100, 101, 102, 103, 104, 105, 106, 107, 108, 109, 110, 111, 112, 113, 114, 115, 116, 117, 118, 119, 120, 121, 122, 123, 124, 125, 126, 127, 128, 129, 130, 131, 132, 133, 134, 135, 136, 137, 138, 139, 140, 141, 142, 143, 144, 145, 146, 147, 148, 149, 150, 151, 152, 153, 154, 155, 156],
      "LargestImagePixelValue": [3030, 3063, 2998, 3020, 3007, 2968, 3000, 3004, 2991, 3006, 3018, 3049, 3066, 3044, 3047, 3007, 3010, 3023, 3003, 3014, 3013, 2982, 2996, 3008, 3012, 3033, 3039, 3026, 3040, 3018, 2994, 2990, 2998, 3024, 3026, 3011, 2997, 3008, 2991, 3013, 3009, 2997, 2985, 2998, 3005, 3017, 3017, 3019, 3025, 3007, 2994, 3021, 3021, 3009, 2981, 2957, 3008, 3000, 3042, 3030, 3016, 2990, 3015, 3035, 3043, 3054, 3014, 2980, 2998, 3014, 3006, 3005, 3016, 2989, 3013, 3028, 3005, 3013, 2963, 2991, 3027, 3014, 3052, 2999, 3032, 3008, 3020, 3013, 2976, 2983, 2961, 2962, 2956, 2977, 2995, 3020, 3015, 3011, 3022, 3019, 3023, 2997, 2969, 2975, 2989, 2976, 3016, 3012, 3003, 3013, 3001, 3020, 2994, 2947, 2924, 2965, 3000, 3014, 3023, 3045, 3015, 3006, 3017, 3029, 3018, 2995, 2951, 2978, 2994, 2986, 3022, 2996, 3003, 3009, 3000, 2990, 2992, 2981, 2979, 2970, 3001, 3038, 3032, 3066, 3038, 3020, 3024, 3015, 3033, 3016, 2994, 2965, 2940, 2969, 2992, 2985],
      "WindowCenter": [787.0, 785.0, 783.0, 783.0, 782.0, 781.0, 781.0, 781.0, 782.0, 782.0, 784.0, 784.0, 784.0, 783.0, 784.0, 782.0, 782.0, 782.0, 782.0, 783.0, 783.0, 781.0, 781.0, 781.0, 781.0, 782.0, 783.0, 783.0, 782.0, 781.0, 780.0, 780.0, 781.0, 781.0, 782.0, 782.0, 783.0, 783.0, 782.0, 781.0, 781.0, 781.0, 780.0, 779.0, 780.0, 780.0, 782.0, 781.0, 781.0, 780.0, 781.0, 781.0, 781.0, 780.0, 778.0, 779.0, 781.0, 783.0, 783.0, 782.0, 781.0, 781.0, 781.0, 782.0, 782.0, 782.0, 782.0, 782.0, 782.0, 782.0, 781.0, 781.0, 780.0, 780.0, 781.0, 783.0, 782.0, 781.0, 779.0, 780.0, 782.0, 782.0, 782.0, 781.0, 782.0, 782.0, 781.0, 780.0, 779.0, 779.0, 779.0, 780.0, 780.0, 781.0, 782.0, 783.0, 783.0, 782.0, 782.0, 783.0, 782.0, 782.0, 780.0, 780.0, 782.0, 782.0, 782.0, 782.0, 783.0, 782.0, 782.0, 783.0, 783.0, 782.0, 780.0, 781.0, 781.0, 782.0, 783.0, 782.0, 781.0, 780.0, 781.0, 781.0, 780.0, 779.0, 777.0, 777.0, 778.0, 779.0, 780.0, 780.0, 781.0, 781.0, 781.0, 780.0, 779.0, 779.0, 779.0, 780.0, 780.0, 781.0, 782.0, 783.0, 782.0, 781.0, 780.0, 780.0, 781.0, 783.0, 781.0, 781.0, 780.0, 781.0, 783.0, 783.0],
      "WindowWidth": [1691.0, 1685.0, 1680.0, 1680.0, 1677.0, 1674.0, 1674.0, 1675.0, 1676.0, 1678.0, 1682.0, 1683.0, 1682.0, 1680.0, 1681.0, 1678.0, 1678.0, 1677.0, 1676.0, 1678.0, 1678.0, 1675.0, 1675.0, 1674.0, 1675.0, 1678.0, 1680.0, 1679.0, 1678.0, 1675.0, 1673.0, 1672.0, 1673.0, 1674.0, 1676.0, 1678.0, 1680.0, 1679.0, 1676.0, 1675.0, 1674.0, 1674.0, 1672.0, 1670.0, 1671.0, 1673.0, 1676.0, 1676.0, 1675.0, 1673.0, 1674.0, 1674.0, 1673.0, 1671.0, 1667.0, 1668.0, 1675.0, 1679.0, 1679.0, 1676.0, 1674.0, 1674.0, 1675.0, 1677.0, 1677.0, 1678.0, 1676.0, 1676.0, 1677.0, 1676.0, 1675.0, 1674.0, 1673.0, 1671.0, 1675.0, 1678.0, 1677.0, 1673.0, 1669.0, 1671.0, 1676.0, 1676.0, 1676.0, 1674.0, 1677.0, 1676.0, 1676.0, 1673.0, 1669.0, 1669.0, 1668.0, 1670.0, 1672.0, 1674.0, 1678.0, 1680.0, 1678.0, 1676.0, 1677.0, 1679.0, 1676.0, 1676.0, 1671.0, 1672.0, 1675.0, 1677.0, 1677.0, 1678.0, 1678.0, 1678.0, 1676.0, 1678.0, 1678.0, 1676.0, 1671.0, 1673.0, 1674.0, 1677.0, 1680.0, 1678.0, 1674.0, 1670.0, 1674.0, 1674.0, 1672.0, 1668.0, 1664.0, 1664.0, 1667.0, 1668.0, 1671.0, 1673.0, 1675.0, 1675.0, 1673.0, 1670.0, 1670.0, 1670.0, 1668.0, 1670.0, 1673.0, 1675.0, 1677.0, 1679.0, 1677.0, 1674.0, 1671.0, 1672.0, 1676.0, 1679.0, 1675.0, 1673.0, 1670.0, 1673.0, 1678.0, 1678.0]
    },
    "slices": {}
  }
}