{
  "AcquisitionMatrixPE": 100,
  "AcquisitionNumber": 1,
  "AcquisitionTime": "13:34:8.190000",
  "BandwidthPerPixelPhaseEncode": 18.519,
  "BaseResolution": 100,
  "BodyPartExamined": "BRAIN",
  "CoilCombinationMethod": "Sum of Squares",
  "ConsistencyInfo": "N4_VE11C_LATEST_20160120",
  "ConversionSoftware": "dcm2niix",
  "ConversionSoftwareVersion": "v1.0.20211006",
  "DerivedVendorReportedEchoSpacing": 0.000539986,
  "DeviceSerialNumber": "166078",
  "DwellTime": 2.1e-06,
  "EchoTime": 0.034,
  "EchoTrainLength": 100,
  "EffectiveEchoSpacing": 0.000539986,
  "FlipAngle": 90,
  "ImageOrientationPatientDICOM": [1, -5.21588e-05, -0.000273251, 3.9258e-08, 0.982292, -0.187358],
  "ImageOrientationText": "Tra>Cor(-10.8)>Sag(-0.0)",
  "ImageType": [
    "ORIGINAL",
    "PRIMARY",
    "M",
    "ND",
    "MOSAIC"
],
  "ImagingFrequency": 123.258,
  "InPlanePhaseEncodingDirectionDICOM": "COL",
  "InstitutionAddress": "Street StreetNo,Bei Jing,District,CN,ZIP",
  "InstitutionName": "BeiJing Normal University",
  "InstitutionalDepartmentName": "Department",
  "MRAcquisitionType": "2D",
  "MagneticFieldStrength": 3,
  "Manufacturer": "Siemens",
  "ManufacturersModelName": "Prisma",
  "Modality": "MR",
  "MultibandAccelerationFactor": 3,
  "PartialFourier": 1,
  "PatientPosition": "HFS",
  "PercentPhaseFOV": 100,
  "PercentSampling": 100,
  "PhaseEncodingDirection": "j-",
  "PhaseEncodingSteps": 100,
  "PhaseResolution": 1,
  "PixelBandwidth": 2380,
  "ProcedureStepDescription": "BNU_P2018_64CH^Zhen.ZongLei",
  "ProtocolName": "bold_100x100_s3_2x2x2_static_156",
  "PulseSequenceDetails": "%SiemensSeq%\\ep2d_bold",
  "ReceiveCoilActiveElements": "HC1-7;NC1",
  "ReceiveCoilName": "HeadNeck_64",
  "ReconMatrixPE": 100,
  "RefLinesPE": 32,
  "RepetitionTime": 2,
  "SAR": 0.0858331,
  "ScanOptions": "FS",
  "ScanningSequence": "EP",
  "SequenceName": "*epfid2d1_100",
  "SequenceVariant": "SK",
  "SeriesDescription": "bold_100x100_s3_2x2x2_static_156",
  "SeriesNumber": 8,
  "ShimSetting": [-5444, -11516, -1230, 507, 35, -190, -117, 18],
  "SliceThickness": 2,
  "SliceTiming": [1.485, 0, 0.99, 0.0825, 1.0725, 0.165, 1.155, 0.2475, 1.2375, 0.33, 1.32, 0.4125, 1.4025, 0.5775, 1.5675, 0.66, 1.65, 0.7425, 1.7325, 0.825, 1.815, 0.9075, 1.8975, 0.495, 1.485, 0, 0.99, 0.0825, 1.0725, 0.165, 1.155, 0.2475, 1.2375, 0.33, 1.32, 0.4125, 1.4025, 0.5775, 1.5675, 0.66, 1.65, 0.7425, 1.7325, 0.825, 1.815, 0.9075, 1.8975, 0.495, 1.485, 0, 0.99, 0.0825, 1.0725, 0.165, 1.155, 0.2475, 1.2375, 0.33, 1.32, 0.4125, 1.4025, 0.5775, 1.5675, 0.66, 1.65, 0.7425, 1.7325, 0.825, 1.815, 0.9075, 1.8975, 0.495],
  "SoftwareVersions": "syngo MR E11",
  "SpacingBetweenSlices": 2,
  "StationName": "AWP166078",
  "TaskName": "action",
  "TotalReadoutTime": 0.0534586,
  "TxRefAmp": 227.505,
  "dcmmeta_affine": [
    [-1.9999998807907104, 7.851598127217585e-08, -0.0005563698359765112, 101.46329498291016],
    [0.00010431757982587442, 1.9645832777023315, -0.3747164011001587, -80.93180084228516],
    [-0.0005465027643367648, 0.3747164011001587, 1.9645832777023315, -77.75297546386719],
    [0.0, 0.0, 0.0, 1.0]
],
  "dcmmeta_reorient_transform": [
    [0.0, -1.0, 0.0, 99.0],
    [1.0, 0.0, 0.0, 0.0],
    [0.0, 0.0, 1.0, 0.0],
    [0.0, 0.0, 0.0, 1.0]
],
  "dcmmeta_shape": [100, 100, 72, 156],
  "dcmmeta_slice_dim": 2,
  "dcmmeta_version": 0.6,
  "global": {
    "const": {
      "AcquisitionMatrix": [100, 0, 0, 100],
      "AngioFlag": "N",
      "BitsAllocated": 16,
      "BitsStored": 12,
      "BodyPartExamined": "BRAIN",
      "Columns": 900,
      "EchoNumbers": 1,
      "EchoTime": 34.0,
      "EchoTrainLength": 100,
      "FlipAngle": 90.0,
      "HighBit": 11,
      "ImageOrientationPatient": [0.99999996130657, -5.21587901e-05, -0.0002732513719, 3.9257991e-08, 0.98229165890162, -0.187358204657],
      "ImagePositionPatient": [-901.46330645827, -899.35355135159, 109.44911334353],
      "ImageType": [
        "ORIGINAL",
        "PRIMARY",
        "M",
        "ND",
        "MOSAIC"
],
      "ImagedNucleus": "1H",
      "ImagingFrequency": 123.257725,
      "InPlanePhaseEncodingDirection": "COL",
      "MRAcquisitionType": "2D",
      "MagneticFieldStrength": 3.0,
      "Manufacturer": "SIEMENS",
      "ManufacturerModelName": "Prisma",
      "Modality": "MR",
      "NumberOfAverages": 1.0,
      "NumberOfPhaseEncodingSteps": 100,
      "PercentPhaseFieldOfView": 100.0,
      "PercentSampling": 100.0,
      "PerformedProcedureStepStartTime": "125823.622000",
      "PhotometricInterpretation": "MONOCHROME2",
      "PixelBandwidth": 2380.0,
      "PixelRepresentation": 0,
      "PixelSpacing": [2.0, 2.0],
      "ProtocolName": "bold_100x100_s3_2x2x2_static_156",
      "RepetitionTime": 2000.0,
      "Rows": 900,
      "SAR": 0.08583313248598,
      "SamplesPerPixel": 1,
      "ScanOptions": "FS",
      "ScanningSequence": "EP",
      "SequenceName": "*epfid2d1_100",
      "SequenceVariant": "SK",
      "SeriesDescription": "bold_100x100_s3_2x2x2_static_156",
      "SeriesNumber": 8,
      "SeriesTime": "133411.315000",
      "SliceLocation": -61.241086750241,
      "SliceThickness": 2.0,
      "SmallestImagePixelValue": 0,
      "SoftwareVersions": "syngo MR E11",
      "SpacingBetweenSlices": 2.0000000338651,
      "SpecificCharacterSet": "ISO_IR 100",
      "StudyID": "1",
      "StudyTime": "125823.466000",
      "TransmitCoilName": "Body",
      "VariableFlipAngleFlag": "N",
      "WindowCenterWidthExplanation": "Algo1",
      "dBdt": 0.0},
    "slices": {}
  },
  "time": {
    "samples": {
      "AcquisitionNumber": [1, 2, 3, 4, 5, 6, 7, 8, 9, 10, 11, 12, 13, 14, 15, 16, 17, 18, 19, 20, 21, 22, 23, 24, 25, 26, 27, 28, 29, 30, 31, 32, 33, 34, 35, 36, 37, 38, 39, 40, 41, 42, 43, 44, 45, 46, 47, 48, 49, 50, 51, 52, 53, 54, 55, 56, 57, 58, 59, 60, 61, 62, 63, 64, 65, 66, 67, 68, 69, 70, 71, 72, 73, 74, 75, 76, 77, 78, 79, 80, 81, 82, 83, 84, 85, 86, 87, 88, 89, 90, 91, 92, 93, 94, 95, 96, 97, 98, 99, 100, 101, 102, 103, 104, 105, 106, 107, 108, 109, 110, 111, 112, 113, 114, 115, 116, 117, 118, 119, 120, 121, 122, 123, 124, 125, 126, 127, 128, 129, 130, 131, 132, 133, 134, 135, 136, 137, 138, 139, 140, 141, 142, 143, 144, 145, 146, 147, 148, 149, 150, 151, 152, 153, 154, 155, 156],
      "AcquisitionTime": ["133408.190000", "133410.190000", "133412.190000", "133414.190000", "133416.190000", "133418.190000", "133420.190000", "133422.190000", "133424.190000", "133426.190000", "133428.190000", "133430.190000", "133432.190000", "133434.190000", "133436.190000", "133438.190000", "133440.190000", "133442.190000", "133444.190000", "133446.190000", "133448.190000", "133450.190000", "133452.190000", "133454.190000", "133456.190000", "133458.190000", "133500.190000", "133502.190000", "133504.190000", "133506.190000", "133508.190000", "133510.190000", "133512.190000", "133514.190000", "133516.190000", "133518.190000", "133520.190000", "133522.190000", "133524.190000", "133526.190000", "133528.190000", "133530.190000", "133532.190000", "133534.190000", "133536.190000", "133538.190000", "133540.190000", "133542.190000", "133544.190000", "133546.190000", "133548.190000", "133550.190000", "133552.190000", "133554.190000", "133556.190000", "133558.190000", "133600.190000", "133602.190000", "133604.190000", "133606.190000", "133608.190000", "133610.190000", "133612.190000", "133614.190000", "133616.190000", "133618.190000", "133620.190000", "133622.190000", "133624.190000", "133626.190000", "133628.190000", "133630.190000", "133632.190000", "133634.190000", "133636.190000", "133638.190000", "133640.190000", "133642.190000", "133644.190000", "133646.190000", "133648.190000", "133650.190000", "133652.190000", "133654.190000", "133656.190000", "133658.190000", "133700.190000", "133702.190000", "133704.190000", "133706.190000", "133708.190000", "133710.190000", "133712.190000", "133714.190000", "133716.190000", "133718.190000", "133720.190000", "133722.190000", "133724.190000", "133726.190000", "133728.190000", "133730.190000", "133732.190000", "133734.190000", "133736.190000", "133738.190000", "133740.190000", "133742.190000", "133744.190000", "133746.190000", "133748.190000", "133750.190000", "133752.190000", "133754.190000", "133756.190000", "133758.190000", "133800.190000", "133802.190000", "133804.190000", "133806.190000", "133808.190000", "133810.190000", "133812.190000", "133814.190000", "133816.190000", "133818.190000", "133820.190000", "133822.190000", "133824.190000", "133826.190000", "133828.190000", "133830.190000", "133832.190000", "133834.190000", "133836.190000", "133838.190000", "133840.190000", "133842.190000", "133844.190000", "133846.190000", "133848.190000", "133850.190000", "133852.190000", "133854.190000", "133856.190000", "133858.190000", "133900.190000", "133902.190000", "133904.190000", "133906.190000", "133908.190000", "133910.190000", "133912.190000", "133914.190000", "133916.190000", "133918.190000"],
      "ContentTime": ["133411.318000", "133412.813000", "133414.814000", "133416.812000", "133418.812000", "133420.813000", "133422.812000", "133424.814000", "133426.813000", "133428.813000", "133430.813000", "133432.813000", "133434.812000", "133436.813000", "133438.813000", "133440.812000", "133442.813000", "133444.813000", "133446.813000", "133448.814000", "133450.813000", "133452.813000", "133454.813000", "133456.812000", "133458.813000", "133500.814000", "133502.814000", "133504.814000", "133506.813000", "133508.812000", "133510.812000", "133512.813000", "133514.813000", "133516.813000", "133518.813000", "133520.814000", "133522.813000", "133524.813000", "133526.813000", "133528.813000", "133530.813000", "133532.813000", "133534.814000", "133536.814000", "133538.814000", "133540.814000", "133542.813000", "133544.812000", "133546.812000", "133548.813000", "133550.812000", "133552.813000", "133554.813000", "133556.813000", "133558.813000", "133600.813000", "133602.813000", "133604.813000", "133606.813000", "133608.814000", "133610.814000", "133612.813000", "133614.813000", "133616.814000", "133618.812000", "133620.813000", "133622.813000", "133624.813000", "133626.814000", "133628.814000", "133630.814000", "133632.813000", "133634.814000", "133636.813000", "133638.812000", "133640.813000", "133642.812000", "133644.813000", "133646.814000", "133648.813000", "133650.813000", "133652.813000", "133654.813000", "133656.813000", "133658.813000", "133700.813000", "133702.814000", "133704.814000", "133706.814000", "133708.814000", "133710.812000", "133712.813000", "133714.813000", "133716.813000", "133718.814000", "133720.814000", "133722.813000", "133724.814000", "133726.814000", "133728.812000", "133730.812000", "133732.813000", "133734.812000", "133736.814000", "133738.814000", "133740.814000", "133742.813000", "133744.814000", "133746.812000", "133748.812000", "133750.812000", "133752.813000", "133754.813000", "133756.813000", "133758.813000", "133800.813000", "133802.813000", "133804.813000", "133806.813000", "133808.813000", "133810.813000", "133812.813000", "133814.814000", "133816.813000", "133818.814000", "133820.813000", "133822.813000", "133824.813000", "133826.813000", "133828.814000", "133830.813000", "133832.814000", "133834.830000", "133836.814000", "133838.812000", "133840.812000", "133842.812000", "133844.812000", "133846.813000", "133848.813000", "133850.813000", "133852.813000", "133854.814000", "133856.812000", "133858.813000", "133900.813000", "133902.812000", "133904.814000", "133906.814000", "133908.814000", "133910.813000", "133912.813000", "133914.812000", "133916.812000", "133918.812000", "133920.520000"],
      "InstanceCreationTime": ["133411.318000", "133412.813000", "133414.814000", "133416.812000", "133418.812000", "133420.813000", "133422.812000", "133424.814000", "133426.813000", "133428.813000", "133430.813000", "133432.813000", "133434.812000", "133436.813000", "133438.813000", "133440.812000", "133442.813000", "133444.813000", "133446.813000", "133448.814000", "133450.813000", "133452.813000", "133454.813000", "133456.812000", "133458.813000", "133500.814000", "133502.814000", "133504.814000", "133506.813000", "133508.812000", "133510.812000", "133512.813000", "133514.813000", "133516.813000", "133518.813000", "133520.814000", "133522.813000", "133524.813000", "133526.813000", "133528.813000", "133530.813000", "133532.813000", "133534.814000", "133536.814000", "133538.814000", "133540.814000", "133542.813000", "133544.812000", "133546.812000", "133548.813000", "133550.812000", "133552.813000", "133554.813000", "133556.813000", "133558.813000", "133600.813000", "133602.813000", "133604.813000", "133606.813000", "133608.814000", "133610.814000", "133612.813000", "133614.813000", "133616.814000", "133618.812000", "133620.813000", "133622.813000", "133624.813000", "133626.814000", "133628.814000", "133630.814000", "133632.813000", "133634.814000", "133636.813000", "133638.812000", "133640.813000", "133642.812000", "133644.813000", "133646.814000", "133648.813000", "133650.813000", "133652.813000", "133654.813000", "133656.813000", "133658.813000", "133700.813000", "133702.814000", "133704.814000", "133706.814000", "133708.814000", "133710.812000", "133712.813000", "133714.813000", "133716.813000", "133718.814000", "133720.814000", "133722.813000", "133724.814000", "133726.814000", "133728.812000", "133730.812000", "133732.813000", "133734.812000", "133736.814000", "133738.814000", "133740.814000", "133742.813000", "133744.814000", "133746.812000", "133748.812000", "133750.812000", "133752.813000", "133754.813000", "133756.813000", "133758.813000", "133800.813000", "133802.813000", "133804.813000", "133806.813000", "133808.813000", "133810.813000", "133812.813000", "133814.814000", "133816.813000", "133818.814000", "133820.813000", "133822.813000", "133824.813000", "133826.813000", "133828.814000", "133830.813000", "133832.814000", "133834.830000", "133836.814000", "133838.812000", "133840.812000", "133842.812000", "133844.812000", "133846.813000", "133848.813000", "133850.813000", "133852.813000", "133854.814000", "133856.812000", "133858.813000", "133900.813000", "133902.812000", "133904.814000", "133906.814000", "133908.814000", "133910.813000", "133912.813000", "133914.812000", "133916.812000", "133918.812000", "133920.520000"],
      "InstanceNumber": [1, 2, 3, 4, 5, 6, 7, 8, 9, 10, 11, 12, 13, 14, 15, 16, 17, 18, 19, 20, 21, 22, 23, 24, 25, 26, 27, 28, 29, 30, 31, 32, 33, 34, 35, 36, 37, 38, 39, 40, 41, 42, 43, 44, 45, 46, 47, 48, 49, 50, 51, 52, 53, 54, 55, 56, 57, 58, 59, 60, 61, 62, 63, 64, 65, 66, 67, 68, 69, 70, 71, 72, 73, 74, 75, 76, 77, 78, 79, 80, 81, 82, 83, 84, 85, 86, 87, 88, 89, 90, 91, 92, 93, 94, 95, 96, 97, 98, 99, 100, 101, 102, 103, 104, 105, 106, 107, 108, 109, 110, 111, 112, 113, 114, 115, 116, 117, 118, 119, 120, 121, 122, 123, 124, 125, 126, 127, 128, 129, 130, 131, 132, 133, 134, 135, 136, 137, 138, 139, 140, 141, 142, 143, 144, 145, 146, 147, 148, 149, 150, 151, 152, 153, 154, 155, 156],
      "LargestImagePixelValue": [3262, 3239, 3235, 3226, 3201, 3221, 3204, 3212, 3216, 3232, 3228, 3255, 3220, 3218, 3248, 3264, 3261, 3233, 3231, 3225, 3242, 3223, 3205, 3212, 3206, 3215, 3202, 3238, 3221, 3206, 3249, 3224, 3216, 3216, 3259, 3261, 3219, 3210, 3221, 3222, 3212, 3202, 3211, 3203, 3205, 3194, 3199, 3255, 3222, 3243, 3225, 3231, 3250, 3244, 3256, 3273, 3245, 3215, 3196, 3169, 3207, 3164, 3179, 3182, 3200, 3206, 3220, 3200, 3238, 3218, 3201, 3187, 3195, 3239, 3242, 3244, 3219, 3248, 3228, 3240, 3254, 3228, 3253, 3241, 3257, 3237, 3207, 3190, 3196, 3228, 3242, 3215, 3234, 3196, 3212, 3203, 3189, 3217, 3222, 3172, 3187, 3193, 3214, 3218, 3247, 3221, 3197, 3195, 3204, 3217, 3204, 3225, 3203, 3223, 3193, 3206, 3204, 3211, 3245, 3223, 3258, 3218, 3253, 3236, 3204, 3159, 3182, 3210, 3193, 3218, 3221, 3236, 3228, 3228, 3206, 3188, 3203, 3182, 3201, 3191, 3170, 3180, 3195, 3214, 3210, 3215, 3208, 3224, 3185, 3212, 3194, 3207, 3241, 3209, 3186, 3190],
      "WindowCenter": [788.0, 786.0, 785.0, 785.0, 784.0, 785.0, 785.0, 786.0, 787.0, 787.0, 788.0, 789.0, 788.0, 788.0, 789.0, 790.0, 789.0, 788.0, 788.0, 787.0, 787.0, 786.0, 786.0, 786.0, 786.0, 786.0, 786.0, 786.0, 785.0, 784.0, 784.0, 783.0, 784.0, 784.0, 785.0, 785.0, 784.0, 784.0, 784.0, 784.0, 783.0, 783.0, 782.0, 782.0, 783.0, 784.0, 786.0, 786.0, 786.0, 785.0, 785.0, 786.0, 785.0, 784.0, 784.0, 784.0, 785.0, 785.0, 785.0, 784.0, 783.0, 783.0, 784.0, 784.0, 784.0, 785.0, 785.0, 786.0, 787.0, 786.0, 786.0, 786.0, 786.0, 787.0, 787.0, 786.0, 786.0, 786.0, 786.0, 786.0, 787.0, 787.0, 787.0, 787.0, 787.0, 787.0, 786.0, 785.0, 785.0, 785.0, 785.0, 784.0, 785.0, 785.0, 785.0, 785.0, 784.0, 785.0, 785.0, 784.0, 785.0, 785.0, 784.0, 785.0, 786.0, 786.0, 786.0, 785.0, 786.0, 786.0, 785.0, 785.0, 784.0, 783.0, 783.0, 784.0, 785.0, 785.0, 784.0, 784.0, 785.0, 785.0, 786.0, 785.0, 785.0, 784.0, 784.0, 784.0, 785.0, 786.0, 786.0, 785.0, 784.0, 783.0, 783.0, 784.0, 784.0, 784.0, 784.0, 784.0, 785.0, 785.0, 784.0, 785.0, 786.0, 786.0, 786.0, 785.0, 785.0, 784.0, 784.0, 786.0, 787.0, 785.0, 784.0, 784.0],
      "WindowWidth": [1693.0, 1688.0, 1687.0, 1686.0, 1684.0, 1685.0, 1686.0, 1688.0, 1690.0, 1691.0, 1693.0, 1695.0, 1694.0, 1694.0, 1697.0, 1698.0, 1697.0, 1695.0, 1693.0, 1691.0, 1691.0, 1689.0, 1688.0, 1688.0, 1688.0, 1689.0, 1688.0, 1688.0, 1686.0, 1684.0, 1683.0, 1681.0, 1683.0, 1683.0, 1685.0, 1686.0, 1684.0, 1684.0, 1685.0, 1684.0, 1681.0, 1680.0, 1678.0, 1677.0, 1682.0, 1685.0, 1688.0, 1690.0, 1688.0, 1687.0, 1687.0, 1688.0, 1687.0, 1685.0, 1685.0, 1684.0, 1685.0, 1686.0, 1686.0, 1683.0, 1682.0, 1682.0, 1683.0, 1683.0, 1683.0, 1686.0, 1687.0, 1688.0, 1691.0, 1690.0, 1687.0, 1688.0, 1689.0, 1690.0, 1690.0, 1688.0, 1688.0, 1690.0, 1689.0, 1689.0, 1690.0, 1690.0, 1691.0, 1691.0, 1691.0, 1690.0, 1689.0, 1687.0, 1686.0, 1685.0, 1685.0, 1684.0, 1687.0, 1687.0, 1686.0, 1685.0, 1684.0, 1686.0, 1685.0, 1684.0, 1685.0, 1685.0, 1684.0, 1685.0, 1687.0, 1688.0, 1687.0, 1686.0, 1688.0, 1689.0, 1687.0, 1686.0, 1683.0, 1681.0, 1680.0, 1683.0, 1685.0, 1686.0, 1684.0, 1684.0, 1685.0, 1685.0, 1688.0, 1687.0, 1685.0, 1683.0, 1682.0, 1684.0, 1685.0, 1687.0, 1687.0, 1686.0, 1683.0, 1681.0, 1681.0, 1682.0, 1682.0, 1682.0, 1681.0, 1682.0, 1684.0, 1684.0, 1683.0, 1684.0, 1687.0, 1688.0, 1687.0, 1686.0, 1684.0, 1683.0, 1683.0, 1687.0, 1690.0, 1684.0, 1682.0, 1682.0]
    },
    "slices": {}
  }
}