{
  "AcquisitionMatrixPE": 100,
  "AcquisitionNumber": 1,
  "AcquisitionTime": "13:27:34.465000",
  "BandwidthPerPixelPhaseEncode": 18.519,
  "BaseResolution": 100,
  "BodyPartExamined": "BRAIN",
  "CoilCombinationMethod": "Sum of Squares",
  "ConsistencyInfo": "N4_VE11C_LATEST_20160120",
  "ConversionSoftware": "dcm2niix",
  "ConversionSoftwareVersion": "v1.0.20211006",
  "DerivedVendorReportedEchoSpacing": 0.000539986,
  "DeviceSerialNumber": "166078",
  "DwellTime": 2.1e-06,
  "EchoTime": 0.034,
  "EchoTrainLength": 100,
  "EffectiveEchoSpacing": 0.000539986,
  "FlipAngle": 90,
  "ImageOrientationPatientDICOM": [1, -5.21588e-05, -0.000273251, 3.9258e-08, 0.982292, -0.187358],
  "ImageOrientationText": "Tra>Cor(-10.8)>Sag(-0.0)",
  "ImageType": [
    "ORIGINAL",
    "PRIMARY",
    "M",
    "ND",
    "MOSAIC"
],
  "ImagingFrequency": 123.258,
  "InPlanePhaseEncodingDirectionDICOM": "COL",
  "InstitutionAddress": "Street StreetNo,Bei Jing,District,CN,ZIP",
  "InstitutionName": "BeiJing Normal University",
  "InstitutionalDepartmentName": "Department",
  "MRAcquisitionType": "2D",
  "MagneticFieldStrength": 3,
  "Manufacturer": "Siemens",
  "ManufacturersModelName": "Prisma",
  "Modality": "MR",
  "MultibandAccelerationFactor": 3,
  "PartialFourier": 1,
  "PatientPosition": "HFS",
  "PercentPhaseFOV": 100,
  "PercentSampling": 100,
  "PhaseEncodingDirection": "j-",
  "PhaseEncodingSteps": 100,
  "PhaseResolution": 1,
  "PixelBandwidth": 2380,
  "ProcedureStepDescription": "BNU_P2018_64CH^Zhen.ZongLei",
  "ProtocolName": "bold_100x100_s3_2x2x2_static_156",
  "PulseSequenceDetails": "%SiemensSeq%\\ep2d_bold",
  "ReceiveCoilActiveElements": "HC1-7;NC1",
  "ReceiveCoilName": "HeadNeck_64",
  "ReconMatrixPE": 100,
  "RefLinesPE": 32,
  "RepetitionTime": 2,
  "SAR": 0.0858331,
  "ScanOptions": "FS",
  "ScanningSequence": "EP",
  "SequenceName": "*epfid2d1_100",
  "SequenceVariant": "SK",
  "SeriesDescription": "bold_100x100_s3_2x2x2_static_156",
  "SeriesNumber": 7,
  "ShimSetting": [-5444, -11516, -1230, 507, 35, -190, -117, 18],
  "SliceThickness": 2,
  "SliceTiming": [1.485, 0, 0.99, 0.0825, 1.0725, 0.165, 1.155, 0.2475, 1.2375, 0.33, 1.32, 0.4125, 1.4025, 0.5775, 1.5675, 0.66, 1.65, 0.7425, 1.7325, 0.825, 1.815, 0.9075, 1.8975, 0.495, 1.485, 0, 0.99, 0.0825, 1.0725, 0.165, 1.155, 0.2475, 1.2375, 0.33, 1.32, 0.4125, 1.4025, 0.5775, 1.5675, 0.66, 1.65, 0.7425, 1.7325, 0.825, 1.815, 0.9075, 1.8975, 0.495, 1.485, 0, 0.99, 0.0825, 1.0725, 0.165, 1.155, 0.2475, 1.2375, 0.33, 1.32, 0.4125, 1.4025, 0.5775, 1.5675, 0.66, 1.65, 0.7425, 1.7325, 0.825, 1.815, 0.9075, 1.8975, 0.495],
  "SoftwareVersions": "syngo MR E11",
  "SpacingBetweenSlices": 2,
  "StationName": "AWP166078",
  "TaskName": "action",
  "TotalReadoutTime": 0.0534586,
  "TxRefAmp": 227.505,
  "dcmmeta_affine": [
    [-1.9999998807907104, 7.851598127217585e-08, -0.0005563698359765112, 101.46329498291016],
    [0.00010431757982587442, 1.9645832777023315, -0.3747164011001587, -80.93180084228516],
    [-0.0005465027643367648, 0.3747164011001587, 1.9645832777023315, -77.75297546386719],
    [0.0, 0.0, 0.0, 1.0]
],
  "dcmmeta_reorient_transform": [
    [0.0, -1.0, 0.0, 99.0],
    [1.0, 0.0, 0.0, 0.0],
    [0.0, 0.0, 1.0, 0.0],
    [0.0, 0.0, 0.0, 1.0]
],
  "dcmmeta_shape": [100, 100, 72, 156],
  "dcmmeta_slice_dim": 2,
  "dcmmeta_version": 0.6,
  "global": {
    "const": {
      "AcquisitionMatrix": [100, 0, 0, 100],
      "AngioFlag": "N",
      "BitsAllocated": 16,
      "BitsStored": 12,
      "BodyPartExamined": "BRAIN",
      "Columns": 900,
      "EchoNumbers": 1,
      "EchoTime": 34.0,
      "EchoTrainLength": 100,
      "FlipAngle": 90.0,
      "HighBit": 11,
      "ImageOrientationPatient": [0.99999996130657, -5.21587901e-05, -0.0002732513719, 3.9257991e-08, 0.98229165890162, -0.187358204657],
      "ImagePositionPatient": [-901.46330645827, -899.35355135159, 109.44911334353],
      "ImageType": [
        "ORIGINAL",
        "PRIMARY",
        "M",
        "ND",
        "MOSAIC"
],
      "ImagedNucleus": "1H",
      "ImagingFrequency": 123.257722,
      "InPlanePhaseEncodingDirection": "COL",
      "MRAcquisitionType": "2D",
      "MagneticFieldStrength": 3.0,
      "Manufacturer": "SIEMENS",
      "ManufacturerModelName": "Prisma",
      "Modality": "MR",
      "NumberOfAverages": 1.0,
      "NumberOfPhaseEncodingSteps": 100,
      "PercentPhaseFieldOfView": 100.0,
      "PercentSampling": 100.0,
      "PerformedProcedureStepStartTime": "125823.622000",
      "PhotometricInterpretation": "MONOCHROME2",
      "PixelBandwidth": 2380.0,
      "PixelRepresentation": 0,
      "PixelSpacing": [2.0, 2.0],
      "ProtocolName": "bold_100x100_s3_2x2x2_static_156",
      "RepetitionTime": 2000.0,
      "Rows": 900,
      "SAR": 0.08583313248598,
      "SamplesPerPixel": 1,
      "ScanOptions": "FS",
      "ScanningSequence": "EP",
      "SequenceName": "*epfid2d1_100",
      "SequenceVariant": "SK",
      "SeriesDescription": "bold_100x100_s3_2x2x2_static_156",
      "SeriesNumber": 7,
      "SeriesTime": "132736.582000",
      "SliceLocation": -61.241086750241,
      "SliceThickness": 2.0,
      "SmallestImagePixelValue": 0,
      "SoftwareVersions": "syngo MR E11",
      "SpacingBetweenSlices": 2.0000000338651,
      "SpecificCharacterSet": "ISO_IR 100",
      "StudyID": "1",
      "StudyTime": "125823.466000",
      "TransmitCoilName": "Body",
      "VariableFlipAngleFlag": "N",
      "WindowCenterWidthExplanation": "Algo1",
      "dBdt": 0.0},
    "slices": {}
  },
  "time": {
    "samples": {
      "AcquisitionNumber": [1, 2, 3, 4, 5, 6, 7, 8, 9, 10, 11, 12, 13, 14, 15, 16, 17, 18, 19, 20, 21, 22, 23, 24, 25, 26, 27, 28, 29, 30, 31, 32, 33, 34, 35, 36, 37, 38, 39, 40, 41, 42, 43, 44, 45, 46, 47, 48, 49, 50, 51, 52, 53, 54, 55, 56, 57, 58, 59, 60, 61, 62, 63, 64, 65, 66, 67, 68, 69, 70, 71, 72, 73, 74, 75, 76, 77, 78, 79, 80, 81, 82, 83, 84, 85, 86, 87, 88, 89, 90, 91, 92, 93, 94, 95, 96, 97, 98, 99, 100, 101, 102, 103, 104, 105, 106, 107, 108, 109, 110, 111, 112, 113, 114, 115, 116, 117, 118, 119, 120, 121, 122, 123, 124, 125, 126, 127, 128, 129, 130, 131, 132, 133, 134, 135, 136, 137, 138, 139, 140, 141, 142, 143, 144, 145, 146, 147, 148, 149, 150, 151, 152, 153, 154, 155, 156],
      "AcquisitionTime": ["132734.465000", "132736.465000", "132738.465000", "132740.465000", "132742.465000", "132744.465000", "132746.465000", "132748.465000", "132750.465000", "132752.465000", "132754.465000", "132756.465000", "132758.465000", "132800.465000", "132802.465000", "132804.465000", "132806.465000", "132808.465000", "132810.465000", "132812.465000", "132814.465000", "132816.465000", "132818.465000", "132820.465000", "132822.465000", "132824.465000", "132826.465000", "132828.465000", "132830.465000", "132832.465000", "132834.465000", "132836.465000", "132838.465000", "132840.465000", "132842.465000", "132844.465000", "132846.465000", "132848.465000", "132850.465000", "132852.465000", "132854.465000", "132856.465000", "132858.465000", "132900.465000", "132902.465000", "132904.465000", "132906.465000", "132908.465000", "132910.465000", "132912.465000", "132914.465000", "132916.465000", "132918.465000", "132920.465000", "132922.465000", "132924.465000", "132926.465000", "132928.465000", "132930.465000", "132932.465000", "132934.465000", "132936.465000", "132938.465000", "132940.465000", "132942.465000", "132944.465000", "132946.465000", "132948.465000", "132950.465000", "132952.465000", "132954.465000", "132956.465000", "132958.465000", "133000.465000", "133002.465000", "133004.465000", "133006.465000", "133008.465000", "133010.465000", "133012.465000", "133014.465000", "133016.465000", "133018.465000", "133020.465000", "133022.465000", "133024.465000", "133026.465000", "133028.465000", "133030.465000", "133032.465000", "133034.465000", "133036.465000", "133038.465000", "133040.465000", "133042.465000", "133044.465000", "133046.465000", "133048.465000", "133050.465000", "133052.465000", "133054.465000", "133056.465000", "133058.465000", "133100.465000", "133102.465000", "133104.465000", "133106.465000", "133108.465000", "133110.465000", "133112.465000", "133114.465000", "133116.465000", "133118.465000", "133120.465000", "133122.465000", "133124.465000", "133126.465000", "133128.465000", "133130.465000", "133132.465000", "133134.465000", "133136.465000", "133138.465000", "133140.465000", "133142.465000", "133144.465000", "133146.465000", "133148.465000", "133150.465000", "133152.465000", "133154.465000", "133156.465000", "133158.465000", "133200.465000", "133202.465000", "133204.465000", "133206.465000", "133208.465000", "133210.465000", "133212.465000", "133214.465000", "133216.465000", "133218.465000", "133220.465000", "133222.465000", "133224.465000", "133226.465000", "133228.465000", "133230.465000", "133232.465000", "133234.465000", "133236.465000", "133238.465000", "133240.465000", "133242.465000", "133244.465000"],
      "ContentTime": ["132736.586000", "132738.081000", "132740.582000", "132742.082000", "132744.082000", "132746.082000", "132748.082000", "132750.082000", "132752.083000", "132754.082000", "132756.081000", "132758.082000", "132800.082000", "132802.083000", "132804.082000", "132806.082000", "132808.083000", "132810.082000", "132812.082000", "132814.081000", "132816.082000", "132818.083000", "132820.082000", "132822.582000", "132824.082000", "132826.083000", "132828.083000", "132830.081000", "132832.081000", "132834.082000", "132836.082000", "132838.082000", "132840.082000", "132842.083000", "132844.583000", "132846.082000", "132848.081000", "132850.081000", "132852.082000", "132854.082000", "132856.083000", "132858.082000", "132900.082000", "132902.082000", "132904.082000", "132906.082000", "132908.081000", "132910.582000", "132912.082000", "132914.082000", "132916.082000", "132918.082000", "132920.082000", "132922.582000", "132924.082000", "132926.081000", "132928.082000", "132930.082000", "132932.082000", "132934.582000", "132936.582000", "132938.082000", "132940.081000", "132942.082000", "132944.083000", "132946.082000", "132948.082000", "132950.582000", "132952.082000", "132954.082000", "132956.082000", "132958.081000", "133000.082000", "133002.082000", "133004.083000", "133006.583000", "133008.083000", "133010.082000", "133012.082000", "133014.081000", "133016.082000", "133018.081000", "133020.583000", "133022.082000", "133024.582000", "133026.083000", "133028.082000", "133030.083000", "133032.082000", "133034.582000", "133036.082000", "133038.083000", "133040.082000", "133042.082000", "133044.582000", "133046.082000", "133048.082000", "133050.081000", "133052.081000", "133054.082000", "133056.082000", "133058.083000", "133100.082000", "133102.082000", "133104.083000", "133106.082000", "133108.081000", "133110.081000", "133112.082000", "133114.582000", "133116.082000", "133118.082000", "133120.082000", "133122.082000", "133124.081000", "133126.081000", "133128.081000", "133130.082000", "133132.082000", "133134.082000", "133136.582000", "133138.082000", "133140.082000", "133142.082000", "133144.082000", "133146.081000", "133148.083000", "133150.082000", "133152.083000", "133154.083000", "133156.083000", "133158.082000", "133200.082000", "133202.081000", "133204.082000", "133206.082000", "133208.082000", "133210.083000", "133212.082000", "133214.583000", "133216.581000", "133218.081000", "133220.581000", "133222.082000", "133224.083000", "133226.083000", "133228.082000", "133230.082000", "133232.082000", "133234.082000", "133236.582000", "133238.081000", "133240.082000", "133242.083000", "133244.083000", "133245.968000"],
      "InstanceCreationTime": ["132736.586000", "132738.081000", "132740.582000", "132742.082000", "132744.082000", "132746.082000", "132748.082000", "132750.082000", "132752.083000", "132754.082000", "132756.081000", "132758.082000", "132800.082000", "132802.083000", "132804.082000", "132806.082000", "132808.083000", "132810.082000", "132812.082000", "132814.081000", "132816.082000", "132818.083000", "132820.082000", "132822.582000", "132824.082000", "132826.083000", "132828.083000", "132830.081000", "132832.081000", "132834.082000", "132836.082000", "132838.082000", "132840.082000", "132842.083000", "132844.583000", "132846.082000", "132848.081000", "132850.081000", "132852.082000", "132854.082000", "132856.083000", "132858.082000", "132900.082000", "132902.082000", "132904.082000", "132906.082000", "132908.081000", "132910.582000", "132912.082000", "132914.082000", "132916.082000", "132918.082000", "132920.082000", "132922.582000", "132924.082000", "132926.081000", "132928.082000", "132930.082000", "132932.082000", "132934.582000", "132936.582000", "132938.082000", "132940.081000", "132942.082000", "132944.083000", "132946.082000", "132948.082000", "132950.582000", "132952.082000", "132954.082000", "132956.082000", "132958.081000", "133000.082000", "133002.082000", "133004.083000", "133006.583000", "133008.083000", "133010.082000", "133012.082000", "133014.081000", "133016.082000", "133018.081000", "133020.583000", "133022.082000", "133024.582000", "133026.083000", "133028.082000", "133030.083000", "133032.082000", "133034.582000", "133036.082000", "133038.083000", "133040.082000", "133042.082000", "133044.582000", "133046.082000", "133048.082000", "133050.081000", "133052.081000", "133054.082000", "133056.082000", "133058.083000", "133100.082000", "133102.082000", "133104.083000", "133106.082000", "133108.081000", "133110.081000", "133112.082000", "133114.582000", "133116.082000", "133118.082000", "133120.082000", "133122.082000", "133124.081000", "133126.081000", "133128.081000", "133130.082000", "133132.082000", "133134.082000", "133136.582000", "133138.082000", "133140.082000", "133142.082000", "133144.082000", "133146.081000", "133148.083000", "133150.082000", "133152.083000", "133154.083000", "133156.083000", "133158.082000", "133200.082000", "133202.081000", "133204.082000", "133206.082000", "133208.082000", "133210.083000", "133212.082000", "133214.583000", "133216.581000", "133218.081000", "133220.581000", "133222.082000", "133224.083000", "133226.083000", "133228.082000", "133230.082000", "133232.082000", "133234.082000", "133236.582000", "133238.081000", "133240.082000", "133242.083000", "133244.083000", "133245.968000"],
      "InstanceNumber": [1, 2, 3, 4, 5, 6, 7, 8, 9, 10, 11, 12, 13, 14, 15, 16, 17, 18, 19, 20, 21, 22, 23, 24, 25, 26, 27, 28, 29, 30, 31, 32, 33, 34, 35, 36, 37, 38, 39, 40, 41, 42, 43, 44, 45, 46, 47, 48, 49, 50, 51, 52, 53, 54, 55, 56, 57, 58, 59, 60, 61, 62, 63, 64, 65, 66, 67, 68, 69, 70, 71, 72, 73, 74, 75, 76, 77, 78, 79, 80, 81, 82, 83, 84, 85, 86, 87, 88, 89, 90, 91, 92, 93, 94, 95, 96, 97, 98, 99, 100, 101, 102, 103, 104, 105, 106, 107, 108, 109, 110, 111, 112, 113, 114, 115, 116, 117, 118, 119, 120, 121, 122, 123, 124, 125, 126, 127, 128, 129, 130, 131, 132, 133, 134, 135, 136, 137, 138, 139, 140, 141, 142, 143, 144, 145, 146, 147, 148, 149, 150, 151, 152, 153, 154, 155, 156],
      "LargestImagePixelValue": [3261, 3270, 3240, 3233, 3256, 3260, 3229, 3247, 3239, 3247, 3256, 3246, 3223, 3264, 3251, 3247, 3246, 3240, 3258, 3260, 3269, 3272, 3238, 3254, 3239, 3226, 3217, 3245, 3227, 3234, 3262, 3256, 3259, 3237, 3248, 3262, 3242, 3249, 3238, 3231, 3240, 3263, 3221, 3231, 3248, 3257, 3276, 3264, 3271, 3245, 3214, 3219, 3224, 3219, 3261, 3272, 3262, 3253, 3215, 3222, 3248, 3236, 3234, 3230, 3236, 3257, 3259, 3270, 3244, 3237, 3239, 3227, 3238, 3245, 3248, 3200, 3211, 3226, 3247, 3222, 3219, 3224, 3217, 3205, 3222, 3226, 3233, 3209, 3209, 3236, 3231, 3236, 3222, 3227, 3217, 3224, 3235, 3195, 3225, 3231, 3228, 3251, 3251, 3244, 3270, 3266, 3255, 3259, 3226, 3251, 3265, 3253, 3261, 3232, 3233, 3216, 3214, 3223, 3229, 3208, 3239, 3256, 3231, 3243, 3246, 3225, 3242, 3223, 3223, 3198, 3224, 3228, 3210, 3231, 3227, 3221, 3220, 3220, 3222, 3211, 3210, 3250, 3224, 3228, 3217, 3221, 3214, 3217, 3252, 3242, 3211, 3192, 3198, 3198, 3228, 3204],
      "WindowCenter": [788.0, 786.0, 785.0, 785.0, 785.0, 785.0, 785.0, 786.0, 786.0, 786.0, 785.0, 785.0, 786.0, 786.0, 785.0, 785.0, 785.0, 784.0, 784.0, 784.0, 784.0, 784.0, 784.0, 784.0, 783.0, 783.0, 784.0, 784.0, 783.0, 783.0, 783.0, 783.0, 783.0, 783.0, 783.0, 783.0, 782.0, 783.0, 783.0, 783.0, 783.0, 784.0, 783.0, 783.0, 783.0, 784.0, 784.0, 784.0, 784.0, 783.0, 783.0, 783.0, 783.0, 783.0, 784.0, 784.0, 784.0, 784.0, 784.0, 784.0, 784.0, 783.0, 784.0, 785.0, 785.0, 785.0, 783.0, 782.0, 783.0, 784.0, 783.0, 783.0, 784.0, 784.0, 784.0, 783.0, 783.0, 785.0, 784.0, 783.0, 783.0, 782.0, 782.0, 783.0, 784.0, 784.0, 784.0, 783.0, 782.0, 782.0, 782.0, 782.0, 783.0, 783.0, 783.0, 783.0, 783.0, 783.0, 783.0, 785.0, 786.0, 785.0, 784.0, 783.0, 784.0, 785.0, 784.0, 784.0, 783.0, 784.0, 785.0, 785.0, 784.0, 784.0, 783.0, 783.0, 784.0, 784.0, 783.0, 783.0, 784.0, 786.0, 785.0, 784.0, 782.0, 783.0, 783.0, 783.0, 783.0, 784.0, 783.0, 783.0, 785.0, 785.0, 785.0, 786.0, 786.0, 784.0, 783.0, 784.0, 785.0, 785.0, 785.0, 785.0, 785.0, 784.0, 783.0, 784.0, 784.0, 783.0, 782.0, 782.0, 784.0, 784.0, 783.0, 783.0],
      "WindowWidth": [1695.0, 1688.0, 1686.0, 1686.0, 1687.0, 1687.0, 1687.0, 1689.0, 1690.0, 1688.0, 1688.0, 1687.0, 1688.0, 1689.0, 1687.0, 1686.0, 1686.0, 1685.0, 1684.0, 1683.0, 1684.0, 1684.0, 1685.0, 1685.0, 1682.0, 1681.0, 1684.0, 1683.0, 1682.0, 1681.0, 1682.0, 1683.0, 1682.0, 1681.0, 1682.0, 1682.0, 1680.0, 1681.0, 1682.0, 1682.0, 1682.0, 1683.0, 1681.0, 1681.0, 1683.0, 1684.0, 1684.0, 1684.0, 1684.0, 1681.0, 1681.0, 1681.0, 1681.0, 1683.0, 1684.0, 1685.0, 1685.0, 1684.0, 1684.0, 1684.0, 1684.0, 1683.0, 1684.0, 1687.0, 1688.0, 1686.0, 1681.0, 1679.0, 1682.0, 1684.0, 1683.0, 1683.0, 1684.0, 1685.0, 1684.0, 1682.0, 1683.0, 1686.0, 1685.0, 1683.0, 1681.0, 1679.0, 1680.0, 1681.0, 1684.0, 1684.0, 1685.0, 1682.0, 1679.0, 1677.0, 1677.0, 1680.0, 1681.0, 1682.0, 1682.0, 1683.0, 1681.0, 1681.0, 1683.0, 1688.0, 1688.0, 1688.0, 1684.0, 1682.0, 1684.0, 1686.0, 1685.0, 1683.0, 1683.0, 1685.0, 1688.0, 1687.0, 1685.0, 1684.0, 1682.0, 1682.0, 1684.0, 1684.0, 1683.0, 1681.0, 1684.0, 1690.0, 1687.0, 1685.0, 1680.0, 1680.0, 1683.0, 1682.0, 1683.0, 1683.0, 1682.0, 1683.0, 1685.0, 1686.0, 1686.0, 1688.0, 1689.0, 1684.0, 1682.0, 1684.0, 1686.0, 1687.0, 1687.0, 1687.0, 1686.0, 1684.0, 1682.0, 1685.0, 1685.0, 1682.0, 1679.0, 1680.0, 1682.0, 1683.0, 1681.0, 1680.0]
    },
    "slices": {}
  }
}