{
  "AcquisitionMatrixPE": 100,
  "AcquisitionNumber": 1,
  "AcquisitionTime": "14:12:48.997500",
  "BandwidthPerPixelPhaseEncode": 18.519,
  "BaseResolution": 100,
  "BodyPartExamined": "BRAIN",
  "CoilCombinationMethod": "Sum of Squares",
  "ConsistencyInfo": "N4_VE11C_LATEST_20160120",
  "ConversionSoftware": "dcm2niix",
  "ConversionSoftwareVersion": "v1.0.20211006",
  "DerivedVendorReportedEchoSpacing": 0.000539986,
  "DeviceSerialNumber": "166078",
  "DwellTime": 2.1e-06,
  "EchoTime": 0.034,
  "EchoTrainLength": 100,
  "EffectiveEchoSpacing": 0.000539986,
  "FlipAngle": 90,
  "ImageOrientationPatientDICOM": [1, -5.21588e-05, -0.000273251, 3.9258e-08, 0.982292, -0.187358],
  "ImageOrientationText": "Tra>Cor(-10.8)>Sag(-0.0)",
  "ImageType": [
    "ORIGINAL",
    "PRIMARY",
    "M",
    "ND",
    "MOSAIC"
],
  "ImagingFrequency": 123.258,
  "InPlanePhaseEncodingDirectionDICOM": "COL",
  "InstitutionAddress": "Street StreetNo,Bei Jing,District,CN,ZIP",
  "InstitutionName": "BeiJing Normal University",
  "InstitutionalDepartmentName": "Department",
  "MRAcquisitionType": "2D",
  "MagneticFieldStrength": 3,
  "Manufacturer": "Siemens",
  "ManufacturersModelName": "Prisma",
  "Modality": "MR",
  "MultibandAccelerationFactor": 3,
  "PartialFourier": 1,
  "PatientPosition": "HFS",
  "PercentPhaseFOV": 100,
  "PercentSampling": 100,
  "PhaseEncodingDirection": "j-",
  "PhaseEncodingSteps": 100,
  "PhaseResolution": 1,
  "PixelBandwidth": 2380,
  "ProcedureStepDescription": "BNU_P2018_64CH^Zhen.ZongLei",
  "ProtocolName": "bold_100x100_s3_2x2x2_static_156",
  "PulseSequenceDetails": "%SiemensSeq%\\ep2d_bold",
  "ReceiveCoilActiveElements": "HC1-7;NC1",
  "ReceiveCoilName": "HeadNeck_64",
  "ReconMatrixPE": 100,
  "RefLinesPE": 32,
  "RepetitionTime": 2,
  "SAR": 0.0858331,
  "ScanOptions": "FS",
  "ScanningSequence": "EP",
  "SequenceName": "*epfid2d1_100",
  "SequenceVariant": "SK",
  "SeriesDescription": "bold_100x100_s3_2x2x2_static_156",
  "SeriesNumber": 16,
  "ShimSetting": [-5444, -11516, -1230, 507, 35, -190, -117, 18],
  "SliceThickness": 2,
  "SliceTiming": [1.485, 0, 0.99, 0.0825, 1.0725, 0.165, 1.155, 0.2475, 1.2375, 0.33, 1.32, 0.4125, 1.4025, 0.5775, 1.5675, 0.66, 1.65, 0.7425, 1.7325, 0.825, 1.815, 0.9075, 1.8975, 0.495, 1.485, 0, 0.99, 0.0825, 1.0725, 0.165, 1.155, 0.2475, 1.2375, 0.33, 1.32, 0.4125, 1.4025, 0.5775, 1.5675, 0.66, 1.65, 0.7425, 1.7325, 0.825, 1.815, 0.9075, 1.8975, 0.495, 1.485, 0, 0.99, 0.0825, 1.0725, 0.165, 1.155, 0.2475, 1.2375, 0.33, 1.32, 0.4125, 1.4025, 0.5775, 1.5675, 0.66, 1.65, 0.7425, 1.7325, 0.825, 1.815, 0.9075, 1.8975, 0.495],
  "SoftwareVersions": "syngo MR E11",
  "SpacingBetweenSlices": 2,
  "StationName": "AWP166078",
  "TaskName": "action",
  "TotalReadoutTime": 0.0534586,
  "TxRefAmp": 227.505,
  "dcmmeta_affine": [
    [-1.9999998807907104, 7.851598127217585e-08, -0.0005563698359765112, 101.46329498291016],
    [0.00010431757982587442, 1.9645832777023315, -0.3747164011001587, -80.93180084228516],
    [-0.0005465027643367648, 0.3747164011001587, 1.9645832777023315, -77.75297546386719],
    [0.0, 0.0, 0.0, 1.0]
],
  "dcmmeta_reorient_transform": [
    [0.0, -1.0, 0.0, 99.0],
    [1.0, 0.0, 0.0, 0.0],
    [0.0, 0.0, 1.0, 0.0],
    [0.0, 0.0, 0.0, 1.0]
],
  "dcmmeta_shape": [100, 100, 72, 156],
  "dcmmeta_slice_dim": 2,
  "dcmmeta_version": 0.6,
  "global": {
    "const": {
      "AcquisitionMatrix": [100, 0, 0, 100],
      "AngioFlag": "N",
      "BitsAllocated": 16,
      "BitsStored": 12,
      "BodyPartExamined": "BRAIN",
      "Columns": 900,
      "EchoNumbers": 1,
      "EchoTime": 34.0,
      "EchoTrainLength": 100,
      "FlipAngle": 90.0,
      "HighBit": 11,
      "ImageOrientationPatient": [0.99999996130657, -5.21587901e-05, -0.0002732513719, 3.9257991e-08, 0.98229165890162, -0.187358204657],
      "ImagePositionPatient": [-901.46330645827, -899.35355135159, 109.44911334353],
      "ImageType": [
        "ORIGINAL",
        "PRIMARY",
        "M",
        "ND",
        "MOSAIC"
],
      "ImagedNucleus": "1H",
      "ImagingFrequency": 123.257736,
      "InPlanePhaseEncodingDirection": "COL",
      "MRAcquisitionType": "2D",
      "MagneticFieldStrength": 3.0,
      "Manufacturer": "SIEMENS",
      "ManufacturerModelName": "Prisma",
      "Modality": "MR",
      "NumberOfAverages": 1.0,
      "NumberOfPhaseEncodingSteps": 100,
      "PercentPhaseFieldOfView": 100.0,
      "PercentSampling": 100.0,
      "PerformedProcedureStepStartTime": "125823.622000",
      "PhotometricInterpretation": "MONOCHROME2",
      "PixelBandwidth": 2380.0,
      "PixelRepresentation": 0,
      "PixelSpacing": [2.0, 2.0],
      "ProtocolName": "bold_100x100_s3_2x2x2_static_156",
      "RepetitionTime": 2000.0,
      "Rows": 900,
      "SAR": 0.08583313248598,
      "SamplesPerPixel": 1,
      "ScanOptions": "FS",
      "ScanningSequence": "EP",
      "SequenceName": "*epfid2d1_100",
      "SequenceVariant": "SK",
      "SeriesDescription": "bold_100x100_s3_2x2x2_static_156",
      "SeriesNumber": 16,
      "SeriesTime": "141251.051000",
      "SliceLocation": -61.241086750241,
      "SliceThickness": 2.0,
      "SmallestImagePixelValue": 0,
      "SoftwareVersions": "syngo MR E11",
      "SpacingBetweenSlices": 2.0000000338651,
      "SpecificCharacterSet": "ISO_IR 100",
      "StudyID": "1",
      "StudyTime": "125823.466000",
      "TransmitCoilName": "Body",
      "VariableFlipAngleFlag": "N",
      "WindowCenterWidthExplanation": "Algo1",
      "dBdt": 0.0},
    "slices": {}
  },
  "time": {
    "samples": {
      "AcquisitionNumber": [1, 2, 3, 4, 5, 6, 7, 8, 9, 10, 11, 12, 13, 14, 15, 16, 17, 18, 19, 20, 21, 22, 23, 24, 25, 26, 27, 28, 29, 30, 31, 32, 33, 34, 35, 36, 37, 38, 39, 40, 41, 42, 43, 44, 45, 46, 47, 48, 49, 50, 51, 52, 53, 54, 55, 56, 57, 58, 59, 60, 61, 62, 63, 64, 65, 66, 67, 68, 69, 70, 71, 72, 73, 74, 75, 76, 77, 78, 79, 80, 81, 82, 83, 84, 85, 86, 87, 88, 89, 90, 91, 92, 93, 94, 95, 96, 97, 98, 99, 100, 101, 102, 103, 104, 105, 106, 107, 108, 109, 110, 111, 112, 113, 114, 115, 116, 117, 118, 119, 120, 121, 122, 123, 124, 125, 126, 127, 128, 129, 130, 131, 132, 133, 134, 135, 136, 137, 138, 139, 140, 141, 142, 143, 144, 145, 146, 147, 148, 149, 150, 151, 152, 153, 154, 155, 156],
      "AcquisitionTime": ["141248.997500", "141250.997500", "141252.997500", "141254.997500", "141256.997500", "141258.997500", "141300.997500", "141302.997500", "141304.997500", "141306.997500", "141308.997500", "141310.997500", "141312.997500", "141314.997500", "141316.997500", "141318.997500", "141320.997500", "141322.997500", "141324.997500", "141326.997500", "141328.997500", "141330.997500", "141332.997500", "141334.997500", "141336.997500", "141338.997500", "141340.997500", "141342.997500", "141344.997500", "141346.997500", "141348.997500", "141350.997500", "141352.997500", "141354.997500", "141356.997500", "141358.997500", "141400.997500", "141402.997500", "141404.997500", "141406.997500", "141408.997500", "141410.997500", "141412.997500", "141414.997500", "141416.997500", "141418.997500", "141420.997500", "141422.997500", "141424.997500", "141426.997500", "141428.997500", "141430.997500", "141432.997500", "141434.997500", "141436.997500", "141438.997500", "141440.997500", "141442.997500", "141444.997500", "141446.997500", "141448.997500", "141450.997500", "141452.997500", "141454.997500", "141456.997500", "141458.997500", "141500.997500", "141502.997500", "141504.997500", "141506.997500", "141508.997500", "141510.997500", "141512.997500", "141514.997500", "141516.997500", "141518.997500", "141520.997500", "141522.997500", "141524.997500", "141526.997500", "141528.997500", "141530.997500", "141532.997500", "141534.997500", "141536.997500", "141538.997500", "141540.997500", "141542.997500", "141544.997500", "141546.997500", "141548.997500", "141550.997500", "141552.997500", "141554.997500", "141556.997500", "141558.997500", "141600.997500", "141602.997500", "141604.997500", "141606.997500", "141608.997500", "141610.997500", "141612.997500", "141614.997500", "141616.997500", "141618.997500", "141620.997500", "141622.997500", "141624.997500", "141626.997500", "141628.997500", "141630.997500", "141632.997500", "141634.997500", "141636.997500", "141638.997500", "141640.997500", "141642.997500", "141644.997500", "141646.997500", "141648.997500", "141650.997500", "141652.997500", "141654.997500", "141656.997500", "141658.997500", "141700.997500", "141702.997500", "141704.997500", "141706.997500", "141708.997500", "141710.997500", "141712.997500", "141714.997500", "141716.997500", "141718.997500", "141720.997500", "141722.997500", "141724.997500", "141726.997500", "141728.997500", "141730.997500", "141732.997500", "141734.997500", "141736.997500", "141738.997500", "141740.997500", "141742.997500", "141744.997500", "141746.997500", "141748.997500", "141750.997500", "141752.997500", "141754.997500", "141756.997500", "141758.997500"],
      "ContentTime": ["141251.055000", "141252.552000", "141254.551000", "141256.551000", "141259.051000", "141300.550000", "141302.550000", "141304.550000", "141306.550000", "141309.051000", "141310.551000", "141312.551000", "141314.551000", "141316.550000", "141318.550000", "141320.551000", "141322.550000", "141324.550000", "141327.052000", "141328.551000", "141330.551000", "141332.551000", "141334.551000", "141336.551000", "141339.050000", "141341.050000", "141342.551000", "141344.551000", "141346.551000", "141349.052000", "141350.550000", "141352.550000", "141355.050000", "141356.551000", "141358.551000", "141400.551000", "141402.551000", "141404.551000", "141406.552000", "141408.550000", "141411.051000", "141412.551000", "141414.550000", "141416.550000", "141418.551000", "141421.052000", "141423.052000", "141424.552000", "141426.550000", "141428.550000", "141430.550000", "141433.051000", "141434.550000", "141436.551000", "141439.052000", "141440.552000", "141443.051000", "141444.550000", "141446.551000", "141448.550000", "141450.550000", "141452.550000", "141454.551000", "141456.551000", "141458.551000", "141500.551000", "141502.551000", "141504.551000", "141506.551000", "141508.551000", "141510.550000", "141512.552000", "141514.552000", "141516.551000", "141518.550000", "141520.550000", "141522.551000", "141525.051000", "141526.550000", "141528.550000", "141530.551000", "141532.552000", "141534.551000", "141536.550000", "141539.050000", "141540.550000", "141542.550000", "141544.551000", "141546.552000", "141548.551000", "141550.552000", "141552.552000", "141554.550000", "141557.051000", "141558.550000", "141600.550000", "141603.051000", "141604.552000", "141606.551000", "141609.052000", "141611.051000", "141612.551000", "141614.550000", "141617.050000", "141618.550000", "141620.551000", "141622.552000", "141624.551000", "141627.051000", "141628.550000", "141630.551000", "141632.550000", "141635.050000", "141636.551000", "141638.550000", "141641.052000", "141642.551000", "141644.551000", "141646.550000", "141648.550000", "141650.550000", "141652.550000", "141655.050000", "141656.551000", "141659.051000", "141700.552000", "141702.551000", "141705.051000", "141706.550000", "141708.550000", "141710.551000", "141712.551000", "141714.552000", "141716.552000", "141718.552000", "141721.050000", "141723.050000", "141724.551000", "141726.551000", "141728.550000", "141730.550000", "141732.551000", "141734.552000", "141737.051000", "141739.050000", "141741.051000", "141742.551000", "141744.550000", "141747.051000", "141748.550000", "141751.052000", "141752.552000", "141754.552000", "141756.551000", "141758.550000", "141800.450000"],
      "InstanceCreationTime": ["141251.055000", "141252.552000", "141254.551000", "141256.551000", "141259.051000", "141300.550000", "141302.550000", "141304.550000", "141306.550000", "141309.051000", "141310.551000", "141312.551000", "141314.551000", "141316.550000", "141318.550000", "141320.551000", "141322.550000", "141324.550000", "141327.052000", "141328.551000", "141330.551000", "141332.551000", "141334.551000", "141336.551000", "141339.050000", "141341.050000", "141342.551000", "141344.551000", "141346.551000", "141349.052000", "141350.550000", "141352.550000", "141355.050000", "141356.551000", "141358.551000", "141400.551000", "141402.551000", "141404.551000", "141406.552000", "141408.550000", "141411.051000", "141412.551000", "141414.550000", "141416.550000", "141418.551000", "141421.052000", "141423.052000", "141424.552000", "141426.550000", "141428.550000", "141430.550000", "141433.051000", "141434.550000", "141436.551000", "141439.052000", "141440.552000", "141443.051000", "141444.550000", "141446.551000", "141448.550000", "141450.550000", "141452.550000", "141454.551000", "141456.551000", "141458.551000", "141500.551000", "141502.551000", "141504.551000", "141506.551000", "141508.551000", "141510.550000", "141512.552000", "141514.552000", "141516.551000", "141518.550000", "141520.550000", "141522.551000", "141525.051000", "141526.550000", "141528.550000", "141530.551000", "141532.552000", "141534.551000", "141536.550000", "141539.050000", "141540.550000", "141542.550000", "141544.551000", "141546.552000", "141548.551000", "141550.552000", "141552.552000", "141554.550000", "141557.051000", "141558.550000", "141600.550000", "141603.051000", "141604.552000", "141606.551000", "141609.052000", "141611.051000", "141612.551000", "141614.550000", "141617.050000", "141618.550000", "141620.551000", "141622.552000", "141624.551000", "141627.051000", "141628.550000", "141630.551000", "141632.550000", "141635.050000", "141636.551000", "141638.550000", "141641.052000", "141642.551000", "141644.551000", "141646.550000", "141648.550000", "141650.550000", "141652.550000", "141655.050000", "141656.551000", "141659.051000", "141700.552000", "141702.551000", "141705.051000", "141706.550000", "141708.550000", "141710.551000", "141712.551000", "141714.552000", "141716.552000", "141718.552000", "141721.050000", "141723.050000", "141724.551000", "141726.551000", "141728.550000", "141730.550000", "141732.551000", "141734.552000", "141737.051000", "141739.050000", "141741.051000", "141742.551000", "141744.550000", "141747.051000", "141748.550000", "141751.052000", "141752.552000", "141754.552000", "141756.551000", "141758.550000", "141800.450000"],
      "InstanceNumber": [1, 2, 3, 4, 5, 6, 7, 8, 9, 10, 11, 12, 13, 14, 15, 16, 17, 18, 19, 20, 21, 22, 23, 24, 25, 26, 27, 28, 29, 30, 31, 32, 33, 34, 35, 36, 37, 38, 39, 40, 41, 42, 43, 44, 45, 46, 47, 48, 49, 50, 51, 52, 53, 54, 55, 56, 57, 58, 59, 60, 61, 62, 63, 64, 65, 66, 67, 68, 69, 70, 71, 72, 73, 74, 75, 76, 77, 78, 79, 80, 81, 82, 83, 84, 85, 86, 87, 88, 89, 90, 91, 92, 93, 94, 95, 96, 97, 98, 99, 100, 101, 102, 103, 104, 105, 106, 107, 108, 109, 110, 111, 112, 113, 114, 115, 116, 117, 118, 119, 120, 121, 122, 123, 124, 125, 126, 127, 128, 129, 130, 131, 132, 133, 134, 135, 136, 137, 138, 139, 140, 141, 142, 143, 144, 145, 146, 147, 148, 149, 150, 151, 152, 153, 154, 155, 156],
      "LargestImagePixelValue": [3041, 2974, 2986, 2995, 2979, 2990, 2997, 3006, 3015, 3008, 3023, 3038, 3044, 3058, 3067, 3037, 3026, 3027, 3011, 3010, 3004, 3049, 3023, 3018, 3020, 3027, 3011, 3011, 3009, 2995, 3000, 2988, 3006, 3015, 3079, 3050, 3041, 3011, 3019, 3024, 3044, 3029, 3004, 2980, 2990, 3022, 3026, 3003, 3018, 3023, 3026, 3052, 3041, 2995, 2987, 2983, 2990, 3020, 3021, 3039, 3012, 3010, 2984, 3009, 3017, 3005, 2959, 2960, 2947, 3005, 3016, 3018, 3037, 3034, 2992, 2987, 3033, 2978, 2970, 2953, 2955, 2998, 2979, 3006, 2999, 3013, 3013, 3017, 3024, 3029, 2990, 2981, 2977, 2978, 2972, 3001, 3015, 3045, 3037, 3011, 3047, 3017, 2983, 2969, 2999, 3015, 2990, 2996, 3014, 3047, 3009, 3012, 3019, 3000, 2999, 3023, 3011, 3019, 2999, 3025, 3032, 3033, 3012, 3003, 3031, 3012, 2992, 2984, 3004, 3014, 3034, 3025, 3076, 3046, 3028, 2965, 3012, 2982, 2964, 2961, 2985, 2949, 2986, 2971, 2979, 3030, 3003, 3012, 3003, 2990, 2986, 2975, 2934, 2952, 2965, 2942],
      "WindowCenter": [782.0, 779.0, 779.0, 780.0, 781.0, 781.0, 780.0, 780.0, 780.0, 781.0, 782.0, 781.0, 781.0, 781.0, 781.0, 782.0, 782.0, 782.0, 781.0, 780.0, 782.0, 783.0, 782.0, 781.0, 780.0, 780.0, 781.0, 780.0, 780.0, 780.0, 779.0, 780.0, 781.0, 781.0, 782.0, 782.0, 782.0, 781.0, 782.0, 782.0, 783.0, 783.0, 781.0, 780.0, 781.0, 781.0, 781.0, 780.0, 781.0, 781.0, 780.0, 780.0, 780.0, 779.0, 778.0, 778.0, 781.0, 782.0, 781.0, 780.0, 779.0, 779.0, 781.0, 782.0, 781.0, 780.0, 779.0, 780.0, 781.0, 782.0, 783.0, 782.0, 783.0, 783.0, 783.0, 782.0, 781.0, 780.0, 780.0, 781.0, 782.0, 781.0, 779.0, 780.0, 780.0, 780.0, 781.0, 781.0, 781.0, 782.0, 782.0, 782.0, 781.0, 780.0, 779.0, 779.0, 780.0, 780.0, 780.0, 780.0, 780.0, 779.0, 778.0, 778.0, 779.0, 781.0, 781.0, 780.0, 781.0, 781.0, 781.0, 780.0, 780.0, 780.0, 781.0, 781.0, 781.0, 781.0, 781.0, 781.0, 782.0, 782.0, 782.0, 782.0, 782.0, 781.0, 780.0, 780.0, 781.0, 781.0, 781.0, 782.0, 783.0, 781.0, 781.0, 780.0, 780.0, 779.0, 779.0, 780.0, 780.0, 778.0, 777.0, 778.0, 780.0, 782.0, 782.0, 782.0, 781.0, 781.0, 781.0, 781.0, 781.0, 780.0, 782.0, 783.0],
      "WindowWidth": [1678.0, 1668.0, 1668.0, 1671.0, 1673.0, 1674.0, 1671.0, 1670.0, 1671.0, 1674.0, 1676.0, 1675.0, 1674.0, 1674.0, 1675.0, 1675.0, 1677.0, 1676.0, 1672.0, 1670.0, 1675.0, 1680.0, 1677.0, 1673.0, 1671.0, 1671.0, 1673.0, 1672.0, 1671.0, 1670.0, 1669.0, 1672.0, 1673.0, 1674.0, 1677.0, 1677.0, 1676.0, 1675.0, 1677.0, 1677.0, 1679.0, 1679.0, 1674.0, 1672.0, 1674.0, 1674.0, 1674.0, 1672.0, 1674.0, 1673.0, 1671.0, 1671.0, 1671.0, 1669.0, 1666.0, 1667.0, 1673.0, 1675.0, 1673.0, 1670.0, 1669.0, 1670.0, 1674.0, 1676.0, 1674.0, 1670.0, 1668.0, 1670.0, 1674.0, 1677.0, 1678.0, 1677.0, 1678.0, 1679.0, 1678.0, 1675.0, 1674.0, 1670.0, 1672.0, 1674.0, 1675.0, 1673.0, 1669.0, 1672.0, 1671.0, 1672.0, 1674.0, 1675.0, 1675.0, 1675.0, 1675.0, 1676.0, 1674.0, 1670.0, 1668.0, 1669.0, 1671.0, 1672.0, 1671.0, 1671.0, 1671.0, 1670.0, 1666.0, 1665.0, 1670.0, 1672.0, 1674.0, 1672.0, 1672.0, 1674.0, 1674.0, 1671.0, 1671.0, 1671.0, 1673.0, 1673.0, 1675.0, 1674.0, 1674.0, 1674.0, 1676.0, 1677.0, 1678.0, 1675.0, 1676.0, 1674.0, 1671.0, 1671.0, 1673.0, 1675.0, 1675.0, 1676.0, 1678.0, 1675.0, 1673.0, 1670.0, 1670.0, 1669.0, 1668.0, 1672.0, 1671.0, 1665.0, 1664.0, 1667.0, 1671.0, 1676.0, 1676.0, 1676.0, 1674.0, 1673.0, 1673.0, 1674.0, 1673.0, 1672.0, 1676.0, 1679.0]
    },
    "slices": {}
  }
}