{
  "AcquisitionMatrixPE": 100,
  "AcquisitionNumber": 1,
  "AcquisitionTime": "16:27:3.712500",
  "BandwidthPerPixelPhaseEncode": 18.519,
  "BaseResolution": 100,
  "BodyPartExamined": "BRAIN",
  "CoilCombinationMethod": "Sum of Squares",
  "ConsistencyInfo": "N4_VE11C_LATEST_20160120",
  "ConversionSoftware": "dcm2niix",
  "ConversionSoftwareVersion": "v1.0.20211006",
  "DerivedVendorReportedEchoSpacing": 0.000539986,
  "DeviceSerialNumber": "166078",
  "DwellTime": 2.1e-06,
  "EchoTime": 0.034,
  "EchoTrainLength": 100,
  "EffectiveEchoSpacing": 0.000539986,
  "FlipAngle": 90,
  "ImageOrientationPatientDICOM": [0.998719, 0.00739073, 0.0500502, 4.41772e-08, 0.989272, -0.146083],
  "ImageOrientationText": "Tra>Cor(-8.4)>Sag(2.9)",
  "ImageType": [
    "ORIGINAL",
    "PRIMARY",
    "M",
    "ND",
    "MOSAIC"
],
  "ImagingFrequency": 123.258,
  "InPlanePhaseEncodingDirectionDICOM": "COL",
  "InstitutionAddress": "Street StreetNo,Bei Jing,District,CN,ZIP",
  "InstitutionName": "BeiJing Normal University",
  "InstitutionalDepartmentName": "Department",
  "MRAcquisitionType": "2D",
  "MagneticFieldStrength": 3,
  "Manufacturer": "Siemens",
  "ManufacturersModelName": "Prisma",
  "Modality": "MR",
  "MultibandAccelerationFactor": 3,
  "PartialFourier": 1,
  "PatientPosition": "HFS",
  "PercentPhaseFOV": 100,
  "PercentSampling": 100,
  "PhaseEncodingDirection": "j-",
  "PhaseEncodingSteps": 100,
  "PhaseResolution": 1,
  "PixelBandwidth": 2380,
  "ProcedureStepDescription": "BNU_P2018_64CH^Zhen.ZongLei",
  "ProtocolName": "bold_100x100_s3_2x2x2_static_156",
  "PulseSequenceDetails": "%SiemensSeq%\\ep2d_bold",
  "ReceiveCoilActiveElements": "HC1-7;NC1",
  "ReceiveCoilName": "HeadNeck_64",
  "ReconMatrixPE": 100,
  "RefLinesPE": 32,
  "RepetitionTime": 2,
  "SAR": 0.0751495,
  "ScanOptions": "FS",
  "ScanningSequence": "EP",
  "SequenceName": "*epfid2d1_100",
  "SequenceVariant": "SK",
  "SeriesDescription": "bold_100x100_s3_2x2x2_static_156",
  "SeriesNumber": 11,
  "ShimSetting": [-5439, -11468, -1230, 312, 30, -224, -199, 26],
  "SliceThickness": 2,
  "SliceTiming": [1.485, 0, 0.99, 0.0825, 1.0725, 0.165, 1.155, 0.2475, 1.2375, 0.33, 1.32, 0.4125, 1.4025, 0.5775, 1.5675, 0.66, 1.65, 0.7425, 1.7325, 0.825, 1.815, 0.9075, 1.8975, 0.495, 1.485, 0, 0.99, 0.0825, 1.0725, 0.165, 1.155, 0.2475, 1.2375, 0.33, 1.32, 0.4125, 1.4025, 0.5775, 1.5675, 0.66, 1.65, 0.7425, 1.7325, 0.825, 1.815, 0.9075, 1.8975, 0.495, 1.485, 0, 0.99, 0.0825, 1.0725, 0.165, 1.155, 0.2475, 1.2375, 0.33, 1.32, 0.4125, 1.4025, 0.5775, 1.5675, 0.66, 1.65, 0.7425, 1.7325, 0.825, 1.815, 0.9075, 1.8975, 0.495],
  "SoftwareVersions": "syngo MR E11",
  "SpacingBetweenSlices": 2,
  "StationName": "AWP166078",
  "TaskName": "action",
  "TotalReadoutTime": 0.0534586,
  "TxRefAmp": 220.202,
  "dcmmeta_affine": [
    [-1.997438669204712, 8.835445441945922e-08, 0.1011858731508255, 94.16480255126953],
    [-0.014781450852751732, 1.9785447120666504, -0.2917918860912323, -81.85152435302734],
    [0.10010039806365967, 0.2921660542488098, 1.9760109186172485, -83.07733154296875],
    [0.0, 0.0, 0.0, 1.0]
],
  "dcmmeta_reorient_transform": [
    [0.0, -1.0, 0.0, 99.0],
    [1.0, 0.0, 0.0, 0.0],
    [0.0, 0.0, 1.0, 0.0],
    [0.0, 0.0, 0.0, 1.0]
],
  "dcmmeta_shape": [100, 100, 72, 156],
  "dcmmeta_slice_dim": 2,
  "dcmmeta_version": 0.6,
  "global": {
    "const": {
      "AcquisitionMatrix": [100, 0, 0, 100],
      "AngioFlag": "N",
      "BitsAllocated": 16,
      "BitsStored": 12,
      "BodyPartExamined": "BRAIN",
      "Columns": 900,
      "EchoNumbers": 1,
      "EchoTime": 34.0,
      "EchoTrainLength": 100,
      "FlipAngle": 90.0,
      "HighBit": 11,
      "ImageOrientationPatient": [0.99871935741091, 0.00739072549041, 0.05005019789637, 4.4177226e-08, 0.9892723333095, -0.1460830262158],
      "ImagePositionPatient": [-893.14033481189, -911.35484141327, 22.673369492625],
      "ImageType": [
        "ORIGINAL",
        "PRIMARY",
        "M",
        "ND",
        "MOSAIC"
],
      "ImagedNucleus": "1H",
      "ImagingFrequency": 123.257753,
      "InPlanePhaseEncodingDirection": "COL",
      "MRAcquisitionType": "2D",
      "MagneticFieldStrength": 3.0,
      "Manufacturer": "SIEMENS",
      "ManufacturerModelName": "Prisma",
      "Modality": "MR",
      "NumberOfAverages": 1.0,
      "NumberOfPhaseEncodingSteps": 100,
      "PercentPhaseFieldOfView": 100.0,
      "PercentSampling": 100.0,
      "PerformedProcedureStepStartTime": "154455.926000",
      "PhotometricInterpretation": "MONOCHROME2",
      "PixelBandwidth": 2380.0,
      "PixelRepresentation": 0,
      "PixelSpacing": [2.0, 2.0],
      "ProtocolName": "bold_100x100_s3_2x2x2_static_156",
      "RepetitionTime": 2000.0,
      "Rows": 900,
      "SAR": 0.0751495203387,
      "SamplesPerPixel": 1,
      "ScanOptions": "FS",
      "ScanningSequence": "EP",
      "SequenceName": "*epfid2d1_100",
      "SequenceVariant": "SK",
      "SeriesDescription": "bold_100x100_s3_2x2x2_static_156",
      "SeriesNumber": 11,
      "SeriesTime": "162705.925000",
      "SliceLocation": -65.374975221812,
      "SliceThickness": 2.0,
      "SmallestImagePixelValue": 0,
      "SoftwareVersions": "syngo MR E11",
      "SpacingBetweenSlices": 2.0000000150843,
      "SpecificCharacterSet": "ISO_IR 100",
      "StudyID": "1",
      "StudyTime": "154455.846000",
      "TransmitCoilName": "Body",
      "VariableFlipAngleFlag": "N",
      "WindowCenterWidthExplanation": "Algo1",
      "dBdt": 0.0},
    "slices": {}
  },
  "time": {
    "samples": {
      "AcquisitionNumber": [1, 2, 3, 4, 5, 6, 7, 8, 9, 10, 11, 12, 13, 14, 15, 16, 17, 18, 19, 20, 21, 22, 23, 24, 25, 26, 27, 28, 29, 30, 31, 32, 33, 34, 35, 36, 37, 38, 39, 40, 41, 42, 43, 44, 45, 46, 47, 48, 49, 50, 51, 52, 53, 54, 55, 56, 57, 58, 59, 60, 61, 62, 63, 64, 65, 66, 67, 68, 69, 70, 71, 72, 73, 74, 75, 76, 77, 78, 79, 80, 81, 82, 83, 84, 85, 86, 87, 88, 89, 90, 91, 92, 93, 94, 95, 96, 97, 98, 99, 100, 101, 102, 103, 104, 105, 106, 107, 108, 109, 110, 111, 112, 113, 114, 115, 116, 117, 118, 119, 120, 121, 122, 123, 124, 125, 126, 127, 128, 129, 130, 131, 132, 133, 134, 135, 136, 137, 138, 139, 140, 141, 142, 143, 144, 145, 146, 147, 148, 149, 150, 151, 152, 153, 154, 155, 156],
      "AcquisitionTime": ["162703.712500", "162705.712500", "162707.712500", "162709.712500", "162711.712500", "162713.712500", "162715.712500", "162717.712500", "162719.712500", "162721.712500", "162723.712500", "162725.712500", "162727.712500", "162729.712500", "162731.712500", "162733.712500", "162735.712500", "162737.712500", "162739.712500", "162741.712500", "162743.712500", "162745.712500", "162747.712500", "162749.712500", "162751.712500", "162753.712500", "162755.712500", "162757.712500", "162759.712500", "162801.712500", "162803.712500", "162805.712500", "162807.712500", "162809.712500", "162811.712500", "162813.712500", "162815.712500", "162817.712500", "162819.712500", "162821.712500", "162823.712500", "162825.712500", "162827.712500", "162829.712500", "162831.712500", "162833.712500", "162835.712500", "162837.712500", "162839.712500", "162841.712500", "162843.712500", "162845.712500", "162847.712500", "162849.712500", "162851.712500", "162853.712500", "162855.712500", "162857.712500", "162859.712500", "162901.712500", "162903.712500", "162905.712500", "162907.712500", "162909.712500", "162911.712500", "162913.712500", "162915.712500", "162917.712500", "162919.712500", "162921.712500", "162923.712500", "162925.712500", "162927.712500", "162929.712500", "162931.712500", "162933.712500", "162935.712500", "162937.712500", "162939.712500", "162941.712500", "162943.712500", "162945.712500", "162947.712500", "162949.712500", "162951.712500", "162953.712500", "162955.712500", "162957.712500", "162959.712500", "163001.712500", "163003.712500", "163005.712500", "163007.712500", "163009.712500", "163011.712500", "163013.712500", "163015.712500", "163017.712500", "163019.712500", "163021.712500", "163023.712500", "163025.712500", "163027.712500", "163029.712500", "163031.712500", "163033.712500", "163035.712500", "163037.712500", "163039.712500", "163041.712500", "163043.712500", "163045.712500", "163047.712500", "163049.712500", "163051.712500", "163053.712500", "163055.712500", "163057.712500", "163059.712500", "163101.712500", "163103.712500", "163105.712500", "163107.712500", "163109.712500", "163111.712500", "163113.712500", "163115.712500", "163117.712500", "163119.712500", "163121.712500", "163123.712500", "163125.712500", "163127.712500", "163129.712500", "163131.712500", "163133.712500", "163135.712500", "163137.712500", "163139.712500", "163141.712500", "163143.712500", "163145.712500", "163147.712500", "163149.712500", "163151.712500", "163153.712500", "163155.712500", "163157.712500", "163159.712500", "163201.712500", "163203.712500", "163205.712500", "163207.712500", "163209.712500", "163211.712500", "163213.712500"],
      "ContentTime": ["162705.929000", "162707.424000", "162709.425000", "162711.424000", "162713.424000", "162715.425000", "162717.426000", "162719.426000", "162721.426000", "162723.425000", "162725.424000", "162727.424000", "162729.425000", "162731.425000", "162733.425000", "162735.425000", "162737.426000", "162739.425000", "162741.424000", "162743.425000", "162745.425000", "162747.425000", "162749.425000", "162751.425000", "162753.425000", "162755.426000", "162757.425000", "162759.424000", "162801.424000", "162803.425000", "162805.425000", "162807.424000", "162809.425000", "162811.426000", "162813.426000", "162815.425000", "162817.424000", "162819.425000", "162821.424000", "162823.425000", "162825.425000", "162827.425000", "162829.425000", "162831.426000", "162833.424000", "162835.425000", "162837.425000", "162839.425000", "162841.425000", "162843.426000", "162845.426000", "162847.426000", "162849.425000", "162851.425000", "162853.425000", "162855.425000", "162857.425000", "162859.425000", "162901.426000", "162903.425000", "162905.425000", "162907.424000", "162909.425000", "162911.424000", "162913.424000", "162915.425000", "162917.425000", "162919.426000", "162921.426000", "162923.426000", "162925.425000", "162927.425000", "162929.424000", "162931.425000", "162933.424000", "162935.425000", "162937.425000", "162939.425000", "162941.425000", "162943.425000", "162945.425000", "162947.425000", "162949.425000", "162951.425000", "162953.426000", "162955.425000", "162957.426000", "162959.425000", "163001.425000", "163003.425000", "163005.425000", "163007.424000", "163009.425000", "163011.426000", "163013.426000", "163015.426000", "163017.425000", "163019.424000", "163021.425000", "163023.425000", "163025.425000", "163027.424000", "163029.426000", "163031.426000", "163033.426000", "163035.425000", "163037.424000", "163039.425000", "163041.425000", "163043.425000", "163045.426000", "163047.426000", "163049.426000", "163051.425000", "163053.425000", "163055.424000", "163057.425000", "163059.425000", "163101.424000", "163103.425000", "163105.425000", "163107.426000", "163109.425000", "163111.425000", "163113.424000", "163115.425000", "163117.425000", "163119.425000", "163121.426000", "163123.426000", "163125.426000", "163127.425000", "163129.425000", "163131.425000", "163133.425000", "163135.424000", "163137.425000", "163139.426000", "163141.426000", "163143.426000", "163145.424000", "163147.425000", "163149.425000", "163151.425000", "163153.425000", "163155.425000", "163157.426000", "163159.426000", "163201.426000", "163203.425000", "163205.424000", "163207.425000", "163209.425000", "163211.425000", "163213.426000", "163215.225000"],
      "InstanceCreationTime": ["162705.929000", "162707.424000", "162709.425000", "162711.424000", "162713.424000", "162715.425000", "162717.426000", "162719.426000", "162721.426000", "162723.425000", "162725.424000", "162727.424000", "162729.425000", "162731.425000", "162733.425000", "162735.425000", "162737.426000", "162739.425000", "162741.424000", "162743.425000", "162745.425000", "162747.425000", "162749.425000", "162751.425000", "162753.425000", "162755.426000", "162757.425000", "162759.424000", "162801.424000", "162803.425000", "162805.425000", "162807.424000", "162809.425000", "162811.426000", "162813.426000", "162815.425000", "162817.424000", "162819.425000", "162821.424000", "162823.425000", "162825.425000", "162827.425000", "162829.425000", "162831.426000", "162833.424000", "162835.425000", "162837.425000", "162839.425000", "162841.425000", "162843.426000", "162845.426000", "162847.426000", "162849.425000", "162851.425000", "162853.425000", "162855.425000", "162857.425000", "162859.425000", "162901.426000", "162903.425000", "162905.425000", "162907.424000", "162909.425000", "162911.424000", "162913.424000", "162915.425000", "162917.425000", "162919.426000", "162921.426000", "162923.426000", "162925.425000", "162927.425000", "162929.424000", "162931.425000", "162933.424000", "162935.425000", "162937.425000", "162939.425000", "162941.425000", "162943.425000", "162945.425000", "162947.425000", "162949.425000", "162951.425000", "162953.426000", "162955.425000", "162957.426000", "162959.425000", "163001.425000", "163003.425000", "163005.425000", "163007.424000", "163009.425000", "163011.426000", "163013.426000", "163015.426000", "163017.425000", "163019.424000", "163021.425000", "163023.425000", "163025.425000", "163027.424000", "163029.426000", "163031.426000", "163033.426000", "163035.425000", "163037.424000", "163039.425000", "163041.425000", "163043.425000", "163045.426000", "163047.426000", "163049.426000", "163051.425000", "163053.425000", "163055.424000", "163057.425000", "163059.425000", "163101.424000", "163103.425000", "163105.425000", "163107.426000", "163109.425000", "163111.425000", "163113.424000", "163115.425000", "163117.425000", "163119.425000", "163121.426000", "163123.426000", "163125.426000", "163127.425000", "163129.425000", "163131.425000", "163133.425000", "163135.424000", "163137.425000", "163139.426000", "163141.426000", "163143.426000", "163145.424000", "163147.425000", "163149.425000", "163151.425000", "163153.425000", "163155.425000", "163157.426000", "163159.426000", "163201.426000", "163203.425000", "163205.424000", "163207.425000", "163209.425000", "163211.425000", "163213.426000", "163215.225000"],
      "InstanceNumber": [1, 2, 3, 4, 5, 6, 7, 8, 9, 10, 11, 12, 13, 14, 15, 16, 17, 18, 19, 20, 21, 22, 23, 24, 25, 26, 27, 28, 29, 30, 31, 32, 33, 34, 35, 36, 37, 38, 39, 40, 41, 42, 43, 44, 45, 46, 47, 48, 49, 50, 51, 52, 53, 54, 55, 56, 57, 58, 59, 60, 61, 62, 63, 64, 65, 66, 67, 68, 69, 70, 71, 72, 73, 74, 75, 76, 77, 78, 79, 80, 81, 82, 83, 84, 85, 86, 87, 88, 89, 90, 91, 92, 93, 94, 95, 96, 97, 98, 99, 100, 101, 102, 103, 104, 105, 106, 107, 108, 109, 110, 111, 112, 113, 114, 115, 116, 117, 118, 119, 120, 121, 122, 123, 124, 125, 126, 127, 128, 129, 130, 131, 132, 133, 134, 135, 136, 137, 138, 139, 140, 141, 142, 143, 144, 145, 146, 147, 148, 149, 150, 151, 152, 153, 154, 155, 156],
      "LargestImagePixelValue": [3890, 3783, 3787, 3782, 3757, 3791, 3758, 3761, 3794, 3799, 3847, 3789, 3783, 3797, 3799, 3770, 3778, 3803, 3809, 3818, 3799, 3786, 3798, 3792, 3759, 3790, 3818, 3786, 3776, 3777, 3766, 3771, 3815, 3781, 3757, 3785, 3776, 3788, 3751, 3782, 3788, 3799, 3831, 3808, 3755, 3756, 3810, 3782, 3791, 3769, 3793, 3768, 3741, 3776, 3800, 3785, 3763, 3730, 3790, 3783, 3790, 3780, 3764, 3821, 3778, 3754, 3789, 3780, 3744, 3816, 3748, 3779, 3777, 3780, 3761, 3758, 3757, 3729, 3759, 3747, 3792, 3773, 3744, 3705, 3707, 3739, 3745, 3801, 3752, 3785, 3746, 3738, 3795, 3709, 3748, 3683, 3723, 3739, 3724, 3698, 3740, 3705, 3749, 3729, 3726, 3696, 3699, 3662, 3706, 3718, 3752, 3710, 3689, 3675, 3716, 3674, 3635, 3688, 3693, 3680, 3698, 3677, 3669, 3727, 3727, 3713, 3699, 3669, 3686, 3709, 3722, 3751, 3718, 3726, 3694, 3676, 3763, 3768, 3753, 3718, 3700, 3685, 3725, 3695, 3728, 3670, 3661, 3661, 3683, 3693, 3725, 3751, 3737, 3734, 3689, 3640],
      "WindowCenter": [811.0, 810.0, 810.0, 811.0, 811.0, 811.0, 811.0, 813.0, 814.0, 813.0, 812.0, 811.0, 812.0, 812.0, 812.0, 812.0, 812.0, 811.0, 810.0, 809.0, 810.0, 810.0, 810.0, 811.0, 811.0, 813.0, 813.0, 811.0, 808.0, 809.0, 809.0, 809.0, 809.0, 809.0, 809.0, 809.0, 808.0, 809.0, 809.0, 810.0, 811.0, 810.0, 809.0, 808.0, 809.0, 809.0, 809.0, 809.0, 809.0, 809.0, 808.0, 808.0, 809.0, 810.0, 809.0, 808.0, 808.0, 810.0, 811.0, 810.0, 809.0, 809.0, 810.0, 811.0, 810.0, 809.0, 811.0, 811.0, 810.0, 811.0, 812.0, 812.0, 811.0, 810.0, 810.0, 810.0, 810.0, 809.0, 810.0, 812.0, 812.0, 810.0, 809.0, 810.0, 812.0, 813.0, 811.0, 811.0, 812.0, 814.0, 813.0, 811.0, 810.0, 809.0, 809.0, 811.0, 812.0, 811.0, 809.0, 810.0, 811.0, 812.0, 812.0, 810.0, 810.0, 808.0, 809.0, 814.0, 817.0, 815.0, 811.0, 810.0, 808.0, 808.0, 808.0, 808.0, 807.0, 808.0, 808.0, 809.0, 810.0, 812.0, 813.0, 812.0, 811.0, 811.0, 810.0, 810.0, 812.0, 813.0, 811.0, 810.0, 811.0, 811.0, 812.0, 815.0, 814.0, 812.0, 811.0, 810.0, 809.0, 809.0, 810.0, 811.0, 812.0, 811.0, 810.0, 811.0, 815.0, 819.0, 818.0, 814.0, 812.0, 811.0, 811.0, 810.0],
      "WindowWidth": [1747.0, 1744.0, 1746.0, 1749.0, 1749.0, 1749.0, 1749.0, 1755.0, 1757.0, 1754.0, 1752.0, 1749.0, 1750.0, 1752.0, 1751.0, 1750.0, 1751.0, 1750.0, 1744.0, 1742.0, 1745.0, 1747.0, 1746.0, 1748.0, 1749.0, 1754.0, 1754.0, 1748.0, 1741.0, 1742.0, 1743.0, 1742.0, 1742.0, 1743.0, 1743.0, 1743.0, 1742.0, 1743.0, 1744.0, 1745.0, 1748.0, 1747.0, 1743.0, 1742.0, 1743.0, 1744.0, 1744.0, 1744.0, 1744.0, 1743.0, 1742.0, 1742.0, 1745.0, 1747.0, 1744.0, 1741.0, 1741.0, 1745.0, 1749.0, 1746.0, 1744.0, 1744.0, 1746.0, 1747.0, 1744.0, 1744.0, 1747.0, 1749.0, 1746.0, 1748.0, 1750.0, 1751.0, 1749.0, 1747.0, 1745.0, 1745.0, 1745.0, 1743.0, 1747.0, 1751.0, 1750.0, 1747.0, 1743.0, 1745.0, 1750.0, 1752.0, 1749.0, 1747.0, 1751.0, 1756.0, 1753.0, 1747.0, 1746.0, 1743.0, 1743.0, 1748.0, 1751.0, 1747.0, 1744.0, 1746.0, 1748.0, 1752.0, 1751.0, 1746.0, 1744.0, 1741.0, 1743.0, 1757.0, 1763.0, 1758.0, 1749.0, 1744.0, 1741.0, 1740.0, 1739.0, 1739.0, 1737.0, 1740.0, 1740.0, 1742.0, 1744.0, 1750.0, 1753.0, 1751.0, 1749.0, 1748.0, 1745.0, 1746.0, 1752.0, 1753.0, 1747.0, 1746.0, 1749.0, 1749.0, 1751.0, 1760.0, 1756.0, 1750.0, 1746.0, 1744.0, 1743.0, 1741.0, 1745.0, 1749.0, 1750.0, 1748.0, 1746.0, 1748.0, 1758.0, 1769.0, 1765.0, 1755.0, 1749.0, 1747.0, 1747.0, 1744.0]
    },
    "slices": {}
  }
}