{
  "AcquisitionMatrixPE": 100,
  "AcquisitionNumber": 1,
  "AcquisitionTime": "16:50:30.107500",
  "BandwidthPerPixelPhaseEncode": 18.519,
  "BaseResolution": 100,
  "BodyPartExamined": "BRAIN",
  "CoilCombinationMethod": "Sum of Squares",
  "ConsistencyInfo": "N4_VE11C_LATEST_20160120",
  "ConversionSoftware": "dcm2niix",
  "ConversionSoftwareVersion": "v1.0.20211006",
  "DerivedVendorReportedEchoSpacing": 0.000539986,
  "DeviceSerialNumber": "166078",
  "DwellTime": 2.1e-06,
  "EchoTime": 0.034,
  "EchoTrainLength": 100,
  "EffectiveEchoSpacing": 0.000539986,
  "FlipAngle": 90,
  "ImageOrientationPatientDICOM": [0.998719, 0.00739073, 0.0500502, 4.41772e-08, 0.989272, -0.146083],
  "ImageOrientationText": "Tra>Cor(-8.4)>Sag(2.9)",
  "ImageType": [
    "ORIGINAL",
    "PRIMARY",
    "M",
    "ND",
    "MOSAIC"
],
  "ImagingFrequency": 123.258,
  "InPlanePhaseEncodingDirectionDICOM": "COL",
  "InstitutionAddress": "Street StreetNo,Bei Jing,District,CN,ZIP",
  "InstitutionName": "BeiJing Normal University",
  "InstitutionalDepartmentName": "Department",
  "MRAcquisitionType": "2D",
  "MagneticFieldStrength": 3,
  "Manufacturer": "Siemens",
  "ManufacturersModelName": "Prisma",
  "Modality": "MR",
  "MultibandAccelerationFactor": 3,
  "PartialFourier": 1,
  "PatientPosition": "HFS",
  "PercentPhaseFOV": 100,
  "PercentSampling": 100,
  "PhaseEncodingDirection": "j-",
  "PhaseEncodingSteps": 100,
  "PhaseResolution": 1,
  "PixelBandwidth": 2380,
  "ProcedureStepDescription": "BNU_P2018_64CH^Zhen.ZongLei",
  "ProtocolName": "bold_100x100_s3_2x2x2_static_156",
  "PulseSequenceDetails": "%SiemensSeq%\\ep2d_bold",
  "ReceiveCoilActiveElements": "HC1-7;NC1",
  "ReceiveCoilName": "HeadNeck_64",
  "ReconMatrixPE": 100,
  "RefLinesPE": 32,
  "RepetitionTime": 2,
  "SAR": 0.0751495,
  "ScanOptions": "FS",
  "ScanningSequence": "EP",
  "SequenceName": "*epfid2d1_100",
  "SequenceVariant": "SK",
  "SeriesDescription": "bold_100x100_s3_2x2x2_static_156",
  "SeriesNumber": 15,
  "ShimSetting": [-5439, -11468, -1230, 312, 30, -224, -199, 26],
  "SliceThickness": 2,
  "SliceTiming": [1.485, 0, 0.99, 0.0825, 1.0725, 0.165, 1.155, 0.2475, 1.2375, 0.33, 1.32, 0.4125, 1.4025, 0.5775, 1.5675, 0.66, 1.65, 0.7425, 1.7325, 0.825, 1.815, 0.9075, 1.8975, 0.495, 1.485, 0, 0.99, 0.0825, 1.0725, 0.165, 1.155, 0.2475, 1.2375, 0.33, 1.32, 0.4125, 1.4025, 0.5775, 1.5675, 0.66, 1.65, 0.7425, 1.7325, 0.825, 1.815, 0.9075, 1.8975, 0.495, 1.485, 0, 0.99, 0.0825, 1.0725, 0.165, 1.155, 0.2475, 1.2375, 0.33, 1.32, 0.4125, 1.4025, 0.5775, 1.5675, 0.66, 1.65, 0.7425, 1.7325, 0.825, 1.815, 0.9075, 1.8975, 0.495],
  "SoftwareVersions": "syngo MR E11",
  "SpacingBetweenSlices": 2,
  "StationName": "AWP166078",
  "TaskName": "action",
  "TotalReadoutTime": 0.0534586,
  "TxRefAmp": 220.202,
  "dcmmeta_affine": [
    [-1.997438669204712, 8.835445441945922e-08, 0.1011858731508255, 94.16480255126953],
    [-0.014781450852751732, 1.9785447120666504, -0.2917918860912323, -81.85152435302734],
    [0.10010039806365967, 0.2921660542488098, 1.9760109186172485, -83.07733154296875],
    [0.0, 0.0, 0.0, 1.0]
],
  "dcmmeta_reorient_transform": [
    [0.0, -1.0, 0.0, 99.0],
    [1.0, 0.0, 0.0, 0.0],
    [0.0, 0.0, 1.0, 0.0],
    [0.0, 0.0, 0.0, 1.0]
],
  "dcmmeta_shape": [100, 100, 72, 156],
  "dcmmeta_slice_dim": 2,
  "dcmmeta_version": 0.6,
  "global": {
    "const": {
      "AcquisitionMatrix": [100, 0, 0, 100],
      "AngioFlag": "N",
      "BitsAllocated": 16,
      "BitsStored": 12,
      "BodyPartExamined": "BRAIN",
      "Columns": 900,
      "EchoNumbers": 1,
      "EchoTime": 34.0,
      "EchoTrainLength": 100,
      "FlipAngle": 90.0,
      "HighBit": 11,
      "ImageOrientationPatient": [0.99871935741091, 0.00739072549041, 0.05005019789637, 4.4177226e-08, 0.9892723333095, -0.1460830262158],
      "ImagePositionPatient": [-893.14033481189, -911.35484141327, 22.673369492625],
      "ImageType": [
        "ORIGINAL",
        "PRIMARY",
        "M",
        "ND",
        "MOSAIC"
],
      "ImagedNucleus": "1H",
      "ImagingFrequency": 123.257762,
      "InPlanePhaseEncodingDirection": "COL",
      "MRAcquisitionType": "2D",
      "MagneticFieldStrength": 3.0,
      "Manufacturer": "SIEMENS",
      "ManufacturerModelName": "Prisma",
      "Modality": "MR",
      "NumberOfAverages": 1.0,
      "NumberOfPhaseEncodingSteps": 100,
      "PercentPhaseFieldOfView": 100.0,
      "PercentSampling": 100.0,
      "PerformedProcedureStepStartTime": "154455.926000",
      "PhotometricInterpretation": "MONOCHROME2",
      "PixelBandwidth": 2380.0,
      "PixelRepresentation": 0,
      "PixelSpacing": [2.0, 2.0],
      "ProtocolName": "bold_100x100_s3_2x2x2_static_156",
      "RepetitionTime": 2000.0,
      "Rows": 900,
      "SAR": 0.0751495203387,
      "SamplesPerPixel": 1,
      "ScanOptions": "FS",
      "ScanningSequence": "EP",
      "SequenceName": "*epfid2d1_100",
      "SequenceVariant": "SK",
      "SeriesDescription": "bold_100x100_s3_2x2x2_static_156",
      "SeriesNumber": 15,
      "SeriesTime": "165033.210000",
      "SliceLocation": -65.374975221812,
      "SliceThickness": 2.0,
      "SmallestImagePixelValue": 0,
      "SoftwareVersions": "syngo MR E11",
      "SpacingBetweenSlices": 2.0000000150843,
      "SpecificCharacterSet": "ISO_IR 100",
      "StudyID": "1",
      "StudyTime": "154455.846000",
      "TransmitCoilName": "Body",
      "VariableFlipAngleFlag": "N",
      "WindowCenterWidthExplanation": "Algo1",
      "dBdt": 0.0},
    "slices": {}
  },
  "time": {
    "samples": {
      "AcquisitionNumber": [1, 2, 3, 4, 5, 6, 7, 8, 9, 10, 11, 12, 13, 14, 15, 16, 17, 18, 19, 20, 21, 22, 23, 24, 25, 26, 27, 28, 29, 30, 31, 32, 33, 34, 35, 36, 37, 38, 39, 40, 41, 42, 43, 44, 45, 46, 47, 48, 49, 50, 51, 52, 53, 54, 55, 56, 57, 58, 59, 60, 61, 62, 63, 64, 65, 66, 67, 68, 69, 70, 71, 72, 73, 74, 75, 76, 77, 78, 79, 80, 81, 82, 83, 84, 85, 86, 87, 88, 89, 90, 91, 92, 93, 94, 95, 96, 97, 98, 99, 100, 101, 102, 103, 104, 105, 106, 107, 108, 109, 110, 111, 112, 113, 114, 115, 116, 117, 118, 119, 120, 121, 122, 123, 124, 125, 126, 127, 128, 129, 130, 131, 132, 133, 134, 135, 136, 137, 138, 139, 140, 141, 142, 143, 144, 145, 146, 147, 148, 149, 150, 151, 152, 153, 154, 155, 156],
      "AcquisitionTime": ["165030.107500", "165032.107500", "165034.107500", "165036.107500", "165038.107500", "165040.107500", "165042.107500", "165044.107500", "165046.107500", "165048.107500", "165050.107500", "165052.107500", "165054.107500", "165056.107500", "165058.107500", "165100.107500", "165102.107500", "165104.107500", "165106.107500", "165108.107500", "165110.107500", "165112.107500", "165114.107500", "165116.107500", "165118.107500", "165120.107500", "165122.107500", "165124.107500", "165126.107500", "165128.107500", "165130.107500", "165132.107500", "165134.107500", "165136.107500", "165138.107500", "165140.107500", "165142.107500", "165144.107500", "165146.107500", "165148.107500", "165150.107500", "165152.107500", "165154.107500", "165156.107500", "165158.107500", "165200.107500", "165202.107500", "165204.107500", "165206.107500", "165208.107500", "165210.107500", "165212.107500", "165214.107500", "165216.107500", "165218.107500", "165220.107500", "165222.107500", "165224.107500", "165226.107500", "165228.107500", "165230.107500", "165232.107500", "165234.107500", "165236.107500", "165238.107500", "165240.107500", "165242.107500", "165244.107500", "165246.107500", "165248.107500", "165250.107500", "165252.107500", "165254.107500", "165256.107500", "165258.107500", "165300.107500", "165302.107500", "165304.107500", "165306.107500", "165308.107500", "165310.107500", "165312.107500", "165314.107500", "165316.107500", "165318.107500", "165320.107500", "165322.107500", "165324.107500", "165326.107500", "165328.107500", "165330.107500", "165332.107500", "165334.107500", "165336.107500", "165338.107500", "165340.107500", "165342.107500", "165344.107500", "165346.107500", "165348.107500", "165350.107500", "165352.107500", "165354.107500", "165356.107500", "165358.107500", "165400.107500", "165402.107500", "165404.107500", "165406.107500", "165408.107500", "165410.107500", "165412.107500", "165414.107500", "165416.107500", "165418.107500", "165420.107500", "165422.107500", "165424.107500", "165426.107500", "165428.107500", "165430.107500", "165432.107500", "165434.107500", "165436.107500", "165438.107500", "165440.107500", "165442.107500", "165444.107500", "165446.107500", "165448.107500", "165450.107500", "165452.107500", "165454.107500", "165456.107500", "165458.107500", "165500.107500", "165502.107500", "165504.107500", "165506.107500", "165508.107500", "165510.107500", "165512.107500", "165514.107500", "165516.107500", "165518.107500", "165520.107500", "165522.107500", "165524.107500", "165526.107500", "165528.107500", "165530.107500", "165532.107500", "165534.107500", "165536.107500", "165538.107500", "165540.107500"],
      "ContentTime": ["165033.213000", "165034.710000", "165036.710000", "165038.709000", "165040.710000", "165042.710000", "165044.709000", "165046.709000", "165048.709000", "165050.708000", "165052.709000", "165054.710000", "165056.710000", "165058.709000", "165100.709000", "165102.709000", "165104.709000", "165106.708000", "165108.708000", "165110.710000", "165112.710000", "165114.710000", "165116.709000", "165118.709000", "165120.708000", "165122.709000", "165124.708000", "165126.710000", "165128.709000", "165130.710000", "165132.710000", "165134.710000", "165136.710000", "165138.708000", "165140.709000", "165142.709000", "165144.710000", "165146.710000", "165148.710000", "165150.709000", "165152.709000", "165154.708000", "165156.709000", "165158.708000", "165200.709000", "165202.710000", "165204.710000", "165206.710000", "165208.709000", "165210.709000", "165212.709000", "165214.709000", "165216.708000", "165218.708000", "165220.710000", "165222.710000", "165224.710000", "165226.710000", "165228.710000", "165230.708000", "165232.709000", "165234.709000", "165236.710000", "165238.710000", "165240.709000", "165242.709000", "165244.710000", "165246.710000", "165248.709000", "165250.708000", "165252.709000", "165254.710000", "165256.710000", "165258.709000", "165300.710000", "165302.709000", "165304.708000", "165306.709000", "165308.708000", "165310.709000", "165312.710000", "165314.710000", "165316.710000", "165318.709000", "165320.710000", "165322.708000", "165324.709000", "165326.709000", "165328.709000", "165330.710000", "165332.710000", "165334.710000", "165336.710000", "165338.709000", "165340.709000", "165342.709000", "165344.709000", "165346.710000", "165348.709000", "165350.710000", "165352.709000", "165354.710000", "165356.710000", "165358.709000", "165400.709000", "165402.708000", "165404.710000", "165406.710000", "165408.710000", "165410.710000", "165412.710000", "165414.709000", "165416.709000", "165418.709000", "165420.709000", "165422.709000", "165424.709000", "165426.710000", "165428.710000", "165430.710000", "165432.708000", "165434.708000", "165436.709000", "165438.709000", "165440.710000", "165442.710000", "165444.710000", "165446.709000", "165448.710000", "165450.709000", "165452.708000", "165454.709000", "165456.709000", "165458.710000", "165500.709000", "165502.709000", "165504.709000", "165506.709000", "165508.709000", "165510.709000", "165512.709000", "165514.709000", "165516.710000", "165518.710000", "165520.710000", "165522.709000", "165524.709000", "165526.709000", "165528.708000", "165530.709000", "165532.710000", "165534.710000", "165536.710000", "165538.709000", "165540.710000", "165542.249000"],
      "InstanceCreationTime": ["165033.213000", "165034.710000", "165036.710000", "165038.709000", "165040.710000", "165042.710000", "165044.709000", "165046.709000", "165048.709000", "165050.708000", "165052.709000", "165054.710000", "165056.710000", "165058.709000", "165100.709000", "165102.709000", "165104.709000", "165106.708000", "165108.708000", "165110.710000", "165112.710000", "165114.710000", "165116.709000", "165118.709000", "165120.708000", "165122.709000", "165124.708000", "165126.710000", "165128.709000", "165130.710000", "165132.710000", "165134.710000", "165136.710000", "165138.708000", "165140.709000", "165142.709000", "165144.710000", "165146.710000", "165148.710000", "165150.709000", "165152.709000", "165154.708000", "165156.709000", "165158.708000", "165200.709000", "165202.710000", "165204.710000", "165206.710000", "165208.709000", "165210.709000", "165212.709000", "165214.709000", "165216.708000", "165218.708000", "165220.710000", "165222.710000", "165224.710000", "165226.710000", "165228.710000", "165230.708000", "165232.709000", "165234.709000", "165236.710000", "165238.710000", "165240.709000", "165242.709000", "165244.710000", "165246.710000", "165248.709000", "165250.708000", "165252.709000", "165254.710000", "165256.710000", "165258.709000", "165300.710000", "165302.709000", "165304.708000", "165306.709000", "165308.708000", "165310.709000", "165312.710000", "165314.710000", "165316.710000", "165318.709000", "165320.710000", "165322.708000", "165324.709000", "165326.709000", "165328.709000", "165330.710000", "165332.710000", "165334.710000", "165336.710000", "165338.709000", "165340.709000", "165342.709000", "165344.709000", "165346.710000", "165348.709000", "165350.710000", "165352.709000", "165354.710000", "165356.710000", "165358.709000", "165400.709000", "165402.708000", "165404.710000", "165406.710000", "165408.710000", "165410.710000", "165412.710000", "165414.709000", "165416.709000", "165418.709000", "165420.709000", "165422.709000", "165424.709000", "165426.710000", "165428.710000", "165430.710000", "165432.708000", "165434.708000", "165436.709000", "165438.709000", "165440.710000", "165442.710000", "165444.710000", "165446.709000", "165448.710000", "165450.709000", "165452.708000", "165454.709000", "165456.709000", "165458.710000", "165500.709000", "165502.709000", "165504.709000", "165506.709000", "165508.709000", "165510.709000", "165512.709000", "165514.709000", "165516.710000", "165518.710000", "165520.710000", "165522.709000", "165524.709000", "165526.709000", "165528.708000", "165530.709000", "165532.710000", "165534.710000", "165536.710000", "165538.709000", "165540.710000", "165542.249000"],
      "InstanceNumber": [1, 2, 3, 4, 5, 6, 7, 8, 9, 10, 11, 12, 13, 14, 15, 16, 17, 18, 19, 20, 21, 22, 23, 24, 25, 26, 27, 28, 29, 30, 31, 32, 33, 34, 35, 36, 37, 38, 39, 40, 41, 42, 43, 44, 45, 46, 47, 48, 49, 50, 51, 52, 53, 54, 55, 56, 57, 58, 59, 60, 61, 62, 63, 64, 65, 66, 67, 68, 69, 70, 71, 72, 73, 74, 75, 76, 77, 78, 79, 80, 81, 82, 83, 84, 85, 86, 87, 88, 89, 90, 91, 92, 93, 94, 95, 96, 97, 98, 99, 100, 101, 102, 103, 104, 105, 106, 107, 108, 109, 110, 111, 112, 113, 114, 115, 116, 117, 118, 119, 120, 121, 122, 123, 124, 125, 126, 127, 128, 129, 130, 131, 132, 133, 134, 135, 136, 137, 138, 139, 140, 141, 142, 143, 144, 145, 146, 147, 148, 149, 150, 151, 152, 153, 154, 155, 156],
      "LargestImagePixelValue": [3752, 3684, 3696, 3675, 3684, 3683, 3684, 3703, 3657, 3657, 3644, 3662, 3614, 3647, 3662, 3668, 3632, 3651, 3624, 3631, 3658, 3642, 3632, 3689, 3662, 3693, 3696, 3677, 3666, 3688, 3708, 3685, 3737, 3719, 3696, 3671, 3694, 3677, 3696, 3683, 3707, 3729, 3694, 3705, 3685, 3690, 3698, 3723, 3710, 3694, 3669, 3685, 3717, 3688, 3650, 3681, 3714, 3675, 3715, 3691, 3694, 3690, 3684, 3724, 3717, 3716, 3691, 3657, 3693, 3693, 3698, 3681, 3699, 3694, 3676, 3735, 3711, 3687, 3683, 3694, 3710, 3688, 3677, 3700, 3735, 3686, 3666, 3697, 3686, 3697, 3730, 3694, 3731, 3710, 3710, 3694, 3714, 3707, 3720, 3752, 3727, 3709, 3693, 3692, 3723, 3677, 3707, 3703, 3705, 3682, 3723, 3693, 3715, 3696, 3707, 3699, 3714, 3717, 3729, 3702, 3682, 3741, 3725, 3730, 3695, 3709, 3709, 3689, 3745, 3729, 3720, 3765, 3737, 3740, 3741, 3770, 3732, 3719, 3701, 3713, 3699, 3725, 3710, 3745, 3706, 3712, 3731, 3730, 3743, 3741, 3710, 3708, 3718, 3725, 3731, 3738],
      "WindowCenter": [812.0, 810.0, 810.0, 809.0, 809.0, 808.0, 807.0, 808.0, 809.0, 809.0, 808.0, 808.0, 808.0, 807.0, 808.0, 808.0, 808.0, 807.0, 806.0, 806.0, 807.0, 808.0, 807.0, 807.0, 806.0, 808.0, 809.0, 808.0, 807.0, 807.0, 807.0, 807.0, 808.0, 808.0, 808.0, 808.0, 806.0, 805.0, 805.0, 806.0, 806.0, 806.0, 805.0, 804.0, 804.0, 806.0, 806.0, 806.0, 806.0, 807.0, 807.0, 807.0, 806.0, 807.0, 807.0, 808.0, 809.0, 809.0, 808.0, 807.0, 808.0, 809.0, 808.0, 807.0, 807.0, 807.0, 807.0, 808.0, 810.0, 810.0, 808.0, 808.0, 808.0, 807.0, 806.0, 807.0, 808.0, 808.0, 808.0, 808.0, 808.0, 808.0, 808.0, 808.0, 808.0, 810.0, 812.0, 811.0, 807.0, 806.0, 806.0, 807.0, 808.0, 809.0, 808.0, 808.0, 808.0, 808.0, 808.0, 809.0, 810.0, 810.0, 809.0, 809.0, 809.0, 809.0, 809.0, 809.0, 808.0, 808.0, 809.0, 813.0, 813.0, 810.0, 808.0, 808.0, 807.0, 807.0, 807.0, 807.0, 808.0, 810.0, 810.0, 810.0, 810.0, 810.0, 809.0, 808.0, 809.0, 809.0, 809.0, 809.0, 809.0, 809.0, 809.0, 811.0, 813.0, 813.0, 810.0, 808.0, 808.0, 810.0, 810.0, 809.0, 808.0, 811.0, 811.0, 810.0, 809.0, 809.0, 808.0, 808.0, 808.0, 809.0, 809.0, 808.0],
      "WindowWidth": [1751.0, 1746.0, 1744.0, 1743.0, 1743.0, 1739.0, 1737.0, 1741.0, 1742.0, 1742.0, 1740.0, 1741.0, 1739.0, 1739.0, 1740.0, 1740.0, 1740.0, 1738.0, 1734.0, 1734.0, 1737.0, 1741.0, 1739.0, 1737.0, 1737.0, 1741.0, 1743.0, 1741.0, 1738.0, 1737.0, 1739.0, 1740.0, 1740.0, 1741.0, 1742.0, 1740.0, 1735.0, 1733.0, 1734.0, 1735.0, 1736.0, 1735.0, 1731.0, 1730.0, 1731.0, 1735.0, 1736.0, 1737.0, 1737.0, 1738.0, 1737.0, 1737.0, 1737.0, 1738.0, 1739.0, 1740.0, 1743.0, 1743.0, 1741.0, 1739.0, 1740.0, 1743.0, 1741.0, 1739.0, 1738.0, 1739.0, 1739.0, 1741.0, 1746.0, 1745.0, 1742.0, 1741.0, 1741.0, 1738.0, 1736.0, 1739.0, 1741.0, 1741.0, 1739.0, 1739.0, 1741.0, 1741.0, 1741.0, 1741.0, 1740.0, 1745.0, 1751.0, 1748.0, 1739.0, 1736.0, 1736.0, 1738.0, 1742.0, 1743.0, 1742.0, 1740.0, 1740.0, 1740.0, 1740.0, 1744.0, 1746.0, 1746.0, 1744.0, 1743.0, 1745.0, 1743.0, 1743.0, 1743.0, 1740.0, 1739.0, 1744.0, 1755.0, 1754.0, 1746.0, 1741.0, 1739.0, 1739.0, 1739.0, 1739.0, 1738.0, 1740.0, 1745.0, 1746.0, 1747.0, 1747.0, 1746.0, 1743.0, 1740.0, 1742.0, 1743.0, 1743.0, 1744.0, 1742.0, 1742.0, 1744.0, 1749.0, 1755.0, 1755.0, 1745.0, 1740.0, 1741.0, 1745.0, 1745.0, 1742.0, 1740.0, 1748.0, 1750.0, 1746.0, 1742.0, 1742.0, 1742.0, 1739.0, 1741.0, 1742.0, 1742.0, 1739.0]
    },
    "slices": {}
  }
}