{
  "AcquisitionMatrixPE": 100,
  "AcquisitionNumber": 1,
  "AcquisitionTime": "16:12:25.120000",
  "BandwidthPerPixelPhaseEncode": 18.519,
  "BaseResolution": 100,
  "BodyPartExamined": "BRAIN",
  "CoilCombinationMethod": "Sum of Squares",
  "ConsistencyInfo": "N4_VE11C_LATEST_20160120",
  "ConversionSoftware": "dcm2niix",
  "ConversionSoftwareVersion": "v1.0.20211006",
  "DerivedVendorReportedEchoSpacing": 0.000539986,
  "DeviceSerialNumber": "166078",
  "DwellTime": 2.1e-06,
  "EchoTime": 0.034,
  "EchoTrainLength": 100,
  "EffectiveEchoSpacing": 0.000539986,
  "FlipAngle": 90,
  "ImageOrientationPatientDICOM": [0.998719, 0.00739073, 0.0500502, 4.41772e-08, 0.989272, -0.146083],
  "ImageOrientationText": "Tra>Cor(-8.4)>Sag(2.9)",
  "ImageType": [
    "ORIGINAL",
    "PRIMARY",
    "M",
    "ND",
    "MOSAIC"
],
  "ImagingFrequency": 123.258,
  "InPlanePhaseEncodingDirectionDICOM": "COL",
  "InstitutionAddress": "Street StreetNo,Bei Jing,District,CN,ZIP",
  "InstitutionName": "BeiJing Normal University",
  "InstitutionalDepartmentName": "Department",
  "MRAcquisitionType": "2D",
  "MagneticFieldStrength": 3,
  "Manufacturer": "Siemens",
  "ManufacturersModelName": "Prisma",
  "Modality": "MR",
  "MultibandAccelerationFactor": 3,
  "PartialFourier": 1,
  "PatientPosition": "HFS",
  "PercentPhaseFOV": 100,
  "PercentSampling": 100,
  "PhaseEncodingDirection": "j-",
  "PhaseEncodingSteps": 100,
  "PhaseResolution": 1,
  "PixelBandwidth": 2380,
  "ProcedureStepDescription": "BNU_P2018_64CH^Zhen.ZongLei",
  "ProtocolName": "bold_100x100_s3_2x2x2_static_156",
  "PulseSequenceDetails": "%SiemensSeq%\\ep2d_bold",
  "ReceiveCoilActiveElements": "HC1-7;NC1",
  "ReceiveCoilName": "HeadNeck_64",
  "ReconMatrixPE": 100,
  "RefLinesPE": 32,
  "RepetitionTime": 2,
  "SAR": 0.0751495,
  "ScanOptions": "FS",
  "ScanningSequence": "EP",
  "SequenceName": "*epfid2d1_100",
  "SequenceVariant": "SK",
  "SeriesDescription": "bold_100x100_s3_2x2x2_static_156",
  "SeriesNumber": 7,
  "ShimSetting": [-5439, -11468, -1230, 312, 30, -224, -199, 26],
  "SliceThickness": 2,
  "SliceTiming": [1.485, 0, 0.99, 0.0825, 1.0725, 0.165, 1.155, 0.2475, 1.2375, 0.33, 1.32, 0.4125, 1.4025, 0.5775, 1.5675, 0.66, 1.65, 0.7425, 1.7325, 0.825, 1.815, 0.9075, 1.8975, 0.495, 1.485, 0, 0.99, 0.0825, 1.0725, 0.165, 1.155, 0.2475, 1.2375, 0.33, 1.32, 0.4125, 1.4025, 0.5775, 1.5675, 0.66, 1.65, 0.7425, 1.7325, 0.825, 1.815, 0.9075, 1.8975, 0.495, 1.485, 0, 0.99, 0.0825, 1.0725, 0.165, 1.155, 0.2475, 1.2375, 0.33, 1.32, 0.4125, 1.4025, 0.5775, 1.5675, 0.66, 1.65, 0.7425, 1.7325, 0.825, 1.815, 0.9075, 1.8975, 0.495],
  "SoftwareVersions": "syngo MR E11",
  "SpacingBetweenSlices": 2,
  "StationName": "AWP166078",
  "TaskName": "action",
  "TotalReadoutTime": 0.0534586,
  "TxRefAmp": 220.202,
  "dcmmeta_affine": [
    [-1.997438669204712, 8.835445441945922e-08, 0.1011858731508255, 94.16480255126953],
    [-0.014781450852751732, 1.9785447120666504, -0.2917918860912323, -81.85152435302734],
    [0.10010039806365967, 0.2921660542488098, 1.9760109186172485, -83.07733154296875],
    [0.0, 0.0, 0.0, 1.0]
],
  "dcmmeta_reorient_transform": [
    [0.0, -1.0, 0.0, 99.0],
    [1.0, 0.0, 0.0, 0.0],
    [0.0, 0.0, 1.0, 0.0],
    [0.0, 0.0, 0.0, 1.0]
],
  "dcmmeta_shape": [100, 100, 72, 156],
  "dcmmeta_slice_dim": 2,
  "dcmmeta_version": 0.6,
  "global": {
    "const": {
      "AcquisitionMatrix": [100, 0, 0, 100],
      "AngioFlag": "N",
      "BitsAllocated": 16,
      "BitsStored": 12,
      "BodyPartExamined": "BRAIN",
      "Columns": 900,
      "EchoNumbers": 1,
      "EchoTime": 34.0,
      "EchoTrainLength": 100,
      "FlipAngle": 90.0,
      "HighBit": 11,
      "ImageOrientationPatient": [0.99871935741091, 0.00739072549041, 0.05005019789637, 4.4177226e-08, 0.9892723333095, -0.1460830262158],
      "ImagePositionPatient": [-893.14033481189, -911.35484141327, 22.673369492625],
      "ImageType": [
        "ORIGINAL",
        "PRIMARY",
        "M",
        "ND",
        "MOSAIC"
],
      "ImagedNucleus": "1H",
      "ImagingFrequency": 123.257756,
      "InPlanePhaseEncodingDirection": "COL",
      "MRAcquisitionType": "2D",
      "MagneticFieldStrength": 3.0,
      "Manufacturer": "SIEMENS",
      "ManufacturerModelName": "Prisma",
      "Modality": "MR",
      "NumberOfAverages": 1.0,
      "NumberOfPhaseEncodingSteps": 100,
      "PercentPhaseFieldOfView": 100.0,
      "PercentSampling": 100.0,
      "PerformedProcedureStepStartTime": "154455.926000",
      "PhotometricInterpretation": "MONOCHROME2",
      "PixelBandwidth": 2380.0,
      "PixelRepresentation": 0,
      "PixelSpacing": [2.0, 2.0],
      "ProtocolName": "bold_100x100_s3_2x2x2_static_156",
      "RepetitionTime": 2000.0,
      "Rows": 900,
      "SAR": 0.0751495203387,
      "SamplesPerPixel": 1,
      "ScanOptions": "FS",
      "ScanningSequence": "EP",
      "SequenceName": "*epfid2d1_100",
      "SequenceVariant": "SK",
      "SeriesDescription": "bold_100x100_s3_2x2x2_static_156",
      "SeriesNumber": 7,
      "SeriesTime": "161228.179000",
      "SliceLocation": -65.374975221812,
      "SliceThickness": 2.0,
      "SmallestImagePixelValue": 0,
      "SoftwareVersions": "syngo MR E11",
      "SpacingBetweenSlices": 2.0000000150843,
      "SpecificCharacterSet": "ISO_IR 100",
      "StudyID": "1",
      "StudyTime": "154455.846000",
      "TransmitCoilName": "Body",
      "VariableFlipAngleFlag": "N",
      "WindowCenterWidthExplanation": "Algo1",
      "dBdt": 0.0},
    "slices": {}
  },
  "time": {
    "samples": {
      "AcquisitionNumber": [1, 2, 3, 4, 5, 6, 7, 8, 9, 10, 11, 12, 13, 14, 15, 16, 17, 18, 19, 20, 21, 22, 23, 24, 25, 26, 27, 28, 29, 30, 31, 32, 33, 34, 35, 36, 37, 38, 39, 40, 41, 42, 43, 44, 45, 46, 47, 48, 49, 50, 51, 52, 53, 54, 55, 56, 57, 58, 59, 60, 61, 62, 63, 64, 65, 66, 67, 68, 69, 70, 71, 72, 73, 74, 75, 76, 77, 78, 79, 80, 81, 82, 83, 84, 85, 86, 87, 88, 89, 90, 91, 92, 93, 94, 95, 96, 97, 98, 99, 100, 101, 102, 103, 104, 105, 106, 107, 108, 109, 110, 111, 112, 113, 114, 115, 116, 117, 118, 119, 120, 121, 122, 123, 124, 125, 126, 127, 128, 129, 130, 131, 132, 133, 134, 135, 136, 137, 138, 139, 140, 141, 142, 143, 144, 145, 146, 147, 148, 149, 150, 151, 152, 153, 154, 155, 156],
      "AcquisitionTime": ["161225.120000", "161227.120000", "161229.120000", "161231.120000", "161233.120000", "161235.120000", "161237.120000", "161239.120000", "161241.120000", "161243.120000", "161245.120000", "161247.120000", "161249.120000", "161251.120000", "161253.120000", "161255.120000", "161257.120000", "161259.120000", "161301.120000", "161303.120000", "161305.120000", "161307.120000", "161309.120000", "161311.120000", "161313.120000", "161315.120000", "161317.120000", "161319.120000", "161321.120000", "161323.120000", "161325.120000", "161327.120000", "161329.120000", "161331.120000", "161333.120000", "161335.120000", "161337.120000", "161339.120000", "161341.120000", "161343.120000", "161345.120000", "161347.120000", "161349.120000", "161351.120000", "161353.120000", "161355.120000", "161357.120000", "161359.120000", "161401.120000", "161403.120000", "161405.120000", "161407.120000", "161409.120000", "161411.120000", "161413.120000", "161415.120000", "161417.120000", "161419.120000", "161421.120000", "161423.120000", "161425.120000", "161427.120000", "161429.120000", "161431.120000", "161433.120000", "161435.120000", "161437.120000", "161439.120000", "161441.120000", "161443.120000", "161445.120000", "161447.120000", "161449.120000", "161451.120000", "161453.120000", "161455.120000", "161457.120000", "161459.120000", "161501.120000", "161503.120000", "161505.120000", "161507.120000", "161509.120000", "161511.120000", "161513.120000", "161515.120000", "161517.120000", "161519.120000", "161521.120000", "161523.120000", "161525.120000", "161527.120000", "161529.120000", "161531.120000", "161533.120000", "161535.120000", "161537.120000", "161539.120000", "161541.120000", "161543.120000", "161545.120000", "161547.120000", "161549.120000", "161551.120000", "161553.120000", "161555.120000", "161557.120000", "161559.120000", "161601.120000", "161603.120000", "161605.120000", "161607.120000", "161609.120000", "161611.120000", "161613.120000", "161615.120000", "161617.120000", "161619.120000", "161621.120000", "161623.120000", "161625.120000", "161627.120000", "161629.120000", "161631.120000", "161633.120000", "161635.120000", "161637.120000", "161639.120000", "161641.120000", "161643.120000", "161645.120000", "161647.120000", "161649.120000", "161651.120000", "161653.120000", "161655.120000", "161657.120000", "161659.120000", "161701.120000", "161703.120000", "161705.120000", "161707.120000", "161709.120000", "161711.120000", "161713.120000", "161715.120000", "161717.120000", "161719.120000", "161721.120000", "161723.120000", "161725.120000", "161727.120000", "161729.120000", "161731.120000", "161733.120000", "161735.120000"],
      "ContentTime": ["161228.183000", "161229.678000", "161231.678000", "161233.678000", "161235.678000", "161237.677000", "161239.677000", "161241.679000", "161243.679000", "161245.679000", "161247.677000", "161249.677000", "161251.677000", "161253.677000", "161255.677000", "161257.678000", "161259.679000", "161301.679000", "161303.678000", "161305.677000", "161307.678000", "161309.677000", "161311.678000", "161313.678000", "161315.678000", "161317.679000", "161319.679000", "161321.678000", "161323.678000", "161325.677000", "161327.677000", "161329.678000", "161331.677000", "161333.677000", "161335.679000", "161337.678000", "161339.678000", "161341.678000", "161343.678000", "161345.678000", "161347.677000", "161349.677000", "161351.678000", "161353.679000", "161355.679000", "161357.677000", "161359.678000", "161401.677000", "161403.678000", "161405.677000", "161407.677000", "161409.679000", "161411.679000", "161413.677000", "161415.677000", "161417.678000", "161419.677000", "161421.678000", "161423.678000", "161425.677000", "161427.678000", "161429.678000", "161431.678000", "161433.678000", "161435.678000", "161437.677000", "161439.678000", "161441.678000", "161443.677000", "161445.679000", "161447.679000", "161449.678000", "161451.678000", "161453.678000", "161455.678000", "161457.678000", "161459.678000", "161501.678000", "161503.679000", "161505.679000", "161507.677000", "161509.678000", "161511.678000", "161513.678000", "161515.678000", "161517.678000", "161519.679000", "161521.678000", "161523.678000", "161525.677000", "161527.678000", "161529.678000", "161531.677000", "161533.678000", "161535.678000", "161537.679000", "161539.679000", "161541.677000", "161543.678000", "161545.678000", "161547.677000", "161549.678000", "161551.677000", "161553.679000", "161555.678000", "161557.678000", "161559.677000", "161601.678000", "161603.677000", "161605.678000", "161607.678000", "161609.678000", "161611.678000", "161613.679000", "161615.678000", "161617.677000", "161619.677000", "161621.678000", "161623.678000", "161625.677000", "161627.678000", "161629.679000", "161631.679000", "161633.678000", "161635.678000", "161637.678000", "161639.678000", "161641.678000", "161643.677000", "161645.678000", "161647.679000", "161649.678000", "161651.677000", "161653.678000", "161655.678000", "161657.678000", "161659.678000", "161701.677000", "161703.679000", "161705.679000", "161707.678000", "161709.678000", "161711.677000", "161713.678000", "161715.678000", "161717.678000", "161719.677000", "161721.679000", "161723.678000", "161725.678000", "161727.677000", "161729.677000", "161731.677000", "161733.678000", "161735.677000", "161737.279000"],
      "InstanceCreationTime": ["161228.183000", "161229.678000", "161231.678000", "161233.678000", "161235.678000", "161237.677000", "161239.677000", "161241.679000", "161243.679000", "161245.679000", "161247.677000", "161249.677000", "161251.677000", "161253.677000", "161255.677000", "161257.678000", "161259.679000", "161301.679000", "161303.678000", "161305.677000", "161307.678000", "161309.677000", "161311.678000", "161313.678000", "161315.678000", "161317.679000", "161319.679000", "161321.678000", "161323.678000", "161325.677000", "161327.677000", "161329.678000", "161331.677000", "161333.677000", "161335.679000", "161337.678000", "161339.678000", "161341.678000", "161343.678000", "161345.678000", "161347.677000", "161349.677000", "161351.678000", "161353.679000", "161355.679000", "161357.677000", "161359.678000", "161401.677000", "161403.678000", "161405.677000", "161407.677000", "161409.679000", "161411.679000", "161413.677000", "161415.677000", "161417.678000", "161419.677000", "161421.678000", "161423.678000", "161425.677000", "161427.678000", "161429.678000", "161431.678000", "161433.678000", "161435.678000", "161437.677000", "161439.678000", "161441.678000", "161443.677000", "161445.679000", "161447.679000", "161449.678000", "161451.678000", "161453.678000", "161455.678000", "161457.678000", "161459.678000", "161501.678000", "161503.679000", "161505.679000", "161507.677000", "161509.678000", "161511.678000", "161513.678000", "161515.678000", "161517.678000", "161519.679000", "161521.678000", "161523.678000", "161525.677000", "161527.678000", "161529.678000", "161531.677000", "161533.678000", "161535.678000", "161537.679000", "161539.679000", "161541.677000", "161543.678000", "161545.678000", "161547.677000", "161549.678000", "161551.677000", "161553.679000", "161555.678000", "161557.678000", "161559.677000", "161601.678000", "161603.677000", "161605.678000", "161607.678000", "161609.678000", "161611.678000", "161613.679000", "161615.678000", "161617.677000", "161619.677000", "161621.678000", "161623.678000", "161625.677000", "161627.678000", "161629.679000", "161631.679000", "161633.678000", "161635.678000", "161637.678000", "161639.678000", "161641.678000", "161643.677000", "161645.678000", "161647.679000", "161649.678000", "161651.677000", "161653.678000", "161655.678000", "161657.678000", "161659.678000", "161701.677000", "161703.679000", "161705.679000", "161707.678000", "161709.678000", "161711.677000", "161713.678000", "161715.678000", "161717.678000", "161719.677000", "161721.679000", "161723.678000", "161725.678000", "161727.677000", "161729.677000", "161731.677000", "161733.678000", "161735.677000", "161737.279000"],
      "InstanceNumber": [1, 2, 3, 4, 5, 6, 7, 8, 9, 10, 11, 12, 13, 14, 15, 16, 17, 18, 19, 20, 21, 22, 23, 24, 25, 26, 27, 28, 29, 30, 31, 32, 33, 34, 35, 36, 37, 38, 39, 40, 41, 42, 43, 44, 45, 46, 47, 48, 49, 50, 51, 52, 53, 54, 55, 56, 57, 58, 59, 60, 61, 62, 63, 64, 65, 66, 67, 68, 69, 70, 71, 72, 73, 74, 75, 76, 77, 78, 79, 80, 81, 82, 83, 84, 85, 86, 87, 88, 89, 90, 91, 92, 93, 94, 95, 96, 97, 98, 99, 100, 101, 102, 103, 104, 105, 106, 107, 108, 109, 110, 111, 112, 113, 114, 115, 116, 117, 118, 119, 120, 121, 122, 123, 124, 125, 126, 127, 128, 129, 130, 131, 132, 133, 134, 135, 136, 137, 138, 139, 140, 141, 142, 143, 144, 145, 146, 147, 148, 149, 150, 151, 152, 153, 154, 155, 156],
      "LargestImagePixelValue": [3893, 3787, 3772, 3742, 3758, 3726, 3757, 3774, 3780, 3779, 3782, 3766, 3763, 3787, 3763, 3764, 3772, 3779, 3790, 3827, 3794, 3764, 3786, 3805, 3789, 3818, 3808, 3781, 3780, 3748, 3786, 3784, 3769, 3750, 3779, 3773, 3792, 3791, 3783, 3787, 3824, 3821, 3805, 3812, 3815, 3814, 3819, 3830, 3830, 3822, 3791, 3827, 3807, 3802, 3825, 3797, 3796, 3796, 3817, 3776, 3794, 3800, 3807, 3832, 3841, 3820, 3799, 3847, 3825, 3794, 3827, 3851, 3856, 3805, 3822, 3836, 3841, 3838, 3789, 3815, 3822, 3807, 3805, 3794, 3809, 3817, 3829, 3808, 3832, 3812, 3829, 3825, 3767, 3804, 3817, 3789, 3806, 3831, 3829, 3819, 3818, 3784, 3802, 3775, 3788, 3796, 3829, 3795, 3791, 3774, 3768, 3771, 3817, 3780, 3817, 3784, 3763, 3777, 3828, 3812, 3811, 3785, 3802, 3813, 3775, 3775, 3772, 3804, 3814, 3788, 3784, 3797, 3798, 3793, 3809, 3793, 3766, 3762, 3763, 3784, 3768, 3759, 3733, 3784, 3773, 3745, 3793, 3770, 3760, 3738, 3742, 3732, 3769, 3728, 3758, 3682],
      "WindowCenter": [817.0, 814.0, 815.0, 816.0, 816.0, 816.0, 815.0, 816.0, 817.0, 817.0, 815.0, 816.0, 816.0, 815.0, 815.0, 815.0, 815.0, 815.0, 815.0, 813.0, 812.0, 813.0, 813.0, 812.0, 811.0, 813.0, 813.0, 813.0, 811.0, 813.0, 813.0, 812.0, 811.0, 810.0, 812.0, 813.0, 812.0, 811.0, 811.0, 812.0, 814.0, 814.0, 813.0, 813.0, 814.0, 814.0, 815.0, 816.0, 814.0, 813.0, 814.0, 816.0, 817.0, 815.0, 813.0, 812.0, 812.0, 812.0, 813.0, 814.0, 815.0, 815.0, 814.0, 814.0, 815.0, 815.0, 815.0, 814.0, 812.0, 814.0, 816.0, 815.0, 813.0, 813.0, 814.0, 815.0, 814.0, 814.0, 814.0, 815.0, 815.0, 814.0, 814.0, 815.0, 816.0, 816.0, 814.0, 814.0, 815.0, 815.0, 815.0, 814.0, 813.0, 814.0, 814.0, 815.0, 817.0, 817.0, 816.0, 815.0, 814.0, 814.0, 814.0, 819.0, 821.0, 818.0, 815.0, 813.0, 813.0, 812.0, 812.0, 812.0, 812.0, 812.0, 811.0, 813.0, 817.0, 818.0, 815.0, 813.0, 814.0, 814.0, 813.0, 813.0, 814.0, 814.0, 816.0, 816.0, 816.0, 815.0, 814.0, 815.0, 817.0, 816.0, 814.0, 814.0, 814.0, 815.0, 815.0, 815.0, 815.0, 814.0, 814.0, 814.0, 818.0, 819.0, 817.0, 815.0, 813.0, 814.0, 814.0, 814.0, 815.0, 814.0, 813.0, 811.0],
      "WindowWidth": [1764.0, 1757.0, 1758.0, 1760.0, 1763.0, 1762.0, 1760.0, 1762.0, 1765.0, 1764.0, 1760.0, 1762.0, 1762.0, 1761.0, 1759.0, 1761.0, 1760.0, 1760.0, 1758.0, 1754.0, 1752.0, 1754.0, 1754.0, 1752.0, 1750.0, 1754.0, 1755.0, 1753.0, 1750.0, 1753.0, 1754.0, 1751.0, 1747.0, 1746.0, 1752.0, 1756.0, 1752.0, 1748.0, 1749.0, 1752.0, 1757.0, 1758.0, 1755.0, 1755.0, 1756.0, 1757.0, 1760.0, 1762.0, 1756.0, 1755.0, 1757.0, 1762.0, 1766.0, 1761.0, 1755.0, 1752.0, 1752.0, 1752.0, 1754.0, 1757.0, 1761.0, 1761.0, 1758.0, 1757.0, 1760.0, 1761.0, 1758.0, 1755.0, 1752.0, 1758.0, 1761.0, 1759.0, 1754.0, 1753.0, 1757.0, 1759.0, 1757.0, 1758.0, 1757.0, 1758.0, 1759.0, 1756.0, 1756.0, 1759.0, 1763.0, 1762.0, 1758.0, 1756.0, 1760.0, 1760.0, 1759.0, 1757.0, 1755.0, 1756.0, 1757.0, 1759.0, 1764.0, 1766.0, 1762.0, 1758.0, 1758.0, 1757.0, 1757.0, 1769.0, 1774.0, 1766.0, 1759.0, 1754.0, 1753.0, 1752.0, 1752.0, 1751.0, 1751.0, 1750.0, 1749.0, 1752.0, 1765.0, 1766.0, 1759.0, 1754.0, 1755.0, 1756.0, 1755.0, 1755.0, 1755.0, 1756.0, 1761.0, 1761.0, 1761.0, 1759.0, 1757.0, 1758.0, 1764.0, 1761.0, 1757.0, 1755.0, 1757.0, 1759.0, 1760.0, 1760.0, 1760.0, 1757.0, 1756.0, 1757.0, 1766.0, 1771.0, 1763.0, 1757.0, 1754.0, 1755.0, 1755.0, 1756.0, 1757.0, 1754.0, 1751.0, 1747.0]
    },
    "slices": {}
  }
}