{
  "AcquisitionMatrixPE": 100,
  "AcquisitionNumber": 1,
  "AcquisitionTime": "16:18:26.605000",
  "BandwidthPerPixelPhaseEncode": 18.519,
  "BaseResolution": 100,
  "BodyPartExamined": "BRAIN",
  "CoilCombinationMethod": "Sum of Squares",
  "ConsistencyInfo": "N4_VE11C_LATEST_20160120",
  "ConversionSoftware": "dcm2niix",
  "ConversionSoftwareVersion": "v1.0.20211006",
  "DerivedVendorReportedEchoSpacing": 0.000539986,
  "DeviceSerialNumber": "166078",
  "DwellTime": 2.1e-06,
  "EchoTime": 0.034,
  "EchoTrainLength": 100,
  "EffectiveEchoSpacing": 0.000539986,
  "FlipAngle": 90,
  "ImageOrientationPatientDICOM": [0.998719, 0.00739073, 0.0500502, 4.41772e-08, 0.989272, -0.146083],
  "ImageOrientationText": "Tra>Cor(-8.4)>Sag(2.9)",
  "ImageType": [
    "ORIGINAL",
    "PRIMARY",
    "M",
    "ND",
    "MOSAIC"
],
  "ImagingFrequency": 123.258,
  "InPlanePhaseEncodingDirectionDICOM": "COL",
  "InstitutionAddress": "Street StreetNo,Bei Jing,District,CN,ZIP",
  "InstitutionName": "BeiJing Normal University",
  "InstitutionalDepartmentName": "Department",
  "MRAcquisitionType": "2D",
  "MagneticFieldStrength": 3,
  "Manufacturer": "Siemens",
  "ManufacturersModelName": "Prisma",
  "Modality": "MR",
  "MultibandAccelerationFactor": 3,
  "PartialFourier": 1,
  "PatientPosition": "HFS",
  "PercentPhaseFOV": 100,
  "PercentSampling": 100,
  "PhaseEncodingDirection": "j-",
  "PhaseEncodingSteps": 100,
  "PhaseResolution": 1,
  "PixelBandwidth": 2380,
  "ProcedureStepDescription": "BNU_P2018_64CH^Zhen.ZongLei",
  "ProtocolName": "bold_100x100_s3_2x2x2_static_156",
  "PulseSequenceDetails": "%SiemensSeq%\\ep2d_bold",
  "ReceiveCoilActiveElements": "HC1-7;NC1",
  "ReceiveCoilName": "HeadNeck_64",
  "ReconMatrixPE": 100,
  "RefLinesPE": 32,
  "RepetitionTime": 2,
  "SAR": 0.0751495,
  "ScanOptions": "FS",
  "ScanningSequence": "EP",
  "SequenceName": "*epfid2d1_100",
  "SequenceVariant": "SK",
  "SeriesDescription": "bold_100x100_s3_2x2x2_static_156",
  "SeriesNumber": 8,
  "ShimSetting": [-5439, -11468, -1230, 312, 30, -224, -199, 26],
  "SliceThickness": 2,
  "SliceTiming": [1.485, 0, 0.99, 0.0825, 1.0725, 0.165, 1.155, 0.2475, 1.2375, 0.33, 1.32, 0.4125, 1.4025, 0.5775, 1.5675, 0.66, 1.65, 0.7425, 1.7325, 0.825, 1.815, 0.9075, 1.8975, 0.495, 1.485, 0, 0.99, 0.0825, 1.0725, 0.165, 1.155, 0.2475, 1.2375, 0.33, 1.32, 0.4125, 1.4025, 0.5775, 1.5675, 0.66, 1.65, 0.7425, 1.7325, 0.825, 1.815, 0.9075, 1.8975, 0.495, 1.485, 0, 0.99, 0.0825, 1.0725, 0.165, 1.155, 0.2475, 1.2375, 0.33, 1.32, 0.4125, 1.4025, 0.5775, 1.5675, 0.66, 1.65, 0.7425, 1.7325, 0.825, 1.815, 0.9075, 1.8975, 0.495],
  "SoftwareVersions": "syngo MR E11",
  "SpacingBetweenSlices": 2,
  "StationName": "AWP166078",
  "TaskName": "action",
  "TotalReadoutTime": 0.0534586,
  "TxRefAmp": 220.202,
  "dcmmeta_affine": [
    [-1.997438669204712, 8.835445441945922e-08, 0.1011858731508255, 94.16480255126953],
    [-0.014781450852751732, 1.9785447120666504, -0.2917918860912323, -81.85152435302734],
    [0.10010039806365967, 0.2921660542488098, 1.9760109186172485, -83.07733154296875],
    [0.0, 0.0, 0.0, 1.0]
],
  "dcmmeta_reorient_transform": [
    [0.0, -1.0, 0.0, 99.0],
    [1.0, 0.0, 0.0, 0.0],
    [0.0, 0.0, 1.0, 0.0],
    [0.0, 0.0, 0.0, 1.0]
],
  "dcmmeta_shape": [100, 100, 72, 156],
  "dcmmeta_slice_dim": 2,
  "dcmmeta_version": 0.6,
  "global": {
    "const": {
      "AcquisitionMatrix": [100, 0, 0, 100],
      "AngioFlag": "N",
      "BitsAllocated": 16,
      "BitsStored": 12,
      "BodyPartExamined": "BRAIN",
      "Columns": 900,
      "EchoNumbers": 1,
      "EchoTime": 34.0,
      "EchoTrainLength": 100,
      "FlipAngle": 90.0,
      "HighBit": 11,
      "ImageOrientationPatient": [0.99871935741091, 0.00739072549041, 0.05005019789637, 4.4177226e-08, 0.9892723333095, -0.1460830262158],
      "ImagePositionPatient": [-893.14033481189, -911.35484141327, 22.673369492625],
      "ImageType": [
        "ORIGINAL",
        "PRIMARY",
        "M",
        "ND",
        "MOSAIC"
],
      "ImagedNucleus": "1H",
      "ImagingFrequency": 123.257758,
      "InPlanePhaseEncodingDirection": "COL",
      "MRAcquisitionType": "2D",
      "MagneticFieldStrength": 3.0,
      "Manufacturer": "SIEMENS",
      "ManufacturerModelName": "Prisma",
      "Modality": "MR",
      "NumberOfAverages": 1.0,
      "NumberOfPhaseEncodingSteps": 100,
      "PercentPhaseFieldOfView": 100.0,
      "PercentSampling": 100.0,
      "PerformedProcedureStepStartTime": "154455.926000",
      "PhotometricInterpretation": "MONOCHROME2",
      "PixelBandwidth": 2380.0,
      "PixelRepresentation": 0,
      "PixelSpacing": [2.0, 2.0],
      "ProtocolName": "bold_100x100_s3_2x2x2_static_156",
      "RepetitionTime": 2000.0,
      "Rows": 900,
      "SAR": 0.0751495203387,
      "SamplesPerPixel": 1,
      "ScanOptions": "FS",
      "ScanningSequence": "EP",
      "SequenceName": "*epfid2d1_100",
      "SequenceVariant": "SK",
      "SeriesDescription": "bold_100x100_s3_2x2x2_static_156",
      "SeriesNumber": 8,
      "SeriesTime": "161829.067000",
      "SliceLocation": -65.374975221812,
      "SliceThickness": 2.0,
      "SmallestImagePixelValue": 0,
      "SoftwareVersions": "syngo MR E11",
      "SpacingBetweenSlices": 2.0000000150843,
      "SpecificCharacterSet": "ISO_IR 100",
      "StudyID": "1",
      "StudyTime": "154455.846000",
      "TransmitCoilName": "Body",
      "VariableFlipAngleFlag": "N",
      "WindowCenterWidthExplanation": "Algo1",
      "dBdt": 0.0},
    "slices": {}
  },
  "time": {
    "samples": {
      "AcquisitionNumber": [1, 2, 3, 4, 5, 6, 7, 8, 9, 10, 11, 12, 13, 14, 15, 16, 17, 18, 19, 20, 21, 22, 23, 24, 25, 26, 27, 28, 29, 30, 31, 32, 33, 34, 35, 36, 37, 38, 39, 40, 41, 42, 43, 44, 45, 46, 47, 48, 49, 50, 51, 52, 53, 54, 55, 56, 57, 58, 59, 60, 61, 62, 63, 64, 65, 66, 67, 68, 69, 70, 71, 72, 73, 74, 75, 76, 77, 78, 79, 80, 81, 82, 83, 84, 85, 86, 87, 88, 89, 90, 91, 92, 93, 94, 95, 96, 97, 98, 99, 100, 101, 102, 103, 104, 105, 106, 107, 108, 109, 110, 111, 112, 113, 114, 115, 116, 117, 118, 119, 120, 121, 122, 123, 124, 125, 126, 127, 128, 129, 130, 131, 132, 133, 134, 135, 136, 137, 138, 139, 140, 141, 142, 143, 144, 145, 146, 147, 148, 149, 150, 151, 152, 153, 154, 155, 156],
      "AcquisitionTime": ["161826.605000", "161828.605000", "161830.605000", "161832.605000", "161834.605000", "161836.605000", "161838.605000", "161840.605000", "161842.605000", "161844.605000", "161846.605000", "161848.605000", "161850.605000", "161852.605000", "161854.605000", "161856.605000", "161858.605000", "161900.605000", "161902.605000", "161904.605000", "161906.605000", "161908.605000", "161910.605000", "161912.605000", "161914.605000", "161916.605000", "161918.605000", "161920.605000", "161922.605000", "161924.605000", "161926.605000", "161928.605000", "161930.605000", "161932.605000", "161934.605000", "161936.605000", "161938.605000", "161940.605000", "161942.605000", "161944.605000", "161946.605000", "161948.605000", "161950.605000", "161952.605000", "161954.605000", "161956.605000", "161958.605000", "162000.605000", "162002.605000", "162004.605000", "162006.605000", "162008.605000", "162010.605000", "162012.605000", "162014.605000", "162016.605000", "162018.605000", "162020.605000", "162022.605000", "162024.605000", "162026.605000", "162028.605000", "162030.605000", "162032.605000", "162034.605000", "162036.605000", "162038.605000", "162040.605000", "162042.605000", "162044.605000", "162046.605000", "162048.605000", "162050.605000", "162052.605000", "162054.605000", "162056.605000", "162058.605000", "162100.605000", "162102.605000", "162104.605000", "162106.605000", "162108.605000", "162110.605000", "162112.605000", "162114.605000", "162116.605000", "162118.605000", "162120.605000", "162122.605000", "162124.605000", "162126.605000", "162128.605000", "162130.605000", "162132.605000", "162134.605000", "162136.605000", "162138.605000", "162140.605000", "162142.605000", "162144.605000", "162146.605000", "162148.605000", "162150.605000", "162152.605000", "162154.605000", "162156.605000", "162158.605000", "162200.605000", "162202.605000", "162204.605000", "162206.605000", "162208.605000", "162210.605000", "162212.605000", "162214.605000", "162216.605000", "162218.605000", "162220.605000", "162222.605000", "162224.605000", "162226.605000", "162228.605000", "162230.605000", "162232.605000", "162234.605000", "162236.605000", "162238.605000", "162240.605000", "162242.605000", "162244.605000", "162246.605000", "162248.605000", "162250.605000", "162252.605000", "162254.605000", "162256.605000", "162258.605000", "162300.605000", "162302.605000", "162304.605000", "162306.605000", "162308.605000", "162310.605000", "162312.605000", "162314.605000", "162316.605000", "162318.605000", "162320.605000", "162322.605000", "162324.605000", "162326.605000", "162328.605000", "162330.605000", "162332.605000", "162334.605000", "162336.605000"],
      "ContentTime": ["161829.071000", "161830.567000", "161832.567000", "161834.567000", "161836.566000", "161838.566000", "161840.567000", "161842.566000", "161844.566000", "161846.567000", "161848.567000", "161850.566000", "161852.566000", "161854.567000", "161856.566000", "161858.567000", "161900.567000", "161902.567000", "161904.567000", "161906.566000", "161908.567000", "161910.567000", "161912.566000", "161914.567000", "161916.566000", "161918.567000", "161920.567000", "161922.566000", "161924.566000", "161926.567000", "161928.566000", "161930.566000", "161932.567000", "161934.566000", "161936.566000", "161938.567000", "161940.566000", "161942.567000", "161944.566000", "161946.566000", "161948.566000", "161950.567000", "161952.566000", "161954.566000", "161956.566000", "161958.567000", "162000.566000", "162002.566000", "162004.567000", "162006.567000", "162008.566000", "162010.567000", "162012.567000", "162014.567000", "162016.567000", "162018.566000", "162020.566000", "162022.566000", "162024.567000", "162026.567000", "162028.566000", "162030.567000", "162032.567000", "162034.567000", "162036.567000", "162038.567000", "162040.566000", "162042.567000", "162044.566000", "162046.567000", "162048.567000", "162050.567000", "162052.566000", "162054.566000", "162056.566000", "162058.567000", "162100.567000", "162102.567000", "162104.567000", "162106.566000", "162108.567000", "162110.566000", "162112.567000", "162114.567000", "162116.566000", "162118.566000", "162120.567000", "162122.567000", "162124.567000", "162126.567000", "162128.566000", "162130.566000", "162132.566000", "162134.567000", "162136.567000", "162138.567000", "162140.567000", "162142.567000", "162144.566000", "162146.566000", "162148.567000", "162150.567000", "162152.566000", "162154.566000", "162156.567000", "162158.567000", "162200.567000", "162202.566000", "162204.567000", "162206.567000", "162208.566000", "162210.567000", "162212.567000", "162214.567000", "162216.566000", "162218.567000", "162220.566000", "162222.567000", "162224.567000", "162226.567000", "162228.567000", "162230.566000", "162232.567000", "162234.567000", "162236.567000", "162238.567000", "162240.567000", "162242.566000", "162244.567000", "162246.566000", "162248.567000", "162250.567000", "162252.567000", "162254.566000", "162256.566000", "162258.568000", "162300.567000", "162302.566000", "162304.567000", "162306.567000", "162308.566000", "162310.566000", "162312.567000", "162314.567000", "162316.566000", "162318.567000", "162320.567000", "162322.567000", "162324.567000", "162326.567000", "162328.567000", "162330.567000", "162332.566000", "162334.566000", "162336.567000", "162338.458000"],
      "InstanceCreationTime": ["161829.071000", "161830.567000", "161832.567000", "161834.567000", "161836.566000", "161838.566000", "161840.567000", "161842.566000", "161844.566000", "161846.567000", "161848.567000", "161850.566000", "161852.566000", "161854.567000", "161856.566000", "161858.567000", "161900.567000", "161902.567000", "161904.567000", "161906.566000", "161908.567000", "161910.567000", "161912.566000", "161914.567000", "161916.566000", "161918.567000", "161920.567000", "161922.566000", "161924.566000", "161926.567000", "161928.566000", "161930.566000", "161932.567000", "161934.566000", "161936.566000", "161938.567000", "161940.566000", "161942.567000", "161944.566000", "161946.566000", "161948.566000", "161950.567000", "161952.566000", "161954.566000", "161956.566000", "161958.567000", "162000.566000", "162002.566000", "162004.567000", "162006.567000", "162008.566000", "162010.567000", "162012.567000", "162014.567000", "162016.567000", "162018.566000", "162020.566000", "162022.566000", "162024.567000", "162026.567000", "162028.566000", "162030.567000", "162032.567000", "162034.567000", "162036.567000", "162038.567000", "162040.566000", "162042.567000", "162044.566000", "162046.567000", "162048.567000", "162050.567000", "162052.566000", "162054.566000", "162056.566000", "162058.567000", "162100.567000", "162102.567000", "162104.567000", "162106.566000", "162108.567000", "162110.566000", "162112.567000", "162114.567000", "162116.566000", "162118.566000", "162120.567000", "162122.567000", "162124.567000", "162126.567000", "162128.566000", "162130.566000", "162132.566000", "162134.567000", "162136.567000", "162138.567000", "162140.567000", "162142.567000", "162144.566000", "162146.566000", "162148.567000", "162150.567000", "162152.566000", "162154.566000", "162156.567000", "162158.567000", "162200.567000", "162202.566000", "162204.567000", "162206.567000", "162208.566000", "162210.567000", "162212.567000", "162214.567000", "162216.566000", "162218.567000", "162220.566000", "162222.567000", "162224.567000", "162226.567000", "162228.567000", "162230.566000", "162232.567000", "162234.567000", "162236.567000", "162238.567000", "162240.567000", "162242.566000", "162244.567000", "162246.566000", "162248.567000", "162250.567000", "162252.567000", "162254.566000", "162256.566000", "162258.568000", "162300.567000", "162302.566000", "162304.567000", "162306.567000", "162308.566000", "162310.566000", "162312.567000", "162314.567000", "162316.566000", "162318.567000", "162320.567000", "162322.567000", "162324.567000", "162326.567000", "162328.567000", "162330.567000", "162332.566000", "162334.566000", "162336.567000", "162338.458000"],
      "InstanceNumber": [1, 2, 3, 4, 5, 6, 7, 8, 9, 10, 11, 12, 13, 14, 15, 16, 17, 18, 19, 20, 21, 22, 23, 24, 25, 26, 27, 28, 29, 30, 31, 32, 33, 34, 35, 36, 37, 38, 39, 40, 41, 42, 43, 44, 45, 46, 47, 48, 49, 50, 51, 52, 53, 54, 55, 56, 57, 58, 59, 60, 61, 62, 63, 64, 65, 66, 67, 68, 69, 70, 71, 72, 73, 74, 75, 76, 77, 78, 79, 80, 81, 82, 83, 84, 85, 86, 87, 88, 89, 90, 91, 92, 93, 94, 95, 96, 97, 98, 99, 100, 101, 102, 103, 104, 105, 106, 107, 108, 109, 110, 111, 112, 113, 114, 115, 116, 117, 118, 119, 120, 121, 122, 123, 124, 125, 126, 127, 128, 129, 130, 131, 132, 133, 134, 135, 136, 137, 138, 139, 140, 141, 142, 143, 144, 145, 146, 147, 148, 149, 150, 151, 152, 153, 154, 155, 156],
      "LargestImagePixelValue": [3937, 3876, 3822, 3821, 3832, 3843, 3808, 3822, 3826, 3846, 3837, 3866, 3854, 3855, 3864, 3821, 3806, 3900, 3868, 3861, 3894, 3867, 3863, 3881, 3867, 3866, 3889, 3848, 3884, 3865, 3861, 3903, 3876, 3910, 3839, 3854, 3882, 3865, 3913, 3901, 3904, 3913, 3906, 3866, 3890, 3915, 3893, 3899, 3892, 3901, 3863, 3884, 3883, 3895, 3880, 3881, 3833, 3920, 3913, 3902, 3893, 3865, 3879, 3840, 3891, 3896, 3907, 3905, 3881, 3872, 3905, 3879, 3860, 3906, 3884, 3877, 3918, 3893, 3907, 3915, 3895, 3896, 3891, 3898, 3905, 3915, 3895, 3917, 3875, 3904, 3929, 3909, 3909, 3863, 3863, 3830, 3900, 3826, 3842, 3846, 3908, 3919, 3895, 3867, 3904, 3869, 3883, 3881, 3838, 3870, 3880, 3866, 3906, 3881, 3901, 3865, 3895, 3875, 3888, 3877, 3864, 3861, 3885, 3865, 3877, 3880, 3893, 3886, 3840, 3880, 3875, 3865, 3869, 3885, 3872, 3889, 3861, 3877, 3916, 3920, 3887, 3881, 3905, 3878, 3900, 3865, 3852, 3877, 3899, 3876, 3846, 3871, 3874, 3853, 3862, 3845],
      "WindowCenter": [816.0, 814.0, 815.0, 815.0, 815.0, 814.0, 813.0, 814.0, 814.0, 814.0, 814.0, 814.0, 815.0, 814.0, 813.0, 814.0, 815.0, 814.0, 813.0, 812.0, 813.0, 814.0, 813.0, 813.0, 812.0, 812.0, 812.0, 811.0, 811.0, 812.0, 813.0, 814.0, 813.0, 812.0, 812.0, 814.0, 816.0, 815.0, 813.0, 813.0, 813.0, 813.0, 813.0, 815.0, 816.0, 815.0, 814.0, 815.0, 816.0, 815.0, 815.0, 815.0, 815.0, 814.0, 813.0, 814.0, 816.0, 816.0, 814.0, 813.0, 813.0, 812.0, 813.0, 815.0, 815.0, 815.0, 817.0, 815.0, 813.0, 813.0, 813.0, 812.0, 813.0, 813.0, 813.0, 814.0, 815.0, 815.0, 815.0, 814.0, 814.0, 814.0, 814.0, 815.0, 816.0, 815.0, 814.0, 814.0, 815.0, 818.0, 816.0, 813.0, 812.0, 811.0, 810.0, 811.0, 814.0, 818.0, 821.0, 819.0, 816.0, 814.0, 812.0, 811.0, 812.0, 812.0, 811.0, 811.0, 812.0, 813.0, 814.0, 815.0, 815.0, 814.0, 813.0, 815.0, 816.0, 816.0, 815.0, 814.0, 814.0, 813.0, 814.0, 816.0, 816.0, 815.0, 815.0, 815.0, 814.0, 814.0, 815.0, 817.0, 815.0, 815.0, 814.0, 816.0, 818.0, 817.0, 814.0, 814.0, 816.0, 816.0, 815.0, 814.0, 813.0, 816.0, 817.0, 816.0, 815.0, 814.0, 814.0, 814.0, 814.0, 816.0, 815.0, 815.0],
      "WindowWidth": [1763.0, 1757.0, 1758.0, 1759.0, 1759.0, 1757.0, 1755.0, 1756.0, 1757.0, 1758.0, 1757.0, 1757.0, 1759.0, 1758.0, 1754.0, 1757.0, 1759.0, 1758.0, 1754.0, 1752.0, 1755.0, 1756.0, 1755.0, 1754.0, 1752.0, 1751.0, 1750.0, 1749.0, 1749.0, 1752.0, 1755.0, 1756.0, 1753.0, 1750.0, 1750.0, 1757.0, 1762.0, 1759.0, 1755.0, 1755.0, 1754.0, 1754.0, 1754.0, 1760.0, 1763.0, 1760.0, 1756.0, 1759.0, 1762.0, 1759.0, 1758.0, 1760.0, 1760.0, 1757.0, 1753.0, 1756.0, 1761.0, 1761.0, 1756.0, 1752.0, 1753.0, 1751.0, 1753.0, 1758.0, 1758.0, 1760.0, 1763.0, 1759.0, 1754.0, 1754.0, 1753.0, 1752.0, 1753.0, 1755.0, 1754.0, 1756.0, 1760.0, 1760.0, 1758.0, 1755.0, 1755.0, 1756.0, 1755.0, 1760.0, 1761.0, 1760.0, 1757.0, 1756.0, 1760.0, 1768.0, 1762.0, 1752.0, 1750.0, 1749.0, 1747.0, 1748.0, 1755.0, 1768.0, 1774.0, 1768.0, 1761.0, 1756.0, 1751.0, 1748.0, 1750.0, 1750.0, 1749.0, 1749.0, 1751.0, 1754.0, 1756.0, 1758.0, 1758.0, 1756.0, 1754.0, 1758.0, 1763.0, 1761.0, 1758.0, 1756.0, 1755.0, 1755.0, 1757.0, 1763.0, 1762.0, 1759.0, 1758.0, 1758.0, 1757.0, 1756.0, 1759.0, 1763.0, 1760.0, 1758.0, 1756.0, 1762.0, 1767.0, 1763.0, 1756.0, 1756.0, 1763.0, 1763.0, 1759.0, 1756.0, 1755.0, 1763.0, 1765.0, 1763.0, 1758.0, 1757.0, 1757.0, 1756.0, 1756.0, 1762.0, 1760.0, 1757.0]
    },
    "slices": {}
  }
}