{
  "AcquisitionMatrixPE": 100,
  "AcquisitionNumber": 1,
  "AcquisitionTime": "16:56:17.587500",
  "BandwidthPerPixelPhaseEncode": 18.519,
  "BaseResolution": 100,
  "BodyPartExamined": "BRAIN",
  "CoilCombinationMethod": "Sum of Squares",
  "ConsistencyInfo": "N4_VE11C_LATEST_20160120",
  "ConversionSoftware": "dcm2niix",
  "ConversionSoftwareVersion": "v1.0.20211006",
  "DerivedVendorReportedEchoSpacing": 0.000539986,
  "DeviceSerialNumber": "166078",
  "DwellTime": 2.1e-06,
  "EchoTime": 0.034,
  "EchoTrainLength": 100,
  "EffectiveEchoSpacing": 0.000539986,
  "FlipAngle": 90,
  "ImageOrientationPatientDICOM": [0.998719, 0.00739073, 0.0500502, 4.41772e-08, 0.989272, -0.146083],
  "ImageOrientationText": "Tra>Cor(-8.4)>Sag(2.9)",
  "ImageType": [
    "ORIGINAL",
    "PRIMARY",
    "M",
    "ND",
    "MOSAIC"
],
  "ImagingFrequency": 123.258,
  "InPlanePhaseEncodingDirectionDICOM": "COL",
  "InstitutionAddress": "Street StreetNo,Bei Jing,District,CN,ZIP",
  "InstitutionName": "BeiJing Normal University",
  "InstitutionalDepartmentName": "Department",
  "MRAcquisitionType": "2D",
  "MagneticFieldStrength": 3,
  "Manufacturer": "Siemens",
  "ManufacturersModelName": "Prisma",
  "Modality": "MR",
  "MultibandAccelerationFactor": 3,
  "PartialFourier": 1,
  "PatientPosition": "HFS",
  "PercentPhaseFOV": 100,
  "PercentSampling": 100,
  "PhaseEncodingDirection": "j-",
  "PhaseEncodingSteps": 100,
  "PhaseResolution": 1,
  "PixelBandwidth": 2380,
  "ProcedureStepDescription": "BNU_P2018_64CH^Zhen.ZongLei",
  "ProtocolName": "bold_100x100_s3_2x2x2_static_156",
  "PulseSequenceDetails": "%SiemensSeq%\\ep2d_bold",
  "ReceiveCoilActiveElements": "HC1-7;NC1",
  "ReceiveCoilName": "HeadNeck_64",
  "ReconMatrixPE": 100,
  "RefLinesPE": 32,
  "RepetitionTime": 2,
  "SAR": 0.0751495,
  "ScanOptions": "FS",
  "ScanningSequence": "EP",
  "SequenceName": "*epfid2d1_100",
  "SequenceVariant": "SK",
  "SeriesDescription": "bold_100x100_s3_2x2x2_static_156",
  "SeriesNumber": 16,
  "ShimSetting": [-5439, -11468, -1230, 312, 30, -224, -199, 26],
  "SliceThickness": 2,
  "SliceTiming": [1.485, 0, 0.99, 0.0825, 1.0725, 0.165, 1.155, 0.2475, 1.2375, 0.33, 1.32, 0.4125, 1.4025, 0.5775, 1.5675, 0.66, 1.65, 0.7425, 1.7325, 0.825, 1.815, 0.9075, 1.8975, 0.495, 1.485, 0, 0.99, 0.0825, 1.0725, 0.165, 1.155, 0.2475, 1.2375, 0.33, 1.32, 0.4125, 1.4025, 0.5775, 1.5675, 0.66, 1.65, 0.7425, 1.7325, 0.825, 1.815, 0.9075, 1.8975, 0.495, 1.485, 0, 0.99, 0.0825, 1.0725, 0.165, 1.155, 0.2475, 1.2375, 0.33, 1.32, 0.4125, 1.4025, 0.5775, 1.5675, 0.66, 1.65, 0.7425, 1.7325, 0.825, 1.815, 0.9075, 1.8975, 0.495],
  "SoftwareVersions": "syngo MR E11",
  "SpacingBetweenSlices": 2,
  "StationName": "AWP166078",
  "TaskName": "action",
  "TotalReadoutTime": 0.0534586,
  "TxRefAmp": 220.202,
  "dcmmeta_affine": [
    [-1.997438669204712, 8.835445441945922e-08, 0.1011858731508255, 94.16480255126953],
    [-0.014781450852751732, 1.9785447120666504, -0.2917918860912323, -81.85152435302734],
    [0.10010039806365967, 0.2921660542488098, 1.9760109186172485, -83.07733154296875],
    [0.0, 0.0, 0.0, 1.0]
],
  "dcmmeta_reorient_transform": [
    [0.0, -1.0, 0.0, 99.0],
    [1.0, 0.0, 0.0, 0.0],
    [0.0, 0.0, 1.0, 0.0],
    [0.0, 0.0, 0.0, 1.0]
],
  "dcmmeta_shape": [100, 100, 72, 156],
  "dcmmeta_slice_dim": 2,
  "dcmmeta_version": 0.6,
  "global": {
    "const": {
      "AcquisitionMatrix": [100, 0, 0, 100],
      "AngioFlag": "N",
      "BitsAllocated": 16,
      "BitsStored": 12,
      "BodyPartExamined": "BRAIN",
      "Columns": 900,
      "EchoNumbers": 1,
      "EchoTime": 34.0,
      "EchoTrainLength": 100,
      "FlipAngle": 90.0,
      "HighBit": 11,
      "ImageOrientationPatient": [0.99871935741091, 0.00739072549041, 0.05005019789637, 4.4177226e-08, 0.9892723333095, -0.1460830262158],
      "ImagePositionPatient": [-893.14033481189, -911.35484141327, 22.673369492625],
      "ImageType": [
        "ORIGINAL",
        "PRIMARY",
        "M",
        "ND",
        "MOSAIC"
],
      "ImagedNucleus": "1H",
      "ImagingFrequency": 123.257761,
      "InPlanePhaseEncodingDirection": "COL",
      "MRAcquisitionType": "2D",
      "MagneticFieldStrength": 3.0,
      "Manufacturer": "SIEMENS",
      "ManufacturerModelName": "Prisma",
      "Modality": "MR",
      "NumberOfAverages": 1.0,
      "NumberOfPhaseEncodingSteps": 100,
      "PercentPhaseFieldOfView": 100.0,
      "PercentSampling": 100.0,
      "PerformedProcedureStepStartTime": "154455.926000",
      "PhotometricInterpretation": "MONOCHROME2",
      "PixelBandwidth": 2380.0,
      "PixelRepresentation": 0,
      "PixelSpacing": [2.0, 2.0],
      "ProtocolName": "bold_100x100_s3_2x2x2_static_156",
      "RepetitionTime": 2000.0,
      "Rows": 900,
      "SAR": 0.0751495203387,
      "SamplesPerPixel": 1,
      "ScanOptions": "FS",
      "ScanningSequence": "EP",
      "SequenceName": "*epfid2d1_100",
      "SequenceVariant": "SK",
      "SeriesDescription": "bold_100x100_s3_2x2x2_static_156",
      "SeriesNumber": 16,
      "SeriesTime": "165620.010000",
      "SliceLocation": -65.374975221812,
      "SliceThickness": 2.0,
      "SmallestImagePixelValue": 0,
      "SoftwareVersions": "syngo MR E11",
      "SpacingBetweenSlices": 2.0000000150843,
      "SpecificCharacterSet": "ISO_IR 100",
      "StudyID": "1",
      "StudyTime": "154455.846000",
      "TransmitCoilName": "Body",
      "VariableFlipAngleFlag": "N",
      "WindowCenterWidthExplanation": "Algo1",
      "dBdt": 0.0},
    "slices": {}
  },
  "time": {
    "samples": {
      "AcquisitionNumber": [1, 2, 3, 4, 5, 6, 7, 8, 9, 10, 11, 12, 13, 14, 15, 16, 17, 18, 19, 20, 21, 22, 23, 24, 25, 26, 27, 28, 29, 30, 31, 32, 33, 34, 35, 36, 37, 38, 39, 40, 41, 42, 43, 44, 45, 46, 47, 48, 49, 50, 51, 52, 53, 54, 55, 56, 57, 58, 59, 60, 61, 62, 63, 64, 65, 66, 67, 68, 69, 70, 71, 72, 73, 74, 75, 76, 77, 78, 79, 80, 81, 82, 83, 84, 85, 86, 87, 88, 89, 90, 91, 92, 93, 94, 95, 96, 97, 98, 99, 100, 101, 102, 103, 104, 105, 106, 107, 108, 109, 110, 111, 112, 113, 114, 115, 116, 117, 118, 119, 120, 121, 122, 123, 124, 125, 126, 127, 128, 129, 130, 131, 132, 133, 134, 135, 136, 137, 138, 139, 140, 141, 142, 143, 144, 145, 146, 147, 148, 149, 150, 151, 152, 153, 154, 155, 156],
      "AcquisitionTime": ["165617.587500", "165619.587500", "165621.587500", "165623.587500", "165625.587500", "165627.587500", "165629.587500", "165631.587500", "165633.587500", "165635.587500", "165637.587500", "165639.587500", "165641.587500", "165643.587500", "165645.587500", "165647.587500", "165649.587500", "165651.587500", "165653.587500", "165655.587500", "165657.587500", "165659.587500", "165701.587500", "165703.587500", "165705.587500", "165707.587500", "165709.587500", "165711.587500", "165713.587500", "165715.587500", "165717.587500", "165719.587500", "165721.587500", "165723.587500", "165725.587500", "165727.587500", "165729.587500", "165731.587500", "165733.587500", "165735.587500", "165737.587500", "165739.587500", "165741.587500", "165743.587500", "165745.587500", "165747.587500", "165749.587500", "165751.587500", "165753.587500", "165755.587500", "165757.587500", "165759.587500", "165801.587500", "165803.587500", "165805.587500", "165807.587500", "165809.587500", "165811.587500", "165813.587500", "165815.587500", "165817.587500", "165819.587500", "165821.587500", "165823.587500", "165825.587500", "165827.587500", "165829.587500", "165831.587500", "165833.587500", "165835.587500", "165837.587500", "165839.587500", "165841.587500", "165843.587500", "165845.587500", "165847.587500", "165849.587500", "165851.587500", "165853.587500", "165855.587500", "165857.587500", "165859.587500", "165901.587500", "165903.587500", "165905.587500", "165907.587500", "165909.587500", "165911.587500", "165913.587500", "165915.587500", "165917.587500", "165919.587500", "165921.587500", "165923.587500", "165925.587500", "165927.587500", "165929.587500", "165931.587500", "165933.587500", "165935.587500", "165937.587500", "165939.587500", "165941.587500", "165943.587500", "165945.587500", "165947.587500", "165949.587500", "165951.587500", "165953.587500", "165955.587500", "165957.587500", "165959.587500", "170001.587500", "170003.587500", "170005.587500", "170007.587500", "170009.587500", "170011.587500", "170013.587500", "170015.587500", "170017.587500", "170019.587500", "170021.587500", "170023.587500", "170025.587500", "170027.587500", "170029.587500", "170031.587500", "170033.587500", "170035.587500", "170037.587500", "170039.587500", "170041.587500", "170043.587500", "170045.587500", "170047.587500", "170049.587500", "170051.587500", "170053.587500", "170055.587500", "170057.587500", "170059.587500", "170101.587500", "170103.587500", "170105.587500", "170107.587500", "170109.587500", "170111.587500", "170113.587500", "170115.587500", "170117.587500", "170119.587500", "170121.587500", "170123.587500", "170125.587500", "170127.587500"],
      "ContentTime": ["165620.014000", "165621.510000", "165623.509000", "165625.511000", "165627.510000", "165629.510000", "165631.511000", "165633.510000", "165635.510000", "165637.510000", "165639.509000", "165641.511000", "165643.511000", "165645.510000", "165647.511000", "165649.511000", "165651.511000", "165653.510000", "165655.510000", "165657.510000", "165659.511000", "165701.511000", "165703.511000", "165705.511000", "165707.511000", "165709.511000", "165711.511000", "165713.509000", "165715.510000", "165717.510000", "165719.510000", "165721.511000", "165723.511000", "165725.510000", "165727.511000", "165729.509000", "165731.510000", "165733.510000", "165735.510000", "165737.511000", "165739.510000", "165741.511000", "165743.511000", "165745.510000", "165747.510000", "165749.510000", "165751.510000", "165753.511000", "165755.511000", "165757.510000", "165759.511000", "165801.511000", "165803.511000", "165805.509000", "165807.509000", "165809.510000", "165811.511000", "165813.511000", "165815.510000", "165817.511000", "165819.510000", "165821.511000", "165823.510000", "165825.509000", "165827.510000", "165829.510000", "165831.511000", "165833.511000", "165835.511000", "165837.510000", "165839.509000", "165841.509000", "165843.509000", "165845.510000", "165847.511000", "165849.511000", "165851.511000", "165853.511000", "165855.511000", "165857.510000", "165859.509000", "165901.511000", "165903.511000", "165905.510000", "165907.511000", "165909.511000", "165911.511000", "165913.511000", "165915.510000", "165917.509000", "165919.510000", "165921.511000", "165923.511000", "165925.510000", "165927.511000", "165929.511000", "165931.511000", "165933.510000", "165935.509000", "165937.511000", "165939.511000", "165941.511000", "165943.511000", "165945.511000", "165947.511000", "165949.510000", "165951.509000", "165953.509000", "165955.510000", "165957.511000", "165959.511000", "170001.511000", "170003.511000", "170005.511000", "170007.510000", "170009.510000", "170011.510000", "170013.511000", "170015.510000", "170017.510000", "170019.511000", "170021.511000", "170023.511000", "170025.509000", "170027.509000", "170029.510000", "170031.510000", "170033.511000", "170035.511000", "170037.510000", "170039.510000", "170041.511000", "170043.510000", "170045.510000", "170047.510000", "170049.511000", "170051.511000", "170053.511000", "170055.511000", "170057.510000", "170059.510000", "170101.510000", "170103.509000", "170105.511000", "170107.511000", "170109.511000", "170111.510000", "170113.510000", "170115.510000", "170117.510000", "170119.510000", "170121.510000", "170123.511000", "170125.511000", "170127.524000", "170129.060000"],
      "InstanceCreationTime": ["165620.014000", "165621.510000", "165623.509000", "165625.511000", "165627.510000", "165629.510000", "165631.511000", "165633.510000", "165635.510000", "165637.510000", "165639.509000", "165641.511000", "165643.511000", "165645.510000", "165647.511000", "165649.511000", "165651.511000", "165653.510000", "165655.510000", "165657.510000", "165659.511000", "165701.511000", "165703.511000", "165705.511000", "165707.511000", "165709.511000", "165711.511000", "165713.509000", "165715.510000", "165717.510000", "165719.510000", "165721.511000", "165723.511000", "165725.510000", "165727.511000", "165729.509000", "165731.510000", "165733.510000", "165735.510000", "165737.511000", "165739.510000", "165741.511000", "165743.511000", "165745.510000", "165747.510000", "165749.510000", "165751.510000", "165753.511000", "165755.511000", "165757.510000", "165759.511000", "165801.511000", "165803.511000", "165805.509000", "165807.509000", "165809.510000", "165811.511000", "165813.511000", "165815.510000", "165817.511000", "165819.510000", "165821.511000", "165823.510000", "165825.509000", "165827.510000", "165829.510000", "165831.511000", "165833.511000", "165835.511000", "165837.510000", "165839.509000", "165841.509000", "165843.509000", "165845.510000", "165847.511000", "165849.511000", "165851.511000", "165853.511000", "165855.511000", "165857.510000", "165859.509000", "165901.511000", "165903.511000", "165905.510000", "165907.511000", "165909.511000", "165911.511000", "165913.511000", "165915.510000", "165917.509000", "165919.510000", "165921.511000", "165923.511000", "165925.510000", "165927.511000", "165929.511000", "165931.511000", "165933.510000", "165935.509000", "165937.511000", "165939.511000", "165941.511000", "165943.511000", "165945.511000", "165947.511000", "165949.510000", "165951.509000", "165953.509000", "165955.510000", "165957.511000", "165959.511000", "170001.511000", "170003.511000", "170005.511000", "170007.510000", "170009.510000", "170011.510000", "170013.511000", "170015.510000", "170017.510000", "170019.511000", "170021.511000", "170023.511000", "170025.509000", "170027.509000", "170029.510000", "170031.510000", "170033.511000", "170035.511000", "170037.510000", "170039.510000", "170041.511000", "170043.510000", "170045.510000", "170047.510000", "170049.511000", "170051.511000", "170053.511000", "170055.511000", "170057.510000", "170059.510000", "170101.510000", "170103.509000", "170105.511000", "170107.511000", "170109.511000", "170111.510000", "170113.510000", "170115.510000", "170117.510000", "170119.510000", "170121.510000", "170123.511000", "170125.511000", "170127.524000", "170129.060000"],
      "InstanceNumber": [1, 2, 3, 4, 5, 6, 7, 8, 9, 10, 11, 12, 13, 14, 15, 16, 17, 18, 19, 20, 21, 22, 23, 24, 25, 26, 27, 28, 29, 30, 31, 32, 33, 34, 35, 36, 37, 38, 39, 40, 41, 42, 43, 44, 45, 46, 47, 48, 49, 50, 51, 52, 53, 54, 55, 56, 57, 58, 59, 60, 61, 62, 63, 64, 65, 66, 67, 68, 69, 70, 71, 72, 73, 74, 75, 76, 77, 78, 79, 80, 81, 82, 83, 84, 85, 86, 87, 88, 89, 90, 91, 92, 93, 94, 95, 96, 97, 98, 99, 100, 101, 102, 103, 104, 105, 106, 107, 108, 109, 110, 111, 112, 113, 114, 115, 116, 117, 118, 119, 120, 121, 122, 123, 124, 125, 126, 127, 128, 129, 130, 131, 132, 133, 134, 135, 136, 137, 138, 139, 140, 141, 142, 143, 144, 145, 146, 147, 148, 149, 150, 151, 152, 153, 154, 155, 156],
      "LargestImagePixelValue": [3822, 3732, 3702, 3701, 3667, 3783, 3668, 3708, 3691, 3721, 3715, 3675, 3705, 3703, 3698, 3736, 3700, 3738, 3712, 3732, 3707, 3730, 3717, 3743, 3737, 3741, 3726, 3738, 3759, 3735, 3744, 3723, 3730, 3727, 3746, 3734, 3761, 3742, 3766, 3743, 3766, 3720, 3741, 3705, 3766, 3748, 3764, 3754, 3746, 3765, 3727, 3736, 3746, 3757, 3759, 3747, 3770, 3758, 3753, 3744, 3765, 3740, 3747, 3765, 3732, 3749, 3761, 3759, 3776, 3743, 3749, 3772, 3758, 3757, 3747, 3746, 3755, 3749, 3779, 3734, 3777, 3785, 3754, 3752, 3783, 3738, 3783, 3795, 3782, 3771, 3761, 3736, 3757, 3776, 3773, 3774, 3755, 3739, 3744, 3766, 3747, 3758, 3735, 3742, 3765, 3778, 3764, 3772, 3767, 3745, 3756, 3762, 3744, 3769, 3733, 3759, 3740, 3776, 3791, 3789, 3785, 3796, 3779, 3729, 3781, 3736, 3775, 3759, 3761, 3783, 3780, 3757, 3773, 3762, 3797, 3772, 3752, 3753, 3764, 3741, 3760, 3769, 3759, 3776, 3786, 3742, 3759, 3745, 3778, 3765, 3737, 3743, 3757, 3748, 3741, 3744],
      "WindowCenter": [812.0, 810.0, 810.0, 811.0, 809.0, 806.0, 808.0, 809.0, 810.0, 810.0, 810.0, 811.0, 812.0, 812.0, 811.0, 811.0, 811.0, 812.0, 812.0, 811.0, 811.0, 813.0, 812.0, 811.0, 810.0, 810.0, 810.0, 810.0, 810.0, 809.0, 808.0, 810.0, 811.0, 810.0, 809.0, 809.0, 810.0, 809.0, 808.0, 809.0, 810.0, 810.0, 807.0, 805.0, 809.0, 810.0, 809.0, 810.0, 810.0, 810.0, 808.0, 807.0, 808.0, 810.0, 810.0, 808.0, 808.0, 809.0, 809.0, 810.0, 810.0, 810.0, 810.0, 811.0, 812.0, 811.0, 809.0, 810.0, 812.0, 810.0, 810.0, 814.0, 816.0, 814.0, 811.0, 810.0, 809.0, 808.0, 808.0, 808.0, 808.0, 808.0, 808.0, 810.0, 811.0, 811.0, 811.0, 811.0, 811.0, 813.0, 813.0, 810.0, 810.0, 810.0, 810.0, 810.0, 810.0, 809.0, 809.0, 809.0, 809.0, 812.0, 812.0, 811.0, 810.0, 811.0, 810.0, 810.0, 810.0, 810.0, 810.0, 811.0, 812.0, 812.0, 810.0, 809.0, 809.0, 809.0, 810.0, 810.0, 810.0, 810.0, 811.0, 812.0, 812.0, 810.0, 811.0, 812.0, 812.0, 812.0, 811.0, 811.0, 812.0, 814.0, 814.0, 811.0, 810.0, 810.0, 811.0, 811.0, 811.0, 811.0, 811.0, 811.0, 812.0, 811.0, 810.0, 811.0, 812.0, 813.0, 812.0, 810.0, 813.0, 817.0, 816.0, 813.0],
      "WindowWidth": [1751.0, 1747.0, 1746.0, 1747.0, 1743.0, 1736.0, 1740.0, 1743.0, 1744.0, 1746.0, 1746.0, 1749.0, 1751.0, 1750.0, 1749.0, 1748.0, 1748.0, 1752.0, 1751.0, 1748.0, 1748.0, 1753.0, 1752.0, 1749.0, 1747.0, 1747.0, 1746.0, 1747.0, 1746.0, 1744.0, 1742.0, 1746.0, 1750.0, 1747.0, 1744.0, 1744.0, 1745.0, 1743.0, 1742.0, 1743.0, 1748.0, 1746.0, 1737.0, 1734.0, 1744.0, 1747.0, 1743.0, 1745.0, 1747.0, 1746.0, 1741.0, 1739.0, 1742.0, 1748.0, 1746.0, 1741.0, 1740.0, 1742.0, 1744.0, 1745.0, 1746.0, 1746.0, 1746.0, 1749.0, 1750.0, 1747.0, 1744.0, 1745.0, 1750.0, 1745.0, 1745.0, 1757.0, 1763.0, 1757.0, 1749.0, 1744.0, 1744.0, 1741.0, 1740.0, 1740.0, 1741.0, 1742.0, 1741.0, 1745.0, 1748.0, 1749.0, 1749.0, 1748.0, 1749.0, 1755.0, 1753.0, 1746.0, 1746.0, 1746.0, 1746.0, 1747.0, 1745.0, 1743.0, 1744.0, 1744.0, 1744.0, 1751.0, 1752.0, 1748.0, 1747.0, 1748.0, 1747.0, 1747.0, 1745.0, 1745.0, 1746.0, 1749.0, 1750.0, 1750.0, 1747.0, 1743.0, 1742.0, 1744.0, 1746.0, 1746.0, 1745.0, 1747.0, 1750.0, 1751.0, 1750.0, 1746.0, 1749.0, 1752.0, 1750.0, 1750.0, 1749.0, 1748.0, 1750.0, 1756.0, 1755.0, 1748.0, 1746.0, 1747.0, 1749.0, 1748.0, 1749.0, 1749.0, 1748.0, 1749.0, 1750.0, 1748.0, 1747.0, 1747.0, 1752.0, 1753.0, 1750.0, 1745.0, 1753.0, 1764.0, 1761.0, 1751.0]
    },
    "slices": {}
  }
}