{
  "AcquisitionMatrixPE": 100,
  "AcquisitionNumber": 1,
  "AcquisitionTime": "16:32:52.607500",
  "BandwidthPerPixelPhaseEncode": 18.519,
  "BaseResolution": 100,
  "BodyPartExamined": "BRAIN",
  "CoilCombinationMethod": "Sum of Squares",
  "ConsistencyInfo": "N4_VE11C_LATEST_20160120",
  "ConversionSoftware": "dcm2niix",
  "ConversionSoftwareVersion": "v1.0.20211006",
  "DerivedVendorReportedEchoSpacing": 0.000539986,
  "DeviceSerialNumber": "166078",
  "DwellTime": 2.1e-06,
  "EchoTime": 0.034,
  "EchoTrainLength": 100,
  "EffectiveEchoSpacing": 0.000539986,
  "FlipAngle": 90,
  "ImageOrientationPatientDICOM": [0.998719, 0.00739073, 0.0500502, 4.41772e-08, 0.989272, -0.146083],
  "ImageOrientationText": "Tra>Cor(-8.4)>Sag(2.9)",
  "ImageType": [
    "ORIGINAL",
    "PRIMARY",
    "M",
    "ND",
    "MOSAIC"
],
  "ImagingFrequency": 123.258,
  "InPlanePhaseEncodingDirectionDICOM": "COL",
  "InstitutionAddress": "Street StreetNo,Bei Jing,District,CN,ZIP",
  "InstitutionName": "BeiJing Normal University",
  "InstitutionalDepartmentName": "Department",
  "MRAcquisitionType": "2D",
  "MagneticFieldStrength": 3,
  "Manufacturer": "Siemens",
  "ManufacturersModelName": "Prisma",
  "Modality": "MR",
  "MultibandAccelerationFactor": 3,
  "PartialFourier": 1,
  "PatientPosition": "HFS",
  "PercentPhaseFOV": 100,
  "PercentSampling": 100,
  "PhaseEncodingDirection": "j-",
  "PhaseEncodingSteps": 100,
  "PhaseResolution": 1,
  "PixelBandwidth": 2380,
  "ProcedureStepDescription": "BNU_P2018_64CH^Zhen.ZongLei",
  "ProtocolName": "bold_100x100_s3_2x2x2_static_156",
  "PulseSequenceDetails": "%SiemensSeq%\\ep2d_bold",
  "ReceiveCoilActiveElements": "HC1-7;NC1",
  "ReceiveCoilName": "HeadNeck_64",
  "ReconMatrixPE": 100,
  "RefLinesPE": 32,
  "RepetitionTime": 2,
  "SAR": 0.0751495,
  "ScanOptions": "FS",
  "ScanningSequence": "EP",
  "SequenceName": "*epfid2d1_100",
  "SequenceVariant": "SK",
  "SeriesDescription": "bold_100x100_s3_2x2x2_static_156",
  "SeriesNumber": 12,
  "ShimSetting": [-5439, -11468, -1230, 312, 30, -224, -199, 26],
  "SliceThickness": 2,
  "SliceTiming": [1.485, 0, 0.99, 0.0825, 1.0725, 0.165, 1.155, 0.2475, 1.2375, 0.33, 1.32, 0.4125, 1.4025, 0.5775, 1.5675, 0.66, 1.65, 0.7425, 1.7325, 0.825, 1.815, 0.9075, 1.8975, 0.495, 1.485, 0, 0.99, 0.0825, 1.0725, 0.165, 1.155, 0.2475, 1.2375, 0.33, 1.32, 0.4125, 1.4025, 0.5775, 1.5675, 0.66, 1.65, 0.7425, 1.7325, 0.825, 1.815, 0.9075, 1.8975, 0.495, 1.485, 0, 0.99, 0.0825, 1.0725, 0.165, 1.155, 0.2475, 1.2375, 0.33, 1.32, 0.4125, 1.4025, 0.5775, 1.5675, 0.66, 1.65, 0.7425, 1.7325, 0.825, 1.815, 0.9075, 1.8975, 0.495],
  "SoftwareVersions": "syngo MR E11",
  "SpacingBetweenSlices": 2,
  "StationName": "AWP166078",
  "TaskName": "action",
  "TotalReadoutTime": 0.0534586,
  "TxRefAmp": 220.202,
  "dcmmeta_affine": [
    [-1.997438669204712, 8.835445441945922e-08, 0.1011858731508255, 94.16480255126953],
    [-0.014781450852751732, 1.9785447120666504, -0.2917918860912323, -81.85152435302734],
    [0.10010039806365967, 0.2921660542488098, 1.9760109186172485, -83.07733154296875],
    [0.0, 0.0, 0.0, 1.0]
],
  "dcmmeta_reorient_transform": [
    [0.0, -1.0, 0.0, 99.0],
    [1.0, 0.0, 0.0, 0.0],
    [0.0, 0.0, 1.0, 0.0],
    [0.0, 0.0, 0.0, 1.0]
],
  "dcmmeta_shape": [100, 100, 72, 156],
  "dcmmeta_slice_dim": 2,
  "dcmmeta_version": 0.6,
  "global": {
    "const": {
      "AcquisitionMatrix": [100, 0, 0, 100],
      "AngioFlag": "N",
      "BitsAllocated": 16,
      "BitsStored": 12,
      "BodyPartExamined": "BRAIN",
      "Columns": 900,
      "EchoNumbers": 1,
      "EchoTime": 34.0,
      "EchoTrainLength": 100,
      "FlipAngle": 90.0,
      "HighBit": 11,
      "ImageOrientationPatient": [0.99871935741091, 0.00739072549041, 0.05005019789637, 4.4177226e-08, 0.9892723333095, -0.1460830262158],
      "ImagePositionPatient": [-893.14033481189, -911.35484141327, 22.673369492625],
      "ImageType": [
        "ORIGINAL",
        "PRIMARY",
        "M",
        "ND",
        "MOSAIC"
],
      "ImagedNucleus": "1H",
      "ImagingFrequency": 123.257757,
      "InPlanePhaseEncodingDirection": "COL",
      "MRAcquisitionType": "2D",
      "MagneticFieldStrength": 3.0,
      "Manufacturer": "SIEMENS",
      "ManufacturerModelName": "Prisma",
      "Modality": "MR",
      "NumberOfAverages": 1.0,
      "NumberOfPhaseEncodingSteps": 100,
      "PercentPhaseFieldOfView": 100.0,
      "PercentSampling": 100.0,
      "PerformedProcedureStepStartTime": "154455.926000",
      "PhotometricInterpretation": "MONOCHROME2",
      "PixelBandwidth": 2380.0,
      "PixelRepresentation": 0,
      "PixelSpacing": [2.0, 2.0],
      "ProtocolName": "bold_100x100_s3_2x2x2_static_156",
      "RepetitionTime": 2000.0,
      "Rows": 900,
      "SAR": 0.0751495203387,
      "SamplesPerPixel": 1,
      "ScanOptions": "FS",
      "ScanningSequence": "EP",
      "SequenceName": "*epfid2d1_100",
      "SequenceVariant": "SK",
      "SeriesDescription": "bold_100x100_s3_2x2x2_static_156",
      "SeriesNumber": 12,
      "SeriesTime": "163255.039000",
      "SliceLocation": -65.374975221812,
      "SliceThickness": 2.0,
      "SmallestImagePixelValue": 0,
      "SoftwareVersions": "syngo MR E11",
      "SpacingBetweenSlices": 2.0000000150843,
      "SpecificCharacterSet": "ISO_IR 100",
      "StudyID": "1",
      "StudyTime": "154455.846000",
      "TransmitCoilName": "Body",
      "VariableFlipAngleFlag": "N",
      "WindowCenterWidthExplanation": "Algo1",
      "dBdt": 0.0},
    "slices": {}
  },
  "time": {
    "samples": {
      "AcquisitionNumber": [1, 2, 3, 4, 5, 6, 7, 8, 9, 10, 11, 12, 13, 14, 15, 16, 17, 18, 19, 20, 21, 22, 23, 24, 25, 26, 27, 28, 29, 30, 31, 32, 33, 34, 35, 36, 37, 38, 39, 40, 41, 42, 43, 44, 45, 46, 47, 48, 49, 50, 51, 52, 53, 54, 55, 56, 57, 58, 59, 60, 61, 62, 63, 64, 65, 66, 67, 68, 69, 70, 71, 72, 73, 74, 75, 76, 77, 78, 79, 80, 81, 82, 83, 84, 85, 86, 87, 88, 89, 90, 91, 92, 93, 94, 95, 96, 97, 98, 99, 100, 101, 102, 103, 104, 105, 106, 107, 108, 109, 110, 111, 112, 113, 114, 115, 116, 117, 118, 119, 120, 121, 122, 123, 124, 125, 126, 127, 128, 129, 130, 131, 132, 133, 134, 135, 136, 137, 138, 139, 140, 141, 142, 143, 144, 145, 146, 147, 148, 149, 150, 151, 152, 153, 154, 155, 156],
      "AcquisitionTime": ["163252.607500", "163254.607500", "163256.607500", "163258.607500", "163300.607500", "163302.607500", "163304.607500", "163306.607500", "163308.607500", "163310.607500", "163312.607500", "163314.607500", "163316.607500", "163318.607500", "163320.607500", "163322.607500", "163324.607500", "163326.607500", "163328.607500", "163330.607500", "163332.607500", "163334.607500", "163336.607500", "163338.607500", "163340.607500", "163342.607500", "163344.607500", "163346.607500", "163348.607500", "163350.607500", "163352.607500", "163354.607500", "163356.607500", "163358.607500", "163400.607500", "163402.607500", "163404.607500", "163406.607500", "163408.607500", "163410.607500", "163412.607500", "163414.607500", "163416.607500", "163418.607500", "163420.607500", "163422.607500", "163424.607500", "163426.607500", "163428.607500", "163430.607500", "163432.607500", "163434.607500", "163436.607500", "163438.607500", "163440.607500", "163442.607500", "163444.607500", "163446.607500", "163448.607500", "163450.607500", "163452.607500", "163454.607500", "163456.607500", "163458.607500", "163500.607500", "163502.607500", "163504.607500", "163506.607500", "163508.607500", "163510.607500", "163512.607500", "163514.607500", "163516.607500", "163518.607500", "163520.607500", "163522.607500", "163524.607500", "163526.607500", "163528.607500", "163530.607500", "163532.607500", "163534.607500", "163536.607500", "163538.607500", "163540.607500", "163542.607500", "163544.607500", "163546.607500", "163548.607500", "163550.607500", "163552.607500", "163554.607500", "163556.607500", "163558.607500", "163600.607500", "163602.607500", "163604.607500", "163606.607500", "163608.607500", "163610.607500", "163612.607500", "163614.607500", "163616.607500", "163618.607500", "163620.607500", "163622.607500", "163624.607500", "163626.607500", "163628.607500", "163630.607500", "163632.607500", "163634.607500", "163636.607500", "163638.607500", "163640.607500", "163642.607500", "163644.607500", "163646.607500", "163648.607500", "163650.607500", "163652.607500", "163654.607500", "163656.607500", "163658.607500", "163700.607500", "163702.607500", "163704.607500", "163706.607500", "163708.607500", "163710.607500", "163712.607500", "163714.607500", "163716.607500", "163718.607500", "163720.607500", "163722.607500", "163724.607500", "163726.607500", "163728.607500", "163730.607500", "163732.607500", "163734.607500", "163736.607500", "163738.607500", "163740.607500", "163742.607500", "163744.607500", "163746.607500", "163748.607500", "163750.607500", "163752.607500", "163754.607500", "163756.607500", "163758.607500", "163800.607500", "163802.607500"],
      "ContentTime": ["163255.043000", "163256.524000", "163258.524000", "163300.524000", "163302.523000", "163304.524000", "163306.525000", "163308.525000", "163310.524000", "163312.524000", "163314.523000", "163316.524000", "163318.524000", "163320.523000", "163322.524000", "163324.524000", "163326.524000", "163328.524000", "163330.524000", "163332.523000", "163334.523000", "163336.523000", "163338.523000", "163340.525000", "163342.525000", "163344.524000", "163346.524000", "163348.524000", "163350.523000", "163352.524000", "163354.523000", "163356.524000", "163358.525000", "163400.525000", "163402.524000", "163404.523000", "163406.523000", "163408.524000", "163410.523000", "163412.523000", "163414.524000", "163416.525000", "163418.525000", "163420.524000", "163422.524000", "163424.524000", "163426.524000", "163428.524000", "163430.523000", "163432.524000", "163434.524000", "163436.524000", "163438.524000", "163440.524000", "163442.524000", "163444.524000", "163446.524000", "163448.523000", "163450.525000", "163452.525000", "163454.523000", "163456.524000", "163458.524000", "163500.523000", "163502.523000", "163504.523000", "163506.524000", "163508.524000", "163510.525000", "163512.523000", "163514.524000", "163516.524000", "163518.524000", "163520.524000", "163522.524000", "163524.524000", "163526.525000", "163528.525000", "163530.524000", "163532.523000", "163534.523000", "163536.524000", "163538.524000", "163540.524000", "163542.524000", "163544.525000", "163546.524000", "163548.524000", "163550.524000", "163552.524000", "163554.524000", "163556.523000", "163558.524000", "163600.525000", "163602.524000", "163604.523000", "163606.524000", "163608.524000", "163610.523000", "163612.523000", "163614.523000", "163616.524000", "163618.525000", "163620.525000", "163622.524000", "163624.523000", "163626.524000", "163628.524000", "163630.524000", "163632.524000", "163634.524000", "163636.525000", "163638.525000", "163640.524000", "163642.524000", "163644.523000", "163646.524000", "163648.524000", "163650.523000", "163652.525000", "163654.525000", "163656.524000", "163658.524000", "163700.524000", "163702.523000", "163704.523000", "163706.524000", "163708.524000", "163710.525000", "163712.524000", "163714.524000", "163716.524000", "163718.524000", "163720.524000", "163722.524000", "163724.523000", "163726.524000", "163728.524000", "163730.525000", "163732.524000", "163734.524000", "163736.524000", "163738.524000", "163740.524000", "163742.524000", "163744.523000", "163746.525000", "163748.525000", "163750.524000", "163752.524000", "163754.524000", "163756.524000", "163758.524000", "163800.524000", "163802.525000", "163804.052000"],
      "InstanceCreationTime": ["163255.043000", "163256.524000", "163258.524000", "163300.524000", "163302.523000", "163304.524000", "163306.525000", "163308.525000", "163310.524000", "163312.524000", "163314.523000", "163316.524000", "163318.524000", "163320.523000", "163322.524000", "163324.524000", "163326.524000", "163328.524000", "163330.524000", "163332.523000", "163334.523000", "163336.523000", "163338.523000", "163340.525000", "163342.525000", "163344.524000", "163346.524000", "163348.524000", "163350.523000", "163352.524000", "163354.523000", "163356.524000", "163358.525000", "163400.525000", "163402.524000", "163404.523000", "163406.523000", "163408.524000", "163410.523000", "163412.523000", "163414.524000", "163416.525000", "163418.525000", "163420.524000", "163422.524000", "163424.524000", "163426.524000", "163428.524000", "163430.523000", "163432.524000", "163434.524000", "163436.524000", "163438.524000", "163440.524000", "163442.524000", "163444.524000", "163446.524000", "163448.523000", "163450.525000", "163452.525000", "163454.523000", "163456.524000", "163458.524000", "163500.523000", "163502.523000", "163504.523000", "163506.524000", "163508.524000", "163510.525000", "163512.523000", "163514.524000", "163516.524000", "163518.524000", "163520.524000", "163522.524000", "163524.524000", "163526.525000", "163528.525000", "163530.524000", "163532.523000", "163534.523000", "163536.524000", "163538.524000", "163540.524000", "163542.524000", "163544.525000", "163546.524000", "163548.524000", "163550.524000", "163552.524000", "163554.524000", "163556.523000", "163558.524000", "163600.525000", "163602.524000", "163604.523000", "163606.524000", "163608.524000", "163610.523000", "163612.523000", "163614.523000", "163616.524000", "163618.525000", "163620.525000", "163622.524000", "163624.523000", "163626.524000", "163628.524000", "163630.524000", "163632.524000", "163634.524000", "163636.525000", "163638.525000", "163640.524000", "163642.524000", "163644.523000", "163646.524000", "163648.524000", "163650.523000", "163652.525000", "163654.525000", "163656.524000", "163658.524000", "163700.524000", "163702.523000", "163704.523000", "163706.524000", "163708.524000", "163710.525000", "163712.524000", "163714.524000", "163716.524000", "163718.524000", "163720.524000", "163722.524000", "163724.523000", "163726.524000", "163728.524000", "163730.525000", "163732.524000", "163734.524000", "163736.524000", "163738.524000", "163740.524000", "163742.524000", "163744.523000", "163746.525000", "163748.525000", "163750.524000", "163752.524000", "163754.524000", "163756.524000", "163758.524000", "163800.524000", "163802.525000", "163804.052000"],
      "InstanceNumber": [1, 2, 3, 4, 5, 6, 7, 8, 9, 10, 11, 12, 13, 14, 15, 16, 17, 18, 19, 20, 21, 22, 23, 24, 25, 26, 27, 28, 29, 30, 31, 32, 33, 34, 35, 36, 37, 38, 39, 40, 41, 42, 43, 44, 45, 46, 47, 48, 49, 50, 51, 52, 53, 54, 55, 56, 57, 58, 59, 60, 61, 62, 63, 64, 65, 66, 67, 68, 69, 70, 71, 72, 73, 74, 75, 76, 77, 78, 79, 80, 81, 82, 83, 84, 85, 86, 87, 88, 89, 90, 91, 92, 93, 94, 95, 96, 97, 98, 99, 100, 101, 102, 103, 104, 105, 106, 107, 108, 109, 110, 111, 112, 113, 114, 115, 116, 117, 118, 119, 120, 121, 122, 123, 124, 125, 126, 127, 128, 129, 130, 131, 132, 133, 134, 135, 136, 137, 138, 139, 140, 141, 142, 143, 144, 145, 146, 147, 148, 149, 150, 151, 152, 153, 154, 155, 156],
      "LargestImagePixelValue": [3777, 3716, 3672, 3651, 3682, 3636, 3670, 3656, 3654, 3675, 3676, 3740, 3683, 3700, 3654, 3670, 3713, 3688, 3671, 3691, 3657, 3665, 3694, 3705, 3704, 3704, 3729, 3677, 3708, 3722, 3675, 3665, 3693, 3730, 3722, 3672, 3708, 3709, 3710, 3708, 3708, 3726, 3673, 3711, 3729, 3700, 3688, 3705, 3709, 3671, 3701, 3731, 3699, 3710, 3671, 3702, 3693, 3723, 3684, 3712, 3696, 3711, 3717, 3691, 3683, 3719, 3721, 3676, 3701, 3699, 3685, 3686, 3699, 3721, 3687, 3661, 3706, 3697, 3727, 3702, 3684, 3691, 3687, 3699, 3676, 3645, 3692, 3701, 3670, 3685, 3636, 3686, 3693, 3719, 3688, 3719, 3694, 3713, 3697, 3693, 3659, 3703, 3675, 3665, 3717, 3705, 3712, 3709, 3647, 3671, 3676, 3643, 3635, 3628, 3676, 3667, 3658, 3636, 3654, 3657, 3632, 3605, 3648, 3592, 3597, 3613, 3629, 3643, 3625, 3646, 3619, 3622, 3640, 3604, 3634, 3600, 3619, 3611, 3613, 3595, 3584, 3543, 3559, 3563, 3555, 3557, 3504, 3535, 3548, 3533, 3552, 3625, 3597, 3643, 3610, 3610],
      "WindowCenter": [810.0, 810.0, 810.0, 810.0, 809.0, 808.0, 810.0, 811.0, 810.0, 809.0, 809.0, 809.0, 809.0, 810.0, 810.0, 810.0, 810.0, 809.0, 808.0, 809.0, 809.0, 808.0, 808.0, 809.0, 809.0, 809.0, 810.0, 809.0, 809.0, 808.0, 808.0, 808.0, 809.0, 809.0, 809.0, 809.0, 811.0, 811.0, 809.0, 809.0, 808.0, 808.0, 810.0, 812.0, 811.0, 809.0, 810.0, 812.0, 811.0, 809.0, 809.0, 809.0, 810.0, 812.0, 811.0, 810.0, 809.0, 810.0, 810.0, 810.0, 811.0, 814.0, 812.0, 810.0, 810.0, 811.0, 811.0, 811.0, 812.0, 811.0, 810.0, 809.0, 810.0, 810.0, 809.0, 809.0, 809.0, 811.0, 808.0, 809.0, 813.0, 813.0, 810.0, 808.0, 807.0, 807.0, 809.0, 810.0, 809.0, 809.0, 807.0, 808.0, 811.0, 811.0, 810.0, 810.0, 810.0, 812.0, 812.0, 812.0, 810.0, 810.0, 811.0, 811.0, 809.0, 808.0, 810.0, 811.0, 811.0, 809.0, 808.0, 809.0, 810.0, 810.0, 809.0, 812.0, 815.0, 813.0, 809.0, 808.0, 808.0, 808.0, 808.0, 811.0, 813.0, 811.0, 809.0, 808.0, 809.0, 808.0, 808.0, 812.0, 814.0, 813.0, 810.0, 809.0, 808.0, 808.0, 809.0, 810.0, 810.0, 809.0, 809.0, 809.0, 811.0, 810.0, 808.0, 809.0, 810.0, 809.0, 807.0, 807.0, 807.0, 808.0, 812.0, 818.0],
      "WindowWidth": [1747.0, 1744.0, 1746.0, 1745.0, 1742.0, 1740.0, 1746.0, 1747.0, 1746.0, 1744.0, 1742.0, 1744.0, 1743.0, 1745.0, 1746.0, 1747.0, 1746.0, 1744.0, 1741.0, 1742.0, 1743.0, 1741.0, 1742.0, 1744.0, 1745.0, 1744.0, 1746.0, 1744.0, 1742.0, 1741.0, 1741.0, 1742.0, 1744.0, 1744.0, 1744.0, 1745.0, 1748.0, 1748.0, 1745.0, 1743.0, 1742.0, 1742.0, 1746.0, 1753.0, 1748.0, 1744.0, 1747.0, 1752.0, 1750.0, 1744.0, 1743.0, 1743.0, 1746.0, 1751.0, 1748.0, 1745.0, 1744.0, 1746.0, 1745.0, 1746.0, 1750.0, 1756.0, 1751.0, 1747.0, 1746.0, 1749.0, 1748.0, 1748.0, 1752.0, 1750.0, 1745.0, 1743.0, 1745.0, 1746.0, 1744.0, 1742.0, 1744.0, 1748.0, 1740.0, 1744.0, 1753.0, 1754.0, 1745.0, 1739.0, 1737.0, 1738.0, 1743.0, 1746.0, 1744.0, 1741.0, 1739.0, 1741.0, 1747.0, 1749.0, 1745.0, 1746.0, 1746.0, 1750.0, 1752.0, 1751.0, 1744.0, 1746.0, 1750.0, 1747.0, 1744.0, 1741.0, 1746.0, 1749.0, 1748.0, 1743.0, 1741.0, 1742.0, 1744.0, 1744.0, 1742.0, 1750.0, 1757.0, 1752.0, 1744.0, 1740.0, 1741.0, 1741.0, 1740.0, 1749.0, 1753.0, 1747.0, 1741.0, 1740.0, 1743.0, 1740.0, 1740.0, 1749.0, 1755.0, 1752.0, 1746.0, 1742.0, 1741.0, 1740.0, 1744.0, 1746.0, 1745.0, 1742.0, 1742.0, 1744.0, 1747.0, 1745.0, 1741.0, 1742.0, 1744.0, 1742.0, 1737.0, 1738.0, 1737.0, 1740.0, 1750.0, 1767.0]
    },
    "slices": {}
  }
}