{
  "AcquisitionMatrixPE": 100,
  "AcquisitionNumber": 1,
  "AcquisitionTime": "16:38:50.740000",
  "BandwidthPerPixelPhaseEncode": 18.519,
  "BaseResolution": 100,
  "BodyPartExamined": "BRAIN",
  "CoilCombinationMethod": "Sum of Squares",
  "ConsistencyInfo": "N4_VE11C_LATEST_20160120",
  "ConversionSoftware": "dcm2niix",
  "ConversionSoftwareVersion": "v1.0.20211006",
  "DerivedVendorReportedEchoSpacing": 0.000539986,
  "DeviceSerialNumber": "166078",
  "DwellTime": 2.1e-06,
  "EchoTime": 0.034,
  "EchoTrainLength": 100,
  "EffectiveEchoSpacing": 0.000539986,
  "FlipAngle": 90,
  "ImageOrientationPatientDICOM": [0.998719, 0.00739073, 0.0500502, 4.41772e-08, 0.989272, -0.146083],
  "ImageOrientationText": "Tra>Cor(-8.4)>Sag(2.9)",
  "ImageType": [
    "ORIGINAL",
    "PRIMARY",
    "M",
    "ND",
    "MOSAIC"
],
  "ImagingFrequency": 123.258,
  "InPlanePhaseEncodingDirectionDICOM": "COL",
  "InstitutionAddress": "Street StreetNo,Bei Jing,District,CN,ZIP",
  "InstitutionName": "BeiJing Normal University",
  "InstitutionalDepartmentName": "Department",
  "MRAcquisitionType": "2D",
  "MagneticFieldStrength": 3,
  "Manufacturer": "Siemens",
  "ManufacturersModelName": "Prisma",
  "Modality": "MR",
  "MultibandAccelerationFactor": 3,
  "PartialFourier": 1,
  "PatientPosition": "HFS",
  "PercentPhaseFOV": 100,
  "PercentSampling": 100,
  "PhaseEncodingDirection": "j-",
  "PhaseEncodingSteps": 100,
  "PhaseResolution": 1,
  "PixelBandwidth": 2380,
  "ProcedureStepDescription": "BNU_P2018_64CH^Zhen.ZongLei",
  "ProtocolName": "bold_100x100_s3_2x2x2_static_156",
  "PulseSequenceDetails": "%SiemensSeq%\\ep2d_bold",
  "ReceiveCoilActiveElements": "HC1-7;NC1",
  "ReceiveCoilName": "HeadNeck_64",
  "ReconMatrixPE": 100,
  "RefLinesPE": 32,
  "RepetitionTime": 2,
  "SAR": 0.0751495,
  "ScanOptions": "FS",
  "ScanningSequence": "EP",
  "SequenceName": "*epfid2d1_100",
  "SequenceVariant": "SK",
  "SeriesDescription": "bold_100x100_s3_2x2x2_static_156",
  "SeriesNumber": 13,
  "ShimSetting": [-5439, -11468, -1230, 312, 30, -224, -199, 26],
  "SliceThickness": 2,
  "SliceTiming": [1.485, 0, 0.99, 0.0825, 1.0725, 0.165, 1.155, 0.2475, 1.2375, 0.33, 1.32, 0.4125, 1.4025, 0.5775, 1.5675, 0.66, 1.65, 0.7425, 1.7325, 0.825, 1.815, 0.9075, 1.8975, 0.495, 1.485, 0, 0.99, 0.0825, 1.0725, 0.165, 1.155, 0.2475, 1.2375, 0.33, 1.32, 0.4125, 1.4025, 0.5775, 1.5675, 0.66, 1.65, 0.7425, 1.7325, 0.825, 1.815, 0.9075, 1.8975, 0.495, 1.485, 0, 0.99, 0.0825, 1.0725, 0.165, 1.155, 0.2475, 1.2375, 0.33, 1.32, 0.4125, 1.4025, 0.5775, 1.5675, 0.66, 1.65, 0.7425, 1.7325, 0.825, 1.815, 0.9075, 1.8975, 0.495],
  "SoftwareVersions": "syngo MR E11",
  "SpacingBetweenSlices": 2,
  "StationName": "AWP166078",
  "TaskName": "action",
  "TotalReadoutTime": 0.0534586,
  "TxRefAmp": 220.202,
  "dcmmeta_affine": [
    [-1.997438669204712, 8.835445441945922e-08, 0.1011858731508255, 94.16480255126953],
    [-0.014781450852751732, 1.9785447120666504, -0.2917918860912323, -81.85152435302734],
    [0.10010039806365967, 0.2921660542488098, 1.9760109186172485, -83.07733154296875],
    [0.0, 0.0, 0.0, 1.0]
],
  "dcmmeta_reorient_transform": [
    [0.0, -1.0, 0.0, 99.0],
    [1.0, 0.0, 0.0, 0.0],
    [0.0, 0.0, 1.0, 0.0],
    [0.0, 0.0, 0.0, 1.0]
],
  "dcmmeta_shape": [100, 100, 72, 156],
  "dcmmeta_slice_dim": 2,
  "dcmmeta_version": 0.6,
  "global": {
    "const": {
      "AcquisitionMatrix": [100, 0, 0, 100],
      "AngioFlag": "N",
      "BitsAllocated": 16,
      "BitsStored": 12,
      "BodyPartExamined": "BRAIN",
      "Columns": 900,
      "EchoNumbers": 1,
      "EchoTime": 34.0,
      "EchoTrainLength": 100,
      "FlipAngle": 90.0,
      "HighBit": 11,
      "ImageOrientationPatient": [0.99871935741091, 0.00739072549041, 0.05005019789637, 4.4177226e-08, 0.9892723333095, -0.1460830262158],
      "ImagePositionPatient": [-893.14033481189, -911.35484141327, 22.673369492625],
      "ImageType": [
        "ORIGINAL",
        "PRIMARY",
        "M",
        "ND",
        "MOSAIC"
],
      "ImagedNucleus": "1H",
      "ImagingFrequency": 123.257759,
      "InPlanePhaseEncodingDirection": "COL",
      "MRAcquisitionType": "2D",
      "MagneticFieldStrength": 3.0,
      "Manufacturer": "SIEMENS",
      "ManufacturerModelName": "Prisma",
      "Modality": "MR",
      "NumberOfAverages": 1.0,
      "NumberOfPhaseEncodingSteps": 100,
      "PercentPhaseFieldOfView": 100.0,
      "PercentSampling": 100.0,
      "PerformedProcedureStepStartTime": "154455.926000",
      "PhotometricInterpretation": "MONOCHROME2",
      "PixelBandwidth": 2380.0,
      "PixelRepresentation": 0,
      "PixelSpacing": [2.0, 2.0],
      "ProtocolName": "bold_100x100_s3_2x2x2_static_156",
      "RepetitionTime": 2000.0,
      "Rows": 900,
      "SAR": 0.0751495203387,
      "SamplesPerPixel": 1,
      "ScanOptions": "FS",
      "ScanningSequence": "EP",
      "SequenceName": "*epfid2d1_100",
      "SequenceVariant": "SK",
      "SeriesDescription": "bold_100x100_s3_2x2x2_static_156",
      "SeriesNumber": 13,
      "SeriesTime": "163852.897000",
      "SliceLocation": -65.374975221812,
      "SliceThickness": 2.0,
      "SmallestImagePixelValue": 0,
      "SoftwareVersions": "syngo MR E11",
      "SpacingBetweenSlices": 2.0000000150843,
      "SpecificCharacterSet": "ISO_IR 100",
      "StudyID": "1",
      "StudyTime": "154455.846000",
      "TransmitCoilName": "Body",
      "VariableFlipAngleFlag": "N",
      "WindowCenterWidthExplanation": "Algo1",
      "dBdt": 0.0},
    "slices": {}
  },
  "time": {
    "samples": {
      "AcquisitionNumber": [1, 2, 3, 4, 5, 6, 7, 8, 9, 10, 11, 12, 13, 14, 15, 16, 17, 18, 19, 20, 21, 22, 23, 24, 25, 26, 27, 28, 29, 30, 31, 32, 33, 34, 35, 36, 37, 38, 39, 40, 41, 42, 43, 44, 45, 46, 47, 48, 49, 50, 51, 52, 53, 54, 55, 56, 57, 58, 59, 60, 61, 62, 63, 64, 65, 66, 67, 68, 69, 70, 71, 72, 73, 74, 75, 76, 77, 78, 79, 80, 81, 82, 83, 84, 85, 86, 87, 88, 89, 90, 91, 92, 93, 94, 95, 96, 97, 98, 99, 100, 101, 102, 103, 104, 105, 106, 107, 108, 109, 110, 111, 112, 113, 114, 115, 116, 117, 118, 119, 120, 121, 122, 123, 124, 125, 126, 127, 128, 129, 130, 131, 132, 133, 134, 135, 136, 137, 138, 139, 140, 141, 142, 143, 144, 145, 146, 147, 148, 149, 150, 151, 152, 153, 154, 155, 156],
      "AcquisitionTime": ["163850.740000", "163852.740000", "163854.740000", "163856.740000", "163858.740000", "163900.740000", "163902.740000", "163904.740000", "163906.740000", "163908.740000", "163910.740000", "163912.740000", "163914.740000", "163916.740000", "163918.740000", "163920.740000", "163922.740000", "163924.740000", "163926.740000", "163928.740000", "163930.740000", "163932.740000", "163934.740000", "163936.740000", "163938.740000", "163940.740000", "163942.740000", "163944.740000", "163946.740000", "163948.740000", "163950.740000", "163952.740000", "163954.740000", "163956.740000", "163958.740000", "164000.740000", "164002.740000", "164004.740000", "164006.740000", "164008.740000", "164010.740000", "164012.740000", "164014.740000", "164016.740000", "164018.740000", "164020.740000", "164022.740000", "164024.740000", "164026.740000", "164028.740000", "164030.740000", "164032.740000", "164034.740000", "164036.740000", "164038.740000", "164040.740000", "164042.740000", "164044.740000", "164046.740000", "164048.740000", "164050.740000", "164052.740000", "164054.740000", "164056.740000", "164058.740000", "164100.740000", "164102.740000", "164104.740000", "164106.740000", "164108.740000", "164110.740000", "164112.740000", "164114.740000", "164116.740000", "164118.740000", "164120.740000", "164122.740000", "164124.740000", "164126.740000", "164128.740000", "164130.740000", "164132.740000", "164134.740000", "164136.740000", "164138.740000", "164140.740000", "164142.740000", "164144.740000", "164146.740000", "164148.740000", "164150.740000", "164152.740000", "164154.740000", "164156.740000", "164158.740000", "164200.740000", "164202.740000", "164204.740000", "164206.740000", "164208.740000", "164210.740000", "164212.740000", "164214.740000", "164216.740000", "164218.740000", "164220.740000", "164222.740000", "164224.740000", "164226.740000", "164228.740000", "164230.740000", "164232.740000", "164234.740000", "164236.740000", "164238.740000", "164240.740000", "164242.740000", "164244.740000", "164246.740000", "164248.740000", "164250.740000", "164252.740000", "164254.740000", "164256.740000", "164258.740000", "164300.740000", "164302.740000", "164304.740000", "164306.740000", "164308.740000", "164310.740000", "164312.740000", "164314.740000", "164316.740000", "164318.740000", "164320.740000", "164322.740000", "164324.740000", "164326.740000", "164328.740000", "164330.740000", "164332.740000", "164334.740000", "164336.740000", "164338.740000", "164340.740000", "164342.740000", "164344.740000", "164346.740000", "164348.740000", "164350.740000", "164352.740000", "164354.740000", "164356.740000", "164358.740000", "164400.740000"],
      "ContentTime": ["163852.901000", "163854.396000", "163856.397000", "163858.398000", "163900.396000", "163902.397000", "163904.397000", "163906.396000", "163908.397000", "163910.397000", "163912.397000", "163914.398000", "163916.397000", "163918.397000", "163920.397000", "163922.396000", "163924.397000", "163926.397000", "163928.397000", "163930.397000", "163932.398000", "163934.397000", "163936.397000", "163938.396000", "163940.396000", "163942.397000", "163944.396000", "163946.397000", "163948.398000", "163950.398000", "163952.396000", "163954.397000", "163956.397000", "163958.396000", "164000.396000", "164002.397000", "164004.397000", "164006.397000", "164008.398000", "164010.397000", "164012.397000", "164014.397000", "164016.397000", "164018.397000", "164020.397000", "164022.397000", "164024.398000", "164026.397000", "164028.397000", "164030.397000", "164032.397000", "164034.397000", "164036.397000", "164038.396000", "164040.397000", "164042.398000", "164044.397000", "164046.397000", "164048.397000", "164050.397000", "164052.397000", "164054.397000", "164056.397000", "164058.398000", "164100.398000", "164102.397000", "164104.396000", "164106.396000", "164108.396000", "164110.396000", "164112.396000", "164114.397000", "164116.398000", "164118.398000", "164120.397000", "164122.397000", "164124.396000", "164126.397000", "164128.397000", "164130.397000", "164132.397000", "164134.398000", "164136.396000", "164138.397000", "164140.397000", "164142.396000", "164144.397000", "164146.397000", "164148.397000", "164150.398000", "164152.398000", "164154.397000", "164156.396000", "164158.396000", "164200.397000", "164202.397000", "164204.397000", "164206.397000", "164208.398000", "164210.398000", "164212.397000", "164214.397000", "164216.396000", "164218.396000", "164220.396000", "164222.396000", "164224.396000", "164226.397000", "164228.397000", "164230.397000", "164232.397000", "164234.396000", "164236.397000", "164238.397000", "164240.397000", "164242.397000", "164244.397000", "164246.397000", "164248.396000", "164250.397000", "164252.397000", "164254.407000", "164256.397000", "164258.397000", "164300.398000", "164302.397000", "164304.397000", "164306.396000", "164308.397000", "164310.397000", "164312.397000", "164314.397000", "164316.397000", "164318.398000", "164320.398000", "164322.397000", "164324.397000", "164326.397000", "164328.396000", "164330.396000", "164332.397000", "164334.396000", "164336.398000", "164338.398000", "164340.396000", "164342.397000", "164344.397000", "164346.397000", "164348.397000", "164350.397000", "164352.398000", "164354.397000", "164356.396000", "164358.397000", "164400.397000", "164402.119000"],
      "InstanceCreationTime": ["163852.901000", "163854.396000", "163856.397000", "163858.398000", "163900.396000", "163902.397000", "163904.397000", "163906.396000", "163908.397000", "163910.397000", "163912.397000", "163914.398000", "163916.397000", "163918.397000", "163920.397000", "163922.396000", "163924.397000", "163926.397000", "163928.397000", "163930.397000", "163932.398000", "163934.397000", "163936.397000", "163938.396000", "163940.396000", "163942.397000", "163944.396000", "163946.397000", "163948.398000", "163950.398000", "163952.396000", "163954.397000", "163956.397000", "163958.396000", "164000.396000", "164002.397000", "164004.397000", "164006.397000", "164008.398000", "164010.397000", "164012.397000", "164014.397000", "164016.397000", "164018.397000", "164020.397000", "164022.397000", "164024.398000", "164026.397000", "164028.397000", "164030.397000", "164032.397000", "164034.397000", "164036.397000", "164038.396000", "164040.397000", "164042.398000", "164044.397000", "164046.397000", "164048.397000", "164050.397000", "164052.397000", "164054.397000", "164056.397000", "164058.398000", "164100.398000", "164102.397000", "164104.396000", "164106.396000", "164108.396000", "164110.396000", "164112.396000", "164114.397000", "164116.398000", "164118.398000", "164120.397000", "164122.397000", "164124.396000", "164126.397000", "164128.397000", "164130.397000", "164132.397000", "164134.398000", "164136.396000", "164138.397000", "164140.397000", "164142.396000", "164144.397000", "164146.397000", "164148.397000", "164150.398000", "164152.398000", "164154.397000", "164156.396000", "164158.396000", "164200.397000", "164202.397000", "164204.397000", "164206.397000", "164208.398000", "164210.398000", "164212.397000", "164214.397000", "164216.396000", "164218.396000", "164220.396000", "164222.396000", "164224.396000", "164226.397000", "164228.397000", "164230.397000", "164232.397000", "164234.396000", "164236.397000", "164238.397000", "164240.397000", "164242.397000", "164244.397000", "164246.397000", "164248.396000", "164250.397000", "164252.397000", "164254.407000", "164256.397000", "164258.397000", "164300.398000", "164302.397000", "164304.397000", "164306.396000", "164308.397000", "164310.397000", "164312.397000", "164314.397000", "164316.397000", "164318.398000", "164320.398000", "164322.397000", "164324.397000", "164326.397000", "164328.396000", "164330.396000", "164332.397000", "164334.396000", "164336.398000", "164338.398000", "164340.396000", "164342.397000", "164344.397000", "164346.397000", "164348.397000", "164350.397000", "164352.398000", "164354.397000", "164356.396000", "164358.397000", "164400.397000", "164402.119000"],
      "InstanceNumber": [1, 2, 3, 4, 5, 6, 7, 8, 9, 10, 11, 12, 13, 14, 15, 16, 17, 18, 19, 20, 21, 22, 23, 24, 25, 26, 27, 28, 29, 30, 31, 32, 33, 34, 35, 36, 37, 38, 39, 40, 41, 42, 43, 44, 45, 46, 47, 48, 49, 50, 51, 52, 53, 54, 55, 56, 57, 58, 59, 60, 61, 62, 63, 64, 65, 66, 67, 68, 69, 70, 71, 72, 73, 74, 75, 76, 77, 78, 79, 80, 81, 82, 83, 84, 85, 86, 87, 88, 89, 90, 91, 92, 93, 94, 95, 96, 97, 98, 99, 100, 101, 102, 103, 104, 105, 106, 107, 108, 109, 110, 111, 112, 113, 114, 115, 116, 117, 118, 119, 120, 121, 122, 123, 124, 125, 126, 127, 128, 129, 130, 131, 132, 133, 134, 135, 136, 137, 138, 139, 140, 141, 142, 143, 144, 145, 146, 147, 148, 149, 150, 151, 152, 153, 154, 155, 156],
      "LargestImagePixelValue": [3789, 3683, 3636, 3622, 3631, 3675, 3650, 3672, 3665, 3679, 3687, 3667, 3641, 3650, 3642, 3656, 3639, 3646, 3664, 3627, 3656, 3659, 3665, 3686, 3682, 3676, 3694, 3669, 3686, 3639, 3658, 3674, 3714, 3683, 3670, 3704, 3705, 3689, 3706, 3682, 3708, 3691, 3677, 3643, 3667, 3694, 3655, 3696, 3717, 3656, 3698, 3697, 3685, 3666, 3656, 3692, 3691, 3696, 3727, 3683, 3704, 3720, 3708, 3704, 3713, 3703, 3710, 3647, 3704, 3692, 3661, 3686, 3681, 3674, 3694, 3682, 3711, 3729, 3718, 3714, 3714, 3743, 3724, 3713, 3727, 3725, 3708, 3730, 3730, 3734, 3703, 3738, 3701, 3713, 3706, 3709, 3723, 3756, 3728, 3715, 3733, 3702, 3683, 3693, 3670, 3685, 3740, 3718, 3729, 3744, 3732, 3725, 3698, 3729, 3732, 3736, 3703, 3674, 3727, 3736, 3734, 3709, 3721, 3676, 3696, 3682, 3733, 3673, 3718, 3750, 3723, 3697, 3730, 3733, 3721, 3743, 3662, 3696, 3697, 3686, 3733, 3721, 3714, 3714, 3688, 3688, 3675, 3667, 3707, 3708, 3714, 3706, 3702, 3702, 3714, 3721],
      "WindowCenter": [811.0, 809.0, 809.0, 809.0, 809.0, 810.0, 810.0, 810.0, 810.0, 811.0, 811.0, 811.0, 810.0, 810.0, 810.0, 810.0, 810.0, 810.0, 809.0, 808.0, 809.0, 810.0, 810.0, 810.0, 811.0, 810.0, 809.0, 809.0, 809.0, 809.0, 809.0, 808.0, 807.0, 807.0, 807.0, 808.0, 809.0, 808.0, 807.0, 809.0, 810.0, 809.0, 808.0, 807.0, 807.0, 808.0, 808.0, 809.0, 809.0, 809.0, 809.0, 809.0, 809.0, 808.0, 807.0, 807.0, 808.0, 809.0, 809.0, 809.0, 809.0, 809.0, 809.0, 809.0, 808.0, 808.0, 809.0, 808.0, 808.0, 807.0, 806.0, 808.0, 808.0, 807.0, 807.0, 808.0, 811.0, 811.0, 811.0, 810.0, 810.0, 811.0, 811.0, 810.0, 810.0, 811.0, 812.0, 812.0, 810.0, 809.0, 809.0, 810.0, 810.0, 810.0, 808.0, 807.0, 809.0, 811.0, 811.0, 810.0, 809.0, 809.0, 808.0, 809.0, 810.0, 813.0, 813.0, 810.0, 810.0, 811.0, 811.0, 809.0, 808.0, 808.0, 809.0, 809.0, 809.0, 808.0, 809.0, 811.0, 812.0, 811.0, 811.0, 810.0, 811.0, 813.0, 813.0, 810.0, 810.0, 810.0, 809.0, 809.0, 809.0, 810.0, 811.0, 812.0, 811.0, 811.0, 812.0, 812.0, 812.0, 811.0, 810.0, 809.0, 810.0, 811.0, 811.0, 810.0, 810.0, 809.0, 810.0, 811.0, 814.0, 814.0, 811.0, 809.0],
      "WindowWidth": [1748.0, 1744.0, 1744.0, 1742.0, 1742.0, 1745.0, 1745.0, 1744.0, 1745.0, 1748.0, 1749.0, 1748.0, 1746.0, 1746.0, 1745.0, 1747.0, 1746.0, 1745.0, 1742.0, 1740.0, 1744.0, 1746.0, 1746.0, 1747.0, 1747.0, 1747.0, 1744.0, 1743.0, 1743.0, 1744.0, 1744.0, 1741.0, 1739.0, 1737.0, 1738.0, 1741.0, 1743.0, 1740.0, 1738.0, 1743.0, 1746.0, 1745.0, 1740.0, 1737.0, 1738.0, 1740.0, 1741.0, 1743.0, 1743.0, 1743.0, 1742.0, 1743.0, 1742.0, 1740.0, 1739.0, 1738.0, 1741.0, 1744.0, 1744.0, 1743.0, 1744.0, 1744.0, 1743.0, 1742.0, 1742.0, 1741.0, 1743.0, 1741.0, 1740.0, 1738.0, 1736.0, 1740.0, 1740.0, 1739.0, 1739.0, 1742.0, 1749.0, 1749.0, 1748.0, 1747.0, 1746.0, 1749.0, 1748.0, 1746.0, 1746.0, 1748.0, 1752.0, 1752.0, 1745.0, 1744.0, 1744.0, 1747.0, 1747.0, 1745.0, 1740.0, 1739.0, 1743.0, 1748.0, 1749.0, 1745.0, 1744.0, 1742.0, 1742.0, 1743.0, 1745.0, 1752.0, 1753.0, 1746.0, 1745.0, 1747.0, 1748.0, 1744.0, 1742.0, 1741.0, 1742.0, 1744.0, 1743.0, 1741.0, 1742.0, 1747.0, 1751.0, 1750.0, 1748.0, 1746.0, 1749.0, 1755.0, 1753.0, 1745.0, 1745.0, 1746.0, 1744.0, 1742.0, 1743.0, 1746.0, 1748.0, 1750.0, 1749.0, 1749.0, 1751.0, 1752.0, 1751.0, 1748.0, 1745.0, 1743.0, 1746.0, 1747.0, 1747.0, 1745.0, 1744.0, 1743.0, 1745.0, 1749.0, 1755.0, 1755.0, 1749.0, 1742.0]
    },
    "slices": {}
  }
}