{
  "AcquisitionMatrixPE": 100,
  "AcquisitionNumber": 1,
  "AcquisitionTime": "13:15:2.537500",
  "BandwidthPerPixelPhaseEncode": 18.519,
  "BaseResolution": 100,
  "BodyPartExamined": "BRAIN",
  "CoilCombinationMethod": "Sum of Squares",
  "ConsistencyInfo": "N4_VE11C_LATEST_20160120",
  "ConversionSoftware": "dcm2niix",
  "ConversionSoftwareVersion": "v1.0.20211006",
  "DerivedVendorReportedEchoSpacing": 0.000539986,
  "DeviceSerialNumber": "166078",
  "DwellTime": 2.1e-06,
  "EchoTime": 0.034,
  "EchoTrainLength": 100,
  "EffectiveEchoSpacing": 0.000539986,
  "FlipAngle": 90,
  "ImageOrientationPatientDICOM": [1, 0, 0, 0, 0.980271, -0.197657],
  "ImageOrientationText": "Tra>Cor(-11.4)",
  "ImageType": [
    "ORIGINAL",
    "PRIMARY",
    "M",
    "ND",
    "MOSAIC"
],
  "ImagingFrequency": 123.258,
  "InPlanePhaseEncodingDirectionDICOM": "COL",
  "InstitutionAddress": "Street StreetNo,Bei Jing,District,CN,ZIP",
  "InstitutionName": "BeiJing Normal University",
  "InstitutionalDepartmentName": "Department",
  "MRAcquisitionType": "2D",
  "MagneticFieldStrength": 3,
  "Manufacturer": "Siemens",
  "ManufacturersModelName": "Prisma",
  "Modality": "MR",
  "MultibandAccelerationFactor": 3,
  "PartialFourier": 1,
  "PatientPosition": "HFS",
  "PercentPhaseFOV": 100,
  "PercentSampling": 100,
  "PhaseEncodingDirection": "j-",
  "PhaseEncodingSteps": 100,
  "PhaseResolution": 1,
  "PixelBandwidth": 2380,
  "ProcedureStepDescription": "BNU_P2018_64CH^Zhen.ZongLei",
  "ProtocolName": "bold_100x100_s3_2x2x2_static_156",
  "PulseSequenceDetails": "%SiemensSeq%\\ep2d_bold",
  "ReceiveCoilActiveElements": "HC1-7;NC1",
  "ReceiveCoilName": "HeadNeck_64",
  "ReconMatrixPE": 100,
  "RefLinesPE": 32,
  "RepetitionTime": 2,
  "SAR": 0.0844088,
  "ScanOptions": "FS",
  "ScanningSequence": "EP",
  "SequenceName": "*epfid2d1_100",
  "SequenceVariant": "SK",
  "SeriesDescription": "bold_100x100_s3_2x2x2_static_156",
  "SeriesNumber": 5,
  "ShimSetting": [-5446, -11513, -1244, 294, 9, -142, -87, 47],
  "SliceThickness": 2,
  "SliceTiming": [1.485, 0, 0.99, 0.0825, 1.0725, 0.165, 1.155, 0.2475, 1.2375, 0.33, 1.32, 0.4125, 1.4025, 0.5775, 1.5675, 0.66, 1.65, 0.7425, 1.7325, 0.825, 1.815, 0.9075, 1.8975, 0.495, 1.485, 0, 0.99, 0.0825, 1.0725, 0.165, 1.155, 0.2475, 1.2375, 0.33, 1.32, 0.4125, 1.4025, 0.5775, 1.5675, 0.66, 1.65, 0.7425, 1.7325, 0.825, 1.815, 0.9075, 1.8975, 0.495, 1.485, 0, 0.99, 0.0825, 1.0725, 0.165, 1.155, 0.2475, 1.2375, 0.33, 1.32, 0.4125, 1.4025, 0.5775, 1.5675, 0.66, 1.65, 0.7425, 1.7325, 0.825, 1.815, 0.9075, 1.8975, 0.495],
  "SoftwareVersions": "syngo MR E11",
  "SpacingBetweenSlices": 2,
  "StationName": "AWP166078",
  "TaskName": "action",
  "TotalReadoutTime": 0.0534586,
  "TxRefAmp": 251.967,
  "dcmmeta_affine": [
    [-2.0, 0.0, 0.0, 100.67796325683594],
    [0.0, 1.9605423212051392, -0.39531469345092773, -74.68665313720703],
    [0.0, 0.39531469345092773, 1.9605423212051392, -67.29412841796875],
    [0.0, 0.0, 0.0, 1.0]
],
  "dcmmeta_reorient_transform": [
    [0.0, -1.0, 0.0, 99.0],
    [1.0, 0.0, 0.0, 0.0],
    [0.0, 0.0, 1.0, 0.0],
    [0.0, 0.0, 0.0, 1.0]
],
  "dcmmeta_shape": [100, 100, 72, 156],
  "dcmmeta_slice_dim": 2,
  "dcmmeta_version": 0.6,
  "global": {
    "const": {
      "AcquisitionMatrix": [100, 0, 0, 100],
      "AngioFlag": "N",
      "BitsAllocated": 16,
      "BitsStored": 12,
      "BodyPartExamined": "BRAIN",
      "Columns": 900,
      "EchoNumbers": 1,
      "EchoTime": 34.0,
      "EchoTrainLength": 100,
      "FlipAngle": 90.0,
      "HighBit": 11,
      "ImageOrientationPatient": [1.0, 0.0, 0.0, 0.0, 0.98027117266369, -0.1976573500899],
      "ImagePositionPatient": [-900.67796611786, -903.62397444945, 129.96790521151],
      "ImageType": [
        "ORIGINAL",
        "PRIMARY",
        "M",
        "ND",
        "MOSAIC"
],
      "ImagedNucleus": "1H",
      "ImagingFrequency": 123.257684,
      "InPlanePhaseEncodingDirection": "COL",
      "MRAcquisitionType": "2D",
      "MagneticFieldStrength": 3.0,
      "Manufacturer": "SIEMENS",
      "ManufacturerModelName": "Prisma",
      "Modality": "MR",
      "NumberOfAverages": 1.0,
      "NumberOfPhaseEncodingSteps": 100,
      "PercentPhaseFieldOfView": 100.0,
      "PercentSampling": 100.0,
      "PerformedProcedureStepStartTime": "125606.019000",
      "PhotometricInterpretation": "MONOCHROME2",
      "PixelBandwidth": 2380.0,
      "PixelRepresentation": 0,
      "PixelSpacing": [2.0, 2.0],
      "ProtocolName": "bold_100x100_s3_2x2x2_static_156",
      "RepetitionTime": 2000.0,
      "Rows": 900,
      "SAR": 0.08440879727838,
      "SamplesPerPixel": 1,
      "ScanOptions": "FS",
      "ScanningSequence": "EP",
      "SequenceName": "*epfid2d1_100",
      "SequenceVariant": "SK",
      "SeriesDescription": "bold_100x100_s3_2x2x2_static_156",
      "SeriesNumber": 5,
      "SeriesTime": "131505.236000",
      "SliceLocation": -51.204129417035,
      "SliceThickness": 2.0,
      "SmallestImagePixelValue": 0,
      "SoftwareVersions": "syngo MR E11",
      "SpacingBetweenSlices": 1.9999999832531,
      "SpecificCharacterSet": "ISO_IR 100",
      "StudyID": "1",
      "StudyTime": "125605.925000",
      "TransmitCoilName": "Body",
      "VariableFlipAngleFlag": "N",
      "WindowCenterWidthExplanation": "Algo1",
      "dBdt": 0.0},
    "slices": {}
  },
  "time": {
    "samples": {
      "AcquisitionNumber": [1, 2, 3, 4, 5, 6, 7, 8, 9, 10, 11, 12, 13, 14, 15, 16, 17, 18, 19, 20, 21, 22, 23, 24, 25, 26, 27, 28, 29, 30, 31, 32, 33, 34, 35, 36, 37, 38, 39, 40, 41, 42, 43, 44, 45, 46, 47, 48, 49, 50, 51, 52, 53, 54, 55, 56, 57, 58, 59, 60, 61, 62, 63, 64, 65, 66, 67, 68, 69, 70, 71, 72, 73, 74, 75, 76, 77, 78, 79, 80, 81, 82, 83, 84, 85, 86, 87, 88, 89, 90, 91, 92, 93, 94, 95, 96, 97, 98, 99, 100, 101, 102, 103, 104, 105, 106, 107, 108, 109, 110, 111, 112, 113, 114, 115, 116, 117, 118, 119, 120, 121, 122, 123, 124, 125, 126, 127, 128, 129, 130, 131, 132, 133, 134, 135, 136, 137, 138, 139, 140, 141, 142, 143, 144, 145, 146, 147, 148, 149, 150, 151, 152, 153, 154, 155, 156],
      "AcquisitionTime": ["131502.537500", "131504.537500", "131506.537500", "131508.537500", "131510.537500", "131512.537500", "131514.537500", "131516.537500", "131518.537500", "131520.537500", "131522.537500", "131524.537500", "131526.537500", "131528.537500", "131530.537500", "131532.537500", "131534.537500", "131536.537500", "131538.537500", "131540.537500", "131542.537500", "131544.537500", "131546.537500", "131548.537500", "131550.537500", "131552.537500", "131554.537500", "131556.537500", "131558.537500", "131600.537500", "131602.537500", "131604.537500", "131606.537500", "131608.537500", "131610.537500", "131612.537500", "131614.537500", "131616.537500", "131618.537500", "131620.537500", "131622.537500", "131624.537500", "131626.537500", "131628.537500", "131630.537500", "131632.537500", "131634.537500", "131636.537500", "131638.537500", "131640.537500", "131642.537500", "131644.537500", "131646.537500", "131648.537500", "131650.537500", "131652.537500", "131654.537500", "131656.537500", "131658.537500", "131700.537500", "131702.537500", "131704.537500", "131706.537500", "131708.537500", "131710.537500", "131712.537500", "131714.537500", "131716.537500", "131718.537500", "131720.537500", "131722.537500", "131724.537500", "131726.537500", "131728.537500", "131730.537500", "131732.537500", "131734.537500", "131736.537500", "131738.537500", "131740.537500", "131742.537500", "131744.537500", "131746.537500", "131748.537500", "131750.537500", "131752.537500", "131754.537500", "131756.537500", "131758.537500", "131800.537500", "131802.537500", "131804.537500", "131806.537500", "131808.537500", "131810.537500", "131812.537500", "131814.537500", "131816.537500", "131818.537500", "131820.537500", "131822.537500", "131824.537500", "131826.537500", "131828.537500", "131830.537500", "131832.537500", "131834.537500", "131836.537500", "131838.537500", "131840.537500", "131842.537500", "131844.537500", "131846.537500", "131848.537500", "131850.537500", "131852.537500", "131854.537500", "131856.537500", "131858.537500", "131900.537500", "131902.537500", "131904.537500", "131906.537500", "131908.537500", "131910.537500", "131912.537500", "131914.537500", "131916.537500", "131918.537500", "131920.537500", "131922.537500", "131924.537500", "131926.537500", "131928.537500", "131930.537500", "131932.537500", "131934.537500", "131936.537500", "131938.537500", "131940.537500", "131942.537500", "131944.537500", "131946.537500", "131948.537500", "131950.537500", "131952.537500", "131954.537500", "131956.537500", "131958.537500", "132000.537500", "132002.537500", "132004.537500", "132006.537500", "132008.537500", "132010.537500", "132012.537500"],
      "ContentTime": ["131505.240000", "131506.736000", "131508.735000", "131510.736000", "131512.736000", "131514.737000", "131516.736000", "131518.736000", "131520.735000", "131522.736000", "131524.736000", "131526.736000", "131528.236000", "131530.735000", "131532.736000", "131534.737000", "131536.736000", "131538.735000", "131540.736000", "131542.736000", "131544.735000", "131546.736000", "131548.736000", "131550.737000", "131552.736000", "131554.735000", "131556.235000", "131558.736000", "131600.736000", "131602.236000", "131604.735000", "131606.236000", "131608.737000", "131610.736000", "131612.736000", "131614.735000", "131616.736000", "131618.235000", "131620.235000", "131622.735000", "131624.736000", "131626.236000", "131628.236000", "131630.736000", "131632.736000", "131634.736000", "131636.736000", "131638.235000", "131640.756000", "131642.737000", "131644.736000", "131646.735000", "131648.736000", "131650.736000", "131652.735000", "131654.736000", "131656.736000", "131658.736000", "131700.736000", "131702.737000", "131704.236000", "131706.735000", "131708.736000", "131710.736000", "131712.735000", "131714.735000", "131716.737000", "131718.736000", "131720.736000", "131722.235000", "131724.736000", "131726.735000", "131728.736000", "131730.235000", "131732.236000", "131734.737000", "131736.736000", "131738.736000", "131740.735000", "131742.735000", "131744.736000", "131746.735000", "131748.736000", "131750.735000", "131752.737000", "131754.736000", "131756.736000", "131758.736000", "131800.735000", "131802.735000", "131804.735000", "131806.736000", "131808.236000", "131810.736000", "131812.736000", "131814.735000", "131816.736000", "131818.735000", "131820.736000", "131822.736000", "131824.735000", "131826.736000", "131828.737000", "131830.736000", "131832.735000", "131834.735000", "131836.736000", "131838.735000", "131840.736000", "131842.736000", "131844.737000", "131846.736000", "131848.736000", "131850.735000", "131852.735000", "131854.735000", "131856.735000", "131858.235000", "131900.735000", "131902.736000", "131904.737000", "131906.735000", "131908.735000", "131910.736000", "131912.735000", "131914.736000", "131916.735000", "131918.737000", "131920.737000", "131922.737000", "131924.736000", "131926.235000", "131928.735000", "131930.736000", "131932.735000", "131934.735000", "131936.737000", "131938.736000", "131940.737000", "131942.736000", "131944.735000", "131946.736000", "131948.735000", "131950.748000", "131952.735000", "131954.737000", "131956.736000", "131958.737000", "132000.736000", "132002.735000", "132004.236000", "132006.736000", "132008.736000", "132010.735000", "132012.736000", "132014.295000"],
      "InstanceCreationTime": ["131505.240000", "131506.736000", "131508.735000", "131510.736000", "131512.736000", "131514.737000", "131516.736000", "131518.736000", "131520.735000", "131522.736000", "131524.736000", "131526.736000", "131528.236000", "131530.735000", "131532.736000", "131534.737000", "131536.736000", "131538.735000", "131540.736000", "131542.736000", "131544.735000", "131546.736000", "131548.736000", "131550.737000", "131552.736000", "131554.735000", "131556.235000", "131558.736000", "131600.736000", "131602.236000", "131604.735000", "131606.236000", "131608.737000", "131610.736000", "131612.736000", "131614.735000", "131616.736000", "131618.235000", "131620.235000", "131622.735000", "131624.736000", "131626.236000", "131628.236000", "131630.736000", "131632.736000", "131634.736000", "131636.736000", "131638.235000", "131640.756000", "131642.737000", "131644.736000", "131646.735000", "131648.736000", "131650.736000", "131652.735000", "131654.736000", "131656.736000", "131658.736000", "131700.736000", "131702.737000", "131704.236000", "131706.735000", "131708.736000", "131710.736000", "131712.735000", "131714.735000", "131716.737000", "131718.736000", "131720.736000", "131722.235000", "131724.736000", "131726.735000", "131728.736000", "131730.235000", "131732.236000", "131734.737000", "131736.736000", "131738.736000", "131740.735000", "131742.735000", "131744.736000", "131746.735000", "131748.736000", "131750.735000", "131752.737000", "131754.736000", "131756.736000", "131758.736000", "131800.735000", "131802.735000", "131804.735000", "131806.736000", "131808.236000", "131810.736000", "131812.736000", "131814.735000", "131816.736000", "131818.735000", "131820.736000", "131822.736000", "131824.735000", "131826.736000", "131828.737000", "131830.736000", "131832.735000", "131834.735000", "131836.736000", "131838.735000", "131840.736000", "131842.736000", "131844.737000", "131846.736000", "131848.736000", "131850.735000", "131852.735000", "131854.735000", "131856.735000", "131858.235000", "131900.735000", "131902.736000", "131904.737000", "131906.735000", "131908.735000", "131910.736000", "131912.735000", "131914.736000", "131916.735000", "131918.737000", "131920.737000", "131922.737000", "131924.736000", "131926.235000", "131928.735000", "131930.736000", "131932.735000", "131934.735000", "131936.737000", "131938.736000", "131940.737000", "131942.736000", "131944.735000", "131946.736000", "131948.735000", "131950.748000", "131952.735000", "131954.737000", "131956.736000", "131958.737000", "132000.736000", "132002.735000", "132004.236000", "132006.736000", "132008.736000", "132010.735000", "132012.736000", "132014.295000"],
      "InstanceNumber": [1, 2, 3, 4, 5, 6, 7, 8, 9, 10, 11, 12, 13, 14, 15, 16, 17, 18, 19, 20, 21, 22, 23, 24, 25, 26, 27, 28, 29, 30, 31, 32, 33, 34, 35, 36, 37, 38, 39, 40, 41, 42, 43, 44, 45, 46, 47, 48, 49, 50, 51, 52, 53, 54, 55, 56, 57, 58, 59, 60, 61, 62, 63, 64, 65, 66, 67, 68, 69, 70, 71, 72, 73, 74, 75, 76, 77, 78, 79, 80, 81, 82, 83, 84, 85, 86, 87, 88, 89, 90, 91, 92, 93, 94, 95, 96, 97, 98, 99, 100, 101, 102, 103, 104, 105, 106, 107, 108, 109, 110, 111, 112, 113, 114, 115, 116, 117, 118, 119, 120, 121, 122, 123, 124, 125, 126, 127, 128, 129, 130, 131, 132, 133, 134, 135, 136, 137, 138, 139, 140, 141, 142, 143, 144, 145, 146, 147, 148, 149, 150, 151, 152, 153, 154, 155, 156],
      "LargestImagePixelValue": [3766, 4095, 3715, 3723, 3690, 3733, 3722, 3730, 3712, 3714, 3734, 3735, 3780, 3734, 3721, 3728, 3717, 3752, 3713, 3737, 3739, 3724, 3745, 3716, 3737, 3769, 3701, 3738, 3716, 3747, 3727, 3653, 3719, 3711, 3682, 3681, 3702, 3707, 3748, 3682, 3708, 3694, 3755, 3712, 3722, 3734, 3712, 3715, 3724, 3747, 3706, 3742, 3700, 3736, 3660, 3716, 3708, 3691, 3720, 3716, 3705, 3733, 3681, 3716, 3714, 3724, 3667, 3691, 3695, 3718, 3670, 3709, 3699, 3689, 3702, 3706, 3705, 3691, 3712, 3724, 3698, 3713, 3671, 3699, 3682, 3750, 3661, 3843, 3704, 3678, 3684, 3685, 3715, 3698, 3684, 3693, 3692, 3695, 3678, 3731, 3683, 3716, 3696, 3716, 3699, 3694, 3697, 3729, 3674, 3690, 3700, 3678, 3696, 3699, 3697, 3677, 3722, 3673, 3677, 3683, 3715, 3724, 3705, 3700, 3690, 3660, 3693, 3706, 3674, 3679, 3699, 3687, 3671, 3704, 3667, 3717, 3661, 3673, 3669, 3711, 3667, 3659, 3695, 3648, 3697, 3648, 3686, 3681, 3682, 3680, 3675, 3706, 3673, 3697, 3694, 3688],
      "WindowCenter": [854.0, 853.0, 850.0, 849.0, 849.0, 849.0, 849.0, 848.0, 848.0, 848.0, 849.0, 850.0, 849.0, 849.0, 848.0, 848.0, 848.0, 849.0, 848.0, 848.0, 849.0, 848.0, 848.0, 848.0, 848.0, 850.0, 849.0, 849.0, 848.0, 848.0, 848.0, 848.0, 849.0, 848.0, 848.0, 848.0, 848.0, 847.0, 848.0, 849.0, 850.0, 850.0, 850.0, 850.0, 850.0, 850.0, 849.0, 850.0, 850.0, 851.0, 850.0, 850.0, 848.0, 848.0, 849.0, 850.0, 850.0, 849.0, 848.0, 849.0, 849.0, 850.0, 848.0, 848.0, 848.0, 849.0, 849.0, 850.0, 849.0, 849.0, 847.0, 849.0, 849.0, 850.0, 850.0, 850.0, 851.0, 850.0, 850.0, 849.0, 848.0, 848.0, 847.0, 848.0, 848.0, 849.0, 848.0, 850.0, 850.0, 849.0, 849.0, 848.0, 849.0, 848.0, 848.0, 848.0, 848.0, 847.0, 848.0, 849.0, 849.0, 849.0, 850.0, 850.0, 850.0, 850.0, 849.0, 851.0, 852.0, 851.0, 850.0, 849.0, 850.0, 849.0, 849.0, 848.0, 849.0, 849.0, 849.0, 850.0, 851.0, 851.0, 851.0, 851.0, 850.0, 849.0, 848.0, 847.0, 848.0, 850.0, 850.0, 850.0, 849.0, 849.0, 849.0, 850.0, 850.0, 850.0, 850.0, 849.0, 849.0, 849.0, 850.0, 850.0, 850.0, 850.0, 851.0, 851.0, 850.0, 850.0, 850.0, 851.0, 851.0, 851.0, 850.0, 850.0],
      "WindowWidth": [1841.0, 1839.0, 1828.0, 1827.0, 1825.0, 1827.0, 1825.0, 1823.0, 1822.0, 1824.0, 1826.0, 1827.0, 1826.0, 1825.0, 1823.0, 1823.0, 1823.0, 1824.0, 1823.0, 1824.0, 1825.0, 1823.0, 1822.0, 1823.0, 1824.0, 1828.0, 1824.0, 1826.0, 1823.0, 1824.0, 1823.0, 1823.0, 1826.0, 1824.0, 1824.0, 1824.0, 1824.0, 1821.0, 1822.0, 1824.0, 1828.0, 1829.0, 1830.0, 1829.0, 1828.0, 1827.0, 1827.0, 1828.0, 1830.0, 1831.0, 1827.0, 1828.0, 1823.0, 1824.0, 1825.0, 1829.0, 1827.0, 1824.0, 1824.0, 1825.0, 1826.0, 1828.0, 1823.0, 1823.0, 1823.0, 1825.0, 1825.0, 1828.0, 1824.0, 1824.0, 1821.0, 1824.0, 1825.0, 1827.0, 1829.0, 1829.0, 1830.0, 1828.0, 1827.0, 1825.0, 1823.0, 1823.0, 1820.0, 1822.0, 1822.0, 1827.0, 1823.0, 1829.0, 1827.0, 1824.0, 1824.0, 1824.0, 1824.0, 1823.0, 1822.0, 1823.0, 1822.0, 1822.0, 1822.0, 1825.0, 1824.0, 1827.0, 1828.0, 1829.0, 1827.0, 1828.0, 1826.0, 1832.0, 1834.0, 1832.0, 1827.0, 1826.0, 1827.0, 1825.0, 1825.0, 1824.0, 1825.0, 1825.0, 1826.0, 1829.0, 1830.0, 1830.0, 1830.0, 1831.0, 1828.0, 1824.0, 1823.0, 1821.0, 1823.0, 1827.0, 1828.0, 1827.0, 1825.0, 1826.0, 1824.0, 1827.0, 1827.0, 1828.0, 1827.0, 1826.0, 1826.0, 1826.0, 1828.0, 1827.0, 1829.0, 1828.0, 1829.0, 1831.0, 1828.0, 1827.0, 1829.0, 1831.0, 1830.0, 1830.0, 1828.0, 1828.0]
    },
    "slices": {}
  }
}