{
  "AcquisitionMatrixPE": 100,
  "AcquisitionNumber": 1,
  "AcquisitionTime": "13:32:23.832500",
  "BandwidthPerPixelPhaseEncode": 18.519,
  "BaseResolution": 100,
  "BodyPartExamined": "BRAIN",
  "CoilCombinationMethod": "Sum of Squares",
  "ConsistencyInfo": "N4_VE11C_LATEST_20160120",
  "ConversionSoftware": "dcm2niix",
  "ConversionSoftwareVersion": "v1.0.20211006",
  "DerivedVendorReportedEchoSpacing": 0.000539986,
  "DeviceSerialNumber": "166078",
  "DwellTime": 2.1e-06,
  "EchoTime": 0.034,
  "EchoTrainLength": 100,
  "EffectiveEchoSpacing": 0.000539986,
  "FlipAngle": 90,
  "ImageOrientationPatientDICOM": [1, 0, 0, 0, 0.980271, -0.197657],
  "ImageOrientationText": "Tra>Cor(-11.4)",
  "ImageType": [
    "ORIGINAL",
    "PRIMARY",
    "M",
    "ND",
    "MOSAIC"
],
  "ImagingFrequency": 123.258,
  "InPlanePhaseEncodingDirectionDICOM": "COL",
  "InstitutionAddress": "Street StreetNo,Bei Jing,District,CN,ZIP",
  "InstitutionName": "BeiJing Normal University",
  "InstitutionalDepartmentName": "Department",
  "MRAcquisitionType": "2D",
  "MagneticFieldStrength": 3,
  "Manufacturer": "Siemens",
  "ManufacturersModelName": "Prisma",
  "Modality": "MR",
  "MultibandAccelerationFactor": 3,
  "PartialFourier": 1,
  "PatientPosition": "HFS",
  "PercentPhaseFOV": 100,
  "PercentSampling": 100,
  "PhaseEncodingDirection": "j-",
  "PhaseEncodingSteps": 100,
  "PhaseResolution": 1,
  "PixelBandwidth": 2380,
  "ProcedureStepDescription": "BNU_P2018_64CH^Zhen.ZongLei",
  "ProtocolName": "bold_100x100_s3_2x2x2_static_156",
  "PulseSequenceDetails": "%SiemensSeq%\\ep2d_bold",
  "ReceiveCoilActiveElements": "HC1-7;NC1",
  "ReceiveCoilName": "HeadNeck_64",
  "ReconMatrixPE": 100,
  "RefLinesPE": 32,
  "RepetitionTime": 2,
  "SAR": 0.0844088,
  "ScanOptions": "FS",
  "ScanningSequence": "EP",
  "SequenceName": "*epfid2d1_100",
  "SequenceVariant": "SK",
  "SeriesDescription": "bold_100x100_s3_2x2x2_static_156",
  "SeriesNumber": 8,
  "ShimSetting": [-5446, -11513, -1244, 294, 9, -142, -87, 47],
  "SliceThickness": 2,
  "SliceTiming": [1.485, 0, 0.99, 0.0825, 1.0725, 0.165, 1.155, 0.2475, 1.2375, 0.33, 1.32, 0.4125, 1.4025, 0.5775, 1.5675, 0.66, 1.65, 0.7425, 1.7325, 0.825, 1.815, 0.9075, 1.8975, 0.495, 1.485, 0, 0.99, 0.0825, 1.0725, 0.165, 1.155, 0.2475, 1.2375, 0.33, 1.32, 0.4125, 1.4025, 0.5775, 1.5675, 0.66, 1.65, 0.7425, 1.7325, 0.825, 1.815, 0.9075, 1.8975, 0.495, 1.485, 0, 0.99, 0.0825, 1.0725, 0.165, 1.155, 0.2475, 1.2375, 0.33, 1.32, 0.4125, 1.4025, 0.5775, 1.5675, 0.66, 1.65, 0.7425, 1.7325, 0.825, 1.815, 0.9075, 1.8975, 0.495],
  "SoftwareVersions": "syngo MR E11",
  "SpacingBetweenSlices": 2,
  "StationName": "AWP166078",
  "TaskName": "action",
  "TotalReadoutTime": 0.0534586,
  "TxRefAmp": 251.967,
  "dcmmeta_affine": [
    [-2.0, 0.0, 0.0, 100.67796325683594],
    [0.0, 1.9605423212051392, -0.39531469345092773, -74.68665313720703],
    [0.0, 0.39531469345092773, 1.9605423212051392, -67.29412841796875],
    [0.0, 0.0, 0.0, 1.0]
],
  "dcmmeta_reorient_transform": [
    [0.0, -1.0, 0.0, 99.0],
    [1.0, 0.0, 0.0, 0.0],
    [0.0, 0.0, 1.0, 0.0],
    [0.0, 0.0, 0.0, 1.0]
],
  "dcmmeta_shape": [100, 100, 72, 156],
  "dcmmeta_slice_dim": 2,
  "dcmmeta_version": 0.6,
  "global": {
    "const": {
      "AcquisitionMatrix": [100, 0, 0, 100],
      "AngioFlag": "N",
      "BitsAllocated": 16,
      "BitsStored": 12,
      "BodyPartExamined": "BRAIN",
      "Columns": 900,
      "EchoNumbers": 1,
      "EchoTime": 34.0,
      "EchoTrainLength": 100,
      "FlipAngle": 90.0,
      "HighBit": 11,
      "ImageOrientationPatient": [1.0, 0.0, 0.0, 0.0, 0.98027117266369, -0.1976573500899],
      "ImagePositionPatient": [-900.67796611786, -903.62397444945, 129.96790521151],
      "ImageType": [
        "ORIGINAL",
        "PRIMARY",
        "M",
        "ND",
        "MOSAIC"
],
      "ImagedNucleus": "1H",
      "ImagingFrequency": 123.257696,
      "InPlanePhaseEncodingDirection": "COL",
      "MRAcquisitionType": "2D",
      "MagneticFieldStrength": 3.0,
      "Manufacturer": "SIEMENS",
      "ManufacturerModelName": "Prisma",
      "Modality": "MR",
      "NumberOfAverages": 1.0,
      "NumberOfPhaseEncodingSteps": 100,
      "PercentPhaseFieldOfView": 100.0,
      "PercentSampling": 100.0,
      "PerformedProcedureStepStartTime": "125606.019000",
      "PhotometricInterpretation": "MONOCHROME2",
      "PixelBandwidth": 2380.0,
      "PixelRepresentation": 0,
      "PixelSpacing": [2.0, 2.0],
      "ProtocolName": "bold_100x100_s3_2x2x2_static_156",
      "RepetitionTime": 2000.0,
      "Rows": 900,
      "SAR": 0.08440879727838,
      "SamplesPerPixel": 1,
      "ScanOptions": "FS",
      "ScanningSequence": "EP",
      "SequenceName": "*epfid2d1_100",
      "SequenceVariant": "SK",
      "SeriesDescription": "bold_100x100_s3_2x2x2_static_156",
      "SeriesNumber": 8,
      "SeriesTime": "133225.898000",
      "SliceLocation": -51.204129417035,
      "SliceThickness": 2.0,
      "SmallestImagePixelValue": 0,
      "SoftwareVersions": "syngo MR E11",
      "SpacingBetweenSlices": 1.9999999832531,
      "SpecificCharacterSet": "ISO_IR 100",
      "StudyID": "1",
      "StudyTime": "125605.925000",
      "TransmitCoilName": "Body",
      "VariableFlipAngleFlag": "N",
      "WindowCenterWidthExplanation": "Algo1",
      "dBdt": 0.0},
    "slices": {}
  },
  "time": {
    "samples": {
      "AcquisitionNumber": [1, 2, 3, 4, 5, 6, 7, 8, 9, 10, 11, 12, 13, 14, 15, 16, 17, 18, 19, 20, 21, 22, 23, 24, 25, 26, 27, 28, 29, 30, 31, 32, 33, 34, 35, 36, 37, 38, 39, 40, 41, 42, 43, 44, 45, 46, 47, 48, 49, 50, 51, 52, 53, 54, 55, 56, 57, 58, 59, 60, 61, 62, 63, 64, 65, 66, 67, 68, 69, 70, 71, 72, 73, 74, 75, 76, 77, 78, 79, 80, 81, 82, 83, 84, 85, 86, 87, 88, 89, 90, 91, 92, 93, 94, 95, 96, 97, 98, 99, 100, 101, 102, 103, 104, 105, 106, 107, 108, 109, 110, 111, 112, 113, 114, 115, 116, 117, 118, 119, 120, 121, 122, 123, 124, 125, 126, 127, 128, 129, 130, 131, 132, 133, 134, 135, 136, 137, 138, 139, 140, 141, 142, 143, 144, 145, 146, 147, 148, 149, 150, 151, 152, 153, 154, 155, 156],
      "AcquisitionTime": ["133223.832500", "133225.832500", "133227.832500", "133229.832500", "133231.832500", "133233.832500", "133235.832500", "133237.832500", "133239.832500", "133241.832500", "133243.832500", "133245.832500", "133247.832500", "133249.832500", "133251.832500", "133253.832500", "133255.832500", "133257.832500", "133259.832500", "133301.832500", "133303.832500", "133305.832500", "133307.832500", "133309.832500", "133311.832500", "133313.832500", "133315.832500", "133317.832500", "133319.832500", "133321.832500", "133323.832500", "133325.832500", "133327.832500", "133329.832500", "133331.832500", "133333.832500", "133335.832500", "133337.832500", "133339.832500", "133341.832500", "133343.832500", "133345.832500", "133347.832500", "133349.832500", "133351.832500", "133353.832500", "133355.832500", "133357.832500", "133359.832500", "133401.832500", "133403.832500", "133405.832500", "133407.832500", "133409.832500", "133411.832500", "133413.832500", "133415.832500", "133417.832500", "133419.832500", "133421.832500", "133423.832500", "133425.832500", "133427.832500", "133429.832500", "133431.832500", "133433.832500", "133435.832500", "133437.832500", "133439.832500", "133441.832500", "133443.832500", "133445.832500", "133447.832500", "133449.832500", "133451.832500", "133453.832500", "133455.832500", "133457.832500", "133459.832500", "133501.832500", "133503.832500", "133505.832500", "133507.832500", "133509.832500", "133511.832500", "133513.832500", "133515.832500", "133517.832500", "133519.832500", "133521.832500", "133523.832500", "133525.832500", "133527.832500", "133529.832500", "133531.832500", "133533.832500", "133535.832500", "133537.832500", "133539.832500", "133541.832500", "133543.832500", "133545.832500", "133547.832500", "133549.832500", "133551.832500", "133553.832500", "133555.832500", "133557.832500", "133559.832500", "133601.832500", "133603.832500", "133605.832500", "133607.832500", "133609.832500", "133611.832500", "133613.832500", "133615.832500", "133617.832500", "133619.832500", "133621.832500", "133623.832500", "133625.832500", "133627.832500", "133629.832500", "133631.832500", "133633.832500", "133635.832500", "133637.832500", "133639.832500", "133641.832500", "133643.832500", "133645.832500", "133647.832500", "133649.832500", "133651.832500", "133653.832500", "133655.832500", "133657.832500", "133659.832500", "133701.832500", "133703.832500", "133705.832500", "133707.832500", "133709.832500", "133711.832500", "133713.832500", "133715.832500", "133717.832500", "133719.832500", "133721.832500", "133723.832500", "133725.832500", "133727.832500", "133729.832500", "133731.832500", "133733.832500"],
      "ContentTime": ["133225.901000", "133227.357000", "133229.357000", "133231.357000", "133233.357000", "133235.357000", "133237.358000", "133239.357000", "133241.357000", "133243.357000", "133245.357000", "133247.357000", "133249.357000", "133251.357000", "133253.357000", "133255.358000", "133257.357000", "133259.357000", "133301.357000", "133303.357000", "133305.357000", "133307.357000", "133309.357000", "133311.357000", "133313.357000", "133315.357000", "133317.358000", "133319.357000", "133321.357000", "133323.357000", "133325.357000", "133327.357000", "133329.357000", "133331.357000", "133333.357000", "133335.357000", "133337.357000", "133339.357000", "133341.357000", "133343.357000", "133345.357000", "133347.357000", "133349.357000", "133351.357000", "133353.358000", "133355.377000", "133357.357000", "133359.357000", "133401.357000", "133403.357000", "133405.357000", "133407.357000", "133409.357000", "133411.357000", "133413.357000", "133415.357000", "133417.357000", "133419.358000", "133421.357000", "133423.357000", "133425.357000", "133427.357000", "133429.358000", "133431.358000", "133433.357000", "133435.357000", "133437.357000", "133439.357000", "133441.357000", "133443.357000", "133445.357000", "133447.357000", "133449.358000", "133451.358000", "133453.358000", "133455.357000", "133457.357000", "133459.357000", "133501.357000", "133503.358000", "133505.358000", "133507.358000", "133509.358000", "133511.357000", "133513.357000", "133515.357000", "133517.357000", "133519.357000", "133521.357000", "133523.358000", "133525.357000", "133527.358000", "133529.358000", "133531.357000", "133533.358000", "133535.357000", "133537.357000", "133539.357000", "133541.358000", "133543.358000", "133545.357000", "133547.357000", "133549.358000", "133551.357000", "133553.357000", "133555.358000", "133557.357000", "133559.358000", "133601.357000", "133603.357000", "133605.358000", "133607.358000", "133609.358000", "133611.357000", "133613.358000", "133615.358000", "133617.358000", "133619.358000", "133621.358000", "133623.358000", "133625.358000", "133627.358000", "133629.358000", "133631.357000", "133633.358000", "133635.358000", "133637.358000", "133639.358000", "133641.358000", "133643.358000", "133645.358000", "133647.357000", "133649.358000", "133651.357000", "133653.358000", "133655.358000", "133657.357000", "133659.358000", "133701.358000", "133703.358000", "133705.357000", "133707.357000", "133709.358000", "133711.358000", "133713.358000", "133715.358000", "133717.358000", "133719.358000", "133721.357000", "133723.358000", "133725.357000", "133727.357000", "133729.357000", "133731.358000", "133733.357000", "133735.272000"],
      "InstanceCreationTime": ["133225.901000", "133227.357000", "133229.357000", "133231.357000", "133233.357000", "133235.357000", "133237.358000", "133239.357000", "133241.357000", "133243.357000", "133245.357000", "133247.357000", "133249.357000", "133251.357000", "133253.357000", "133255.358000", "133257.357000", "133259.357000", "133301.357000", "133303.357000", "133305.357000", "133307.357000", "133309.357000", "133311.357000", "133313.357000", "133315.357000", "133317.358000", "133319.357000", "133321.357000", "133323.357000", "133325.357000", "133327.357000", "133329.357000", "133331.357000", "133333.357000", "133335.357000", "133337.357000", "133339.357000", "133341.357000", "133343.357000", "133345.357000", "133347.357000", "133349.357000", "133351.357000", "133353.358000", "133355.377000", "133357.357000", "133359.357000", "133401.357000", "133403.357000", "133405.357000", "133407.357000", "133409.357000", "133411.357000", "133413.357000", "133415.357000", "133417.357000", "133419.358000", "133421.357000", "133423.357000", "133425.357000", "133427.357000", "133429.358000", "133431.358000", "133433.357000", "133435.357000", "133437.357000", "133439.357000", "133441.357000", "133443.357000", "133445.357000", "133447.357000", "133449.358000", "133451.358000", "133453.358000", "133455.357000", "133457.357000", "133459.357000", "133501.357000", "133503.358000", "133505.358000", "133507.358000", "133509.358000", "133511.357000", "133513.357000", "133515.357000", "133517.357000", "133519.357000", "133521.357000", "133523.358000", "133525.357000", "133527.358000", "133529.358000", "133531.357000", "133533.358000", "133535.357000", "133537.357000", "133539.357000", "133541.358000", "133543.358000", "133545.357000", "133547.357000", "133549.358000", "133551.357000", "133553.357000", "133555.358000", "133557.357000", "133559.358000", "133601.357000", "133603.357000", "133605.358000", "133607.358000", "133609.358000", "133611.357000", "133613.358000", "133615.358000", "133617.358000", "133619.358000", "133621.358000", "133623.358000", "133625.358000", "133627.358000", "133629.358000", "133631.357000", "133633.358000", "133635.358000", "133637.358000", "133639.358000", "133641.358000", "133643.358000", "133645.358000", "133647.357000", "133649.358000", "133651.357000", "133653.358000", "133655.358000", "133657.357000", "133659.358000", "133701.358000", "133703.358000", "133705.357000", "133707.357000", "133709.358000", "133711.358000", "133713.358000", "133715.358000", "133717.358000", "133719.358000", "133721.357000", "133723.358000", "133725.357000", "133727.357000", "133729.357000", "133731.358000", "133733.357000", "133735.272000"],
      "InstanceNumber": [1, 2, 3, 4, 5, 6, 7, 8, 9, 10, 11, 12, 13, 14, 15, 16, 17, 18, 19, 20, 21, 22, 23, 24, 25, 26, 27, 28, 29, 30, 31, 32, 33, 34, 35, 36, 37, 38, 39, 40, 41, 42, 43, 44, 45, 46, 47, 48, 49, 50, 51, 52, 53, 54, 55, 56, 57, 58, 59, 60, 61, 62, 63, 64, 65, 66, 67, 68, 69, 70, 71, 72, 73, 74, 75, 76, 77, 78, 79, 80, 81, 82, 83, 84, 85, 86, 87, 88, 89, 90, 91, 92, 93, 94, 95, 96, 97, 98, 99, 100, 101, 102, 103, 104, 105, 106, 107, 108, 109, 110, 111, 112, 113, 114, 115, 116, 117, 118, 119, 120, 121, 122, 123, 124, 125, 126, 127, 128, 129, 130, 131, 132, 133, 134, 135, 136, 137, 138, 139, 140, 141, 142, 143, 144, 145, 146, 147, 148, 149, 150, 151, 152, 153, 154, 155, 156],
      "LargestImagePixelValue": [3837, 3825, 3797, 3816, 3840, 3832, 3869, 3850, 3880, 3847, 3861, 3837, 3875, 3813, 3837, 3821, 3881, 3806, 3848, 3886, 3832, 3873, 3842, 3875, 3818, 3882, 3793, 3886, 3822, 3890, 3843, 3843, 3884, 3847, 3870, 3851, 3883, 3801, 3886, 3793, 3872, 3876, 3853, 3888, 3875, 3883, 3856, 3895, 3902, 3877, 3899, 3845, 3896, 3834, 3907, 3885, 3876, 3914, 3865, 3905, 3843, 3889, 3894, 3894, 3871, 3868, 3873, 3875, 3909, 3878, 3900, 3867, 3913, 3898, 3924, 3908, 3941, 3887, 3873, 3912, 3928, 3921, 3917, 3851, 3928, 3870, 3922, 3864, 3896, 3902, 3886, 3905, 3888, 3895, 3892, 3902, 3880, 3896, 3875, 3900, 3903, 3897, 3897, 3916, 3936, 3890, 3933, 3893, 3891, 3868, 3872, 3881, 3892, 3872, 3907, 3904, 3894, 3904, 3882, 3896, 3898, 3910, 3899, 3914, 3890, 3917, 3910, 3921, 3889, 3902, 3948, 3909, 3920, 3919, 3925, 3922, 3915, 3872, 3910, 3897, 3925, 3918, 3901, 3921, 3906, 3941, 3899, 3922, 3897, 3900, 3939, 3921, 3903, 3915, 3925, 3950],
      "WindowCenter": [860.0, 857.0, 855.0, 855.0, 855.0, 855.0, 855.0, 856.0, 855.0, 854.0, 854.0, 855.0, 855.0, 856.0, 854.0, 855.0, 855.0, 854.0, 855.0, 854.0, 853.0, 853.0, 853.0, 854.0, 854.0, 855.0, 853.0, 854.0, 854.0, 855.0, 855.0, 855.0, 854.0, 854.0, 854.0, 854.0, 854.0, 854.0, 854.0, 854.0, 855.0, 854.0, 855.0, 854.0, 854.0, 853.0, 853.0, 854.0, 855.0, 856.0, 855.0, 855.0, 854.0, 852.0, 853.0, 853.0, 854.0, 855.0, 855.0, 855.0, 854.0, 854.0, 855.0, 855.0, 855.0, 856.0, 855.0, 854.0, 854.0, 854.0, 853.0, 853.0, 854.0, 854.0, 855.0, 856.0, 857.0, 855.0, 855.0, 855.0, 855.0, 855.0, 855.0, 853.0, 853.0, 852.0, 852.0, 852.0, 854.0, 855.0, 855.0, 855.0, 855.0, 855.0, 855.0, 855.0, 854.0, 854.0, 855.0, 855.0, 855.0, 854.0, 854.0, 855.0, 855.0, 855.0, 854.0, 854.0, 854.0, 855.0, 855.0, 856.0, 856.0, 856.0, 854.0, 855.0, 855.0, 855.0, 855.0, 855.0, 856.0, 856.0, 856.0, 856.0, 856.0, 856.0, 855.0, 854.0, 854.0, 855.0, 855.0, 855.0, 856.0, 855.0, 854.0, 854.0, 855.0, 856.0, 857.0, 856.0, 855.0, 854.0, 854.0, 854.0, 855.0, 855.0, 856.0, 856.0, 855.0, 855.0, 855.0, 855.0, 855.0, 855.0, 855.0, 856.0],
      "WindowWidth": [1855.0, 1846.0, 1839.0, 1839.0, 1839.0, 1841.0, 1840.0, 1842.0, 1839.0, 1839.0, 1838.0, 1840.0, 1840.0, 1842.0, 1839.0, 1841.0, 1841.0, 1839.0, 1840.0, 1838.0, 1836.0, 1837.0, 1836.0, 1837.0, 1837.0, 1840.0, 1835.0, 1837.0, 1838.0, 1840.0, 1839.0, 1842.0, 1839.0, 1839.0, 1838.0, 1837.0, 1837.0, 1837.0, 1839.0, 1838.0, 1840.0, 1839.0, 1839.0, 1837.0, 1838.0, 1836.0, 1836.0, 1839.0, 1841.0, 1842.0, 1840.0, 1839.0, 1838.0, 1833.0, 1834.0, 1835.0, 1838.0, 1840.0, 1839.0, 1839.0, 1838.0, 1838.0, 1839.0, 1841.0, 1841.0, 1843.0, 1840.0, 1839.0, 1836.0, 1838.0, 1835.0, 1836.0, 1839.0, 1839.0, 1842.0, 1842.0, 1846.0, 1841.0, 1840.0, 1841.0, 1839.0, 1841.0, 1840.0, 1836.0, 1834.0, 1833.0, 1833.0, 1833.0, 1837.0, 1839.0, 1840.0, 1840.0, 1840.0, 1840.0, 1839.0, 1839.0, 1836.0, 1838.0, 1839.0, 1841.0, 1839.0, 1838.0, 1838.0, 1839.0, 1839.0, 1839.0, 1838.0, 1839.0, 1839.0, 1840.0, 1841.0, 1842.0, 1842.0, 1842.0, 1838.0, 1840.0, 1840.0, 1841.0, 1840.0, 1841.0, 1842.0, 1843.0, 1843.0, 1843.0, 1843.0, 1844.0, 1840.0, 1838.0, 1837.0, 1840.0, 1839.0, 1841.0, 1842.0, 1841.0, 1838.0, 1839.0, 1840.0, 1843.0, 1845.0, 1842.0, 1841.0, 1838.0, 1838.0, 1838.0, 1840.0, 1842.0, 1842.0, 1843.0, 1841.0, 1841.0, 1841.0, 1842.0, 1841.0, 1841.0, 1840.0, 1844.0]
    },
    "slices": {}
  }
}