{
  "AcquisitionMatrixPE": 100,
  "AcquisitionNumber": 1,
  "AcquisitionTime": "16:36:10.010000",
  "BandwidthPerPixelPhaseEncode": 18.519,
  "BaseResolution": 100,
  "BodyPartExamined": "BRAIN",
  "CoilCombinationMethod": "Sum of Squares",
  "ConsistencyInfo": "N4_VE11C_LATEST_20160120",
  "ConversionSoftware": "dcm2niix",
  "ConversionSoftwareVersion": "v1.0.20211006",
  "DerivedVendorReportedEchoSpacing": 0.000539986,
  "DeviceSerialNumber": "166078",
  "DwellTime": 2.1e-06,
  "EchoTime": 0.034,
  "EchoTrainLength": 100,
  "EffectiveEchoSpacing": 0.000539986,
  "FlipAngle": 90,
  "ImageOrientationPatientDICOM": [1, 0, 0, 0, 0.96363, -0.267238],
  "ImageOrientationText": "Tra>Cor(-15.5)",
  "ImageType": [
    "ORIGINAL",
    "PRIMARY",
    "M",
    "ND",
    "MOSAIC"
],
  "ImagingFrequency": 123.258,
  "InPlanePhaseEncodingDirectionDICOM": "COL",
  "InstitutionAddress": "Street StreetNo,Bei Jing,District,CN,ZIP",
  "InstitutionName": "BeiJing Normal University",
  "InstitutionalDepartmentName": "Department",
  "MRAcquisitionType": "2D",
  "MagneticFieldStrength": 3,
  "Manufacturer": "Siemens",
  "ManufacturersModelName": "Prisma",
  "Modality": "MR",
  "MultibandAccelerationFactor": 3,
  "PartialFourier": 1,
  "PatientPosition": "HFS",
  "PercentPhaseFOV": 100,
  "PercentSampling": 100,
  "PhaseEncodingDirection": "j-",
  "PhaseEncodingSteps": 100,
  "PhaseResolution": 1,
  "PixelBandwidth": 2380,
  "ProcedureStepDescription": "BNU_P2018_64CH^Zhen.ZongLei",
  "ProtocolName": "bold_100x100_s3_2x2x2_static_156",
  "PulseSequenceDetails": "%SiemensSeq%\\ep2d_bold",
  "ReceiveCoilActiveElements": "HC1-7;NC1",
  "ReceiveCoilName": "HeadNeck_64",
  "ReconMatrixPE": 100,
  "RefLinesPE": 32,
  "RepetitionTime": 2,
  "SAR": 0.0670614,
  "ScanOptions": "FS",
  "ScanningSequence": "EP",
  "SequenceName": "*epfid2d1_100",
  "SequenceVariant": "SK",
  "SeriesDescription": "bold_100x100_s3_2x2x2_static_156",
  "SeriesNumber": 8,
  "ShimSetting": [-5460, -11527, -1257, 402, -8, -337, -117, 36],
  "SliceThickness": 2,
  "SliceTiming": [1.485, 0, 0.99, 0.0825, 1.0725, 0.165, 1.155, 0.2475, 1.2375, 0.33, 1.32, 0.4125, 1.4025, 0.5775, 1.5675, 0.66, 1.65, 0.7425, 1.7325, 0.825, 1.815, 0.9075, 1.8975, 0.495, 1.485, 0, 0.99, 0.0825, 1.0725, 0.165, 1.155, 0.2475, 1.2375, 0.33, 1.32, 0.4125, 1.4025, 0.5775, 1.5675, 0.66, 1.65, 0.7425, 1.7325, 0.825, 1.815, 0.9075, 1.8975, 0.495, 1.485, 0, 0.99, 0.0825, 1.0725, 0.165, 1.155, 0.2475, 1.2375, 0.33, 1.32, 0.4125, 1.4025, 0.5775, 1.5675, 0.66, 1.65, 0.7425, 1.7325, 0.825, 1.815, 0.9075, 1.8975, 0.495],
  "SoftwareVersions": "syngo MR E11",
  "SpacingBetweenSlices": 2,
  "StationName": "AWP166078",
  "TaskName": "action",
  "TotalReadoutTime": 0.0534586,
  "TxRefAmp": 212.816,
  "dcmmeta_affine": [
    [-2.0, 0.0, 0.0, 100.0],
    [0.0, 1.9272608757019043, -0.5344767570495605, -71.66040802001953],
    [0.0, 0.5344767570495605, 1.9272608757019043, -91.50785064697266],
    [0.0, 0.0, 0.0, 1.0]
],
  "dcmmeta_reorient_transform": [
    [0.0, -1.0, 0.0, 99.0],
    [1.0, 0.0, 0.0, 0.0],
    [0.0, 0.0, 1.0, 0.0],
    [0.0, 0.0, 0.0, 1.0]
],
  "dcmmeta_shape": [100, 100, 72, 156],
  "dcmmeta_slice_dim": 2,
  "dcmmeta_version": 0.6,
  "global": {
    "const": {
      "AcquisitionMatrix": [100, 0, 0, 100],
      "AngioFlag": "N",
      "BitsAllocated": 16,
      "BitsStored": 12,
      "BodyPartExamined": "BRAIN",
      "Columns": 900,
      "EchoNumbers": 1,
      "EchoTime": 34.0,
      "EchoTrainLength": 100,
      "FlipAngle": 90.0,
      "HighBit": 11,
      "ImageOrientationPatient": [1.0, 0.0, 0.0, 0.0, 0.9636304558474, -0.2672383665631],
      "ImagePositionPatient": [-900.0, -890.04278753622, 175.19604083213],
      "ImageType": [
        "ORIGINAL",
        "PRIMARY",
        "M",
        "ND",
        "MOSAIC"
],
      "ImagedNucleus": "1H",
      "ImagingFrequency": 123.257726,
      "InPlanePhaseEncodingDirection": "COL",
      "MRAcquisitionType": "2D",
      "MagneticFieldStrength": 3.0,
      "Manufacturer": "SIEMENS",
      "ManufacturerModelName": "Prisma",
      "Modality": "MR",
      "NumberOfAverages": 1.0,
      "NumberOfPhaseEncodingSteps": 100,
      "PercentPhaseFieldOfView": 100.0,
      "PercentSampling": 100.0,
      "PerformedProcedureStepStartTime": "160219.420000",
      "PhotometricInterpretation": "MONOCHROME2",
      "PixelBandwidth": 2380.0,
      "PixelRepresentation": 0,
      "PixelSpacing": [2.0, 2.0],
      "ProtocolName": "bold_100x100_s3_2x2x2_static_156",
      "RepetitionTime": 2000.0,
      "Rows": 900,
      "SAR": 0.06706142560556,
      "SamplesPerPixel": 1,
      "ScanOptions": "FS",
      "ScanningSequence": "EP",
      "SequenceName": "*epfid2d1_100",
      "SequenceVariant": "SK",
      "SeriesDescription": "bold_100x100_s3_2x2x2_static_156",
      "SeriesNumber": 8,
      "SeriesTime": "163612.375000",
      "SliceLocation": -69.029340022769,
      "SliceThickness": 2.0,
      "SmallestImagePixelValue": 0,
      "SoftwareVersions": "syngo MR E11",
      "SpacingBetweenSlices": 2.0000000152169,
      "SpecificCharacterSet": "ISO_IR 100",
      "StudyID": "1",
      "StudyTime": "160219.353000",
      "TransmitCoilName": "Body",
      "VariableFlipAngleFlag": "N",
      "WindowCenterWidthExplanation": "Algo1",
      "dBdt": 0.0},
    "slices": {}
  },
  "time": {
    "samples": {
      "AcquisitionNumber": [1, 2, 3, 4, 5, 6, 7, 8, 9, 10, 11, 12, 13, 14, 15, 16, 17, 18, 19, 20, 21, 22, 23, 24, 25, 26, 27, 28, 29, 30, 31, 32, 33, 34, 35, 36, 37, 38, 39, 40, 41, 42, 43, 44, 45, 46, 47, 48, 49, 50, 51, 52, 53, 54, 55, 56, 57, 58, 59, 60, 61, 62, 63, 64, 65, 66, 67, 68, 69, 70, 71, 72, 73, 74, 75, 76, 77, 78, 79, 80, 81, 82, 83, 84, 85, 86, 87, 88, 89, 90, 91, 92, 93, 94, 95, 96, 97, 98, 99, 100, 101, 102, 103, 104, 105, 106, 107, 108, 109, 110, 111, 112, 113, 114, 115, 116, 117, 118, 119, 120, 121, 122, 123, 124, 125, 126, 127, 128, 129, 130, 131, 132, 133, 134, 135, 136, 137, 138, 139, 140, 141, 142, 143, 144, 145, 146, 147, 148, 149, 150, 151, 152, 153, 154, 155, 156],
      "AcquisitionTime": ["163610.010000", "163612.010000", "163614.010000", "163616.010000", "163618.010000", "163620.010000", "163622.010000", "163624.010000", "163626.010000", "163628.010000", "163630.010000", "163632.010000", "163634.010000", "163636.010000", "163638.010000", "163640.010000", "163642.010000", "163644.010000", "163646.010000", "163648.010000", "163650.010000", "163652.010000", "163654.010000", "163656.010000", "163658.010000", "163700.010000", "163702.010000", "163704.010000", "163706.010000", "163708.010000", "163710.010000", "163712.010000", "163714.010000", "163716.010000", "163718.010000", "163720.010000", "163722.010000", "163724.010000", "163726.010000", "163728.010000", "163730.010000", "163732.010000", "163734.010000", "163736.010000", "163738.010000", "163740.010000", "163742.010000", "163744.010000", "163746.010000", "163748.010000", "163750.010000", "163752.010000", "163754.010000", "163756.010000", "163758.010000", "163800.010000", "163802.010000", "163804.010000", "163806.010000", "163808.010000", "163810.010000", "163812.010000", "163814.010000", "163816.010000", "163818.010000", "163820.010000", "163822.010000", "163824.010000", "163826.010000", "163828.010000", "163830.010000", "163832.010000", "163834.010000", "163836.010000", "163838.010000", "163840.010000", "163842.010000", "163844.010000", "163846.010000", "163848.010000", "163850.010000", "163852.010000", "163854.010000", "163856.010000", "163858.010000", "163900.010000", "163902.010000", "163904.010000", "163906.010000", "163908.010000", "163910.010000", "163912.010000", "163914.010000", "163916.010000", "163918.010000", "163920.010000", "163922.010000", "163924.010000", "163926.010000", "163928.010000", "163930.010000", "163932.010000", "163934.010000", "163936.010000", "163938.010000", "163940.010000", "163942.010000", "163944.010000", "163946.010000", "163948.010000", "163950.010000", "163952.010000", "163954.010000", "163956.010000", "163958.010000", "164000.010000", "164002.010000", "164004.010000", "164006.010000", "164008.010000", "164010.010000", "164012.010000", "164014.010000", "164016.010000", "164018.010000", "164020.010000", "164022.010000", "164024.010000", "164026.010000", "164028.010000", "164030.010000", "164032.010000", "164034.010000", "164036.010000", "164038.010000", "164040.010000", "164042.010000", "164044.010000", "164046.010000", "164048.010000", "164050.010000", "164052.010000", "164054.010000", "164056.010000", "164058.010000", "164100.010000", "164102.010000", "164104.010000", "164106.010000", "164108.010000", "164110.010000", "164112.010000", "164114.010000", "164116.010000", "164118.010000", "164120.010000"],
      "ContentTime": ["163612.378000", "163613.865000", "163615.866000", "163617.866000", "163619.865000", "163621.866000", "163623.866000", "163625.865000", "163627.865000", "163629.865000", "163631.865000", "163634.366000", "163635.865000", "163638.365000", "163639.867000", "163641.865000", "163643.866000", "163645.865000", "163647.866000", "163649.865000", "163651.866000", "163654.366000", "163655.865000", "163657.866000", "163659.866000", "163702.365000", "163704.365000", "163705.865000", "163707.866000", "163709.866000", "163712.365000", "163713.867000", "163715.866000", "163717.866000", "163719.865000", "163721.866000", "163723.865000", "163725.865000", "163727.866000", "163729.865000", "163731.866000", "163734.365000", "163736.365000", "163738.366000", "163739.865000", "163741.865000", "163743.865000", "163745.865000", "163748.365000", "163749.867000", "163751.865000", "163753.865000", "163755.865000", "163757.866000", "163800.366000", "163802.366000", "163803.865000", "163805.865000", "163807.866000", "163809.865000", "163811.866000", "163813.865000", "163815.865000", "163817.866000", "163819.865000", "163821.866000", "163823.866000", "163825.866000", "163827.865000", "163830.365000", "163831.865000", "163833.866000", "163836.366000", "163838.366000", "163839.865000", "163842.367000", "163843.865000", "163846.366000", "163847.865000", "163849.865000", "163851.865000", "163854.365000", "163855.866000", "163857.866000", "163900.367000", "163902.366000", "163903.865000", "163905.866000", "163907.865000", "163910.365000", "163911.866000", "163913.866000", "163915.865000", "163917.867000", "163920.365000", "163922.365000", "163923.865000", "163925.865000", "163927.865000", "163929.865000", "163931.866000", "163934.366000", "163936.366000", "163938.365000", "163939.866000", "163941.866000", "163943.865000", "163945.866000", "163947.866000", "163949.865000", "163951.867000", "163953.866000", "163955.866000", "163957.865000", "163959.865000", "164001.865000", "164003.866000", "164005.865000", "164007.865000", "164009.867000", "164011.865000", "164013.865000", "164015.865000", "164017.866000", "164019.866000", "164021.866000", "164023.866000", "164025.867000", "164027.867000", "164030.365000", "164031.865000", "164033.866000", "164036.366000", "164037.865000", "164039.865000", "164041.865000", "164043.866000", "164045.867000", "164047.865000", "164049.866000", "164051.866000", "164053.866000", "164055.865000", "164057.865000", "164059.866000", "164102.367000", "164104.366000", "164105.866000", "164108.366000", "164109.866000", "164112.365000", "164113.865000", "164115.866000", "164117.866000", "164120.367000", "164121.943000"],
      "InstanceCreationTime": ["163612.378000", "163613.865000", "163615.866000", "163617.866000", "163619.865000", "163621.866000", "163623.866000", "163625.865000", "163627.865000", "163629.865000", "163631.865000", "163634.366000", "163635.865000", "163638.365000", "163639.867000", "163641.865000", "163643.866000", "163645.865000", "163647.866000", "163649.865000", "163651.866000", "163654.366000", "163655.865000", "163657.866000", "163659.866000", "163702.365000", "163704.365000", "163705.865000", "163707.866000", "163709.866000", "163712.365000", "163713.867000", "163715.866000", "163717.866000", "163719.865000", "163721.866000", "163723.865000", "163725.865000", "163727.866000", "163729.865000", "163731.866000", "163734.365000", "163736.365000", "163738.366000", "163739.865000", "163741.865000", "163743.865000", "163745.865000", "163748.365000", "163749.867000", "163751.865000", "163753.865000", "163755.865000", "163757.866000", "163800.366000", "163802.366000", "163803.865000", "163805.865000", "163807.866000", "163809.865000", "163811.866000", "163813.865000", "163815.865000", "163817.866000", "163819.865000", "163821.866000", "163823.866000", "163825.866000", "163827.865000", "163830.365000", "163831.865000", "163833.866000", "163836.366000", "163838.366000", "163839.865000", "163842.367000", "163843.865000", "163846.366000", "163847.865000", "163849.865000", "163851.865000", "163854.365000", "163855.866000", "163857.866000", "163900.367000", "163902.366000", "163903.865000", "163905.866000", "163907.865000", "163910.365000", "163911.866000", "163913.866000", "163915.865000", "163917.867000", "163920.365000", "163922.365000", "163923.865000", "163925.865000", "163927.865000", "163929.865000", "163931.866000", "163934.366000", "163936.366000", "163938.365000", "163939.866000", "163941.866000", "163943.865000", "163945.866000", "163947.866000", "163949.865000", "163951.867000", "163953.866000", "163955.866000", "163957.865000", "163959.865000", "164001.865000", "164003.866000", "164005.865000", "164007.865000", "164009.867000", "164011.865000", "164013.865000", "164015.865000", "164017.866000", "164019.866000", "164021.866000", "164023.866000", "164025.867000", "164027.867000", "164030.365000", "164031.865000", "164033.866000", "164036.366000", "164037.865000", "164039.865000", "164041.865000", "164043.866000", "164045.867000", "164047.865000", "164049.866000", "164051.866000", "164053.866000", "164055.865000", "164057.865000", "164059.866000", "164102.367000", "164104.366000", "164105.866000", "164108.366000", "164109.866000", "164112.365000", "164113.865000", "164115.866000", "164117.866000", "164120.367000", "164121.943000"],
      "InstanceNumber": [1, 2, 3, 4, 5, 6, 7, 8, 9, 10, 11, 12, 13, 14, 15, 16, 17, 18, 19, 20, 21, 22, 23, 24, 25, 26, 27, 28, 29, 30, 31, 32, 33, 34, 35, 36, 37, 38, 39, 40, 41, 42, 43, 44, 45, 46, 47, 48, 49, 50, 51, 52, 53, 54, 55, 56, 57, 58, 59, 60, 61, 62, 63, 64, 65, 66, 67, 68, 69, 70, 71, 72, 73, 74, 75, 76, 77, 78, 79, 80, 81, 82, 83, 84, 85, 86, 87, 88, 89, 90, 91, 92, 93, 94, 95, 96, 97, 98, 99, 100, 101, 102, 103, 104, 105, 106, 107, 108, 109, 110, 111, 112, 113, 114, 115, 116, 117, 118, 119, 120, 121, 122, 123, 124, 125, 126, 127, 128, 129, 130, 131, 132, 133, 134, 135, 136, 137, 138, 139, 140, 141, 142, 143, 144, 145, 146, 147, 148, 149, 150, 151, 152, 153, 154, 155, 156],
      "LargestImagePixelValue": [2587, 2537, 2492, 2522, 2500, 2529, 2527, 2551, 2497, 2512, 2514, 2512, 2535, 2512, 2545, 2525, 2528, 2543, 2531, 2540, 2524, 2498, 2535, 2527, 2533, 2532, 2527, 2531, 2546, 2508, 2538, 2516, 2512, 2542, 2495, 2523, 2527, 2507, 2525, 2518, 2502, 2547, 2502, 2506, 2535, 2537, 2541, 2513, 2543, 2517, 2540, 2521, 2544, 2522, 2541, 2529, 2522, 2529, 2496, 2528, 2529, 2531, 2557, 2510, 2539, 2528, 2494, 2520, 2528, 2546, 2529, 2526, 2504, 2513, 2526, 2509, 2543, 2500, 2531, 2517, 2542, 2534, 2523, 2530, 2544, 2529, 2553, 2538, 2525, 2549, 2523, 2517, 2517, 2519, 2512, 2544, 2513, 2528, 2513, 2541, 2529, 2528, 2536, 2524, 2573, 2535, 2521, 2533, 2527, 2505, 2535, 2533, 2541, 2513, 2522, 2517, 2532, 2533, 2543, 2546, 2565, 2536, 2526, 2561, 2547, 2546, 2574, 2517, 2538, 2547, 2532, 2543, 2553, 2528, 2567, 2531, 2508, 2546, 2540, 2543, 2553, 2521, 2557, 2561, 2545, 2544, 2528, 2545, 2541, 2557, 2528, 2580, 2532, 2552, 2539, 2520],
      "WindowCenter": [713.0, 713.0, 713.0, 713.0, 712.0, 712.0, 712.0, 713.0, 712.0, 712.0, 712.0, 713.0, 714.0, 714.0, 714.0, 714.0, 715.0, 715.0, 714.0, 713.0, 713.0, 713.0, 714.0, 714.0, 714.0, 714.0, 713.0, 713.0, 715.0, 714.0, 713.0, 712.0, 712.0, 713.0, 714.0, 714.0, 713.0, 712.0, 712.0, 713.0, 714.0, 715.0, 715.0, 713.0, 713.0, 713.0, 713.0, 712.0, 713.0, 713.0, 713.0, 714.0, 714.0, 715.0, 715.0, 714.0, 713.0, 712.0, 712.0, 713.0, 713.0, 713.0, 713.0, 713.0, 714.0, 714.0, 713.0, 714.0, 713.0, 712.0, 711.0, 712.0, 712.0, 713.0, 713.0, 713.0, 714.0, 715.0, 715.0, 714.0, 713.0, 713.0, 713.0, 713.0, 712.0, 712.0, 713.0, 714.0, 713.0, 712.0, 712.0, 712.0, 713.0, 713.0, 713.0, 714.0, 714.0, 714.0, 714.0, 713.0, 711.0, 711.0, 712.0, 713.0, 714.0, 714.0, 714.0, 713.0, 713.0, 713.0, 713.0, 713.0, 713.0, 713.0, 713.0, 712.0, 713.0, 714.0, 714.0, 714.0, 713.0, 713.0, 713.0, 713.0, 713.0, 714.0, 715.0, 714.0, 714.0, 714.0, 714.0, 713.0, 712.0, 713.0, 714.0, 713.0, 713.0, 714.0, 713.0, 712.0, 713.0, 713.0, 713.0, 713.0, 713.0, 713.0, 713.0, 713.0, 713.0, 712.0, 713.0, 715.0, 714.0, 713.0, 712.0, 710.0],
      "WindowWidth": [1523.0, 1522.0, 1524.0, 1524.0, 1521.0, 1520.0, 1521.0, 1522.0, 1522.0, 1522.0, 1521.0, 1523.0, 1525.0, 1525.0, 1526.0, 1527.0, 1528.0, 1529.0, 1526.0, 1523.0, 1523.0, 1525.0, 1526.0, 1525.0, 1526.0, 1526.0, 1524.0, 1525.0, 1528.0, 1527.0, 1524.0, 1520.0, 1520.0, 1525.0, 1525.0, 1525.0, 1523.0, 1520.0, 1520.0, 1523.0, 1525.0, 1529.0, 1528.0, 1524.0, 1524.0, 1523.0, 1522.0, 1522.0, 1523.0, 1523.0, 1524.0, 1525.0, 1527.0, 1529.0, 1528.0, 1526.0, 1523.0, 1521.0, 1520.0, 1523.0, 1524.0, 1524.0, 1524.0, 1524.0, 1526.0, 1527.0, 1525.0, 1525.0, 1524.0, 1520.0, 1518.0, 1521.0, 1521.0, 1522.0, 1523.0, 1523.0, 1527.0, 1528.0, 1528.0, 1526.0, 1524.0, 1523.0, 1523.0, 1524.0, 1522.0, 1522.0, 1524.0, 1525.0, 1523.0, 1522.0, 1520.0, 1521.0, 1522.0, 1524.0, 1524.0, 1525.0, 1526.0, 1527.0, 1527.0, 1523.0, 1519.0, 1519.0, 1521.0, 1522.0, 1526.0, 1527.0, 1526.0, 1524.0, 1523.0, 1522.0, 1524.0, 1524.0, 1523.0, 1524.0, 1523.0, 1521.0, 1522.0, 1526.0, 1527.0, 1526.0, 1524.0, 1524.0, 1523.0, 1523.0, 1523.0, 1525.0, 1527.0, 1525.0, 1525.0, 1525.0, 1526.0, 1523.0, 1521.0, 1522.0, 1524.0, 1523.0, 1522.0, 1525.0, 1524.0, 1521.0, 1524.0, 1522.0, 1522.0, 1523.0, 1523.0, 1524.0, 1523.0, 1524.0, 1523.0, 1521.0, 1522.0, 1529.0, 1527.0, 1522.0, 1520.0, 1516.0]
    },
    "slices": {}
  }
}