{
  "AcquisitionMatrixPE": 100,
  "AcquisitionNumber": 1,
  "AcquisitionTime": "16:44:39.880000",
  "BandwidthPerPixelPhaseEncode": 18.519,
  "BaseResolution": 100,
  "BodyPartExamined": "BRAIN",
  "CoilCombinationMethod": "Sum of Squares",
  "ConsistencyInfo": "N4_VE11C_LATEST_20160120",
  "ConversionSoftware": "dcm2niix",
  "ConversionSoftwareVersion": "v1.0.20211006",
  "DerivedVendorReportedEchoSpacing": 0.000539986,
  "DeviceSerialNumber": "166078",
  "DwellTime": 2.1e-06,
  "EchoTime": 0.034,
  "EchoTrainLength": 100,
  "EffectiveEchoSpacing": 0.000539986,
  "FlipAngle": 90,
  "ImageOrientationPatientDICOM": [1, 0, 0, 0, 0.96363, -0.267238],
  "ImageOrientationText": "Tra>Cor(-15.5)",
  "ImageType": [
    "ORIGINAL",
    "PRIMARY",
    "M",
    "ND",
    "MOSAIC"
],
  "ImagingFrequency": 123.258,
  "InPlanePhaseEncodingDirectionDICOM": "COL",
  "InstitutionAddress": "Street StreetNo,Bei Jing,District,CN,ZIP",
  "InstitutionName": "BeiJing Normal University",
  "InstitutionalDepartmentName": "Department",
  "MRAcquisitionType": "2D",
  "MagneticFieldStrength": 3,
  "Manufacturer": "Siemens",
  "ManufacturersModelName": "Prisma",
  "Modality": "MR",
  "MultibandAccelerationFactor": 3,
  "PartialFourier": 1,
  "PatientPosition": "HFS",
  "PercentPhaseFOV": 100,
  "PercentSampling": 100,
  "PhaseEncodingDirection": "j-",
  "PhaseEncodingSteps": 100,
  "PhaseResolution": 1,
  "PixelBandwidth": 2380,
  "ProcedureStepDescription": "BNU_P2018_64CH^Zhen.ZongLei",
  "ProtocolName": "bold_100x100_s3_2x2x2_static_156",
  "PulseSequenceDetails": "%SiemensSeq%\\ep2d_bold",
  "ReceiveCoilActiveElements": "HC1-7;NC1",
  "ReceiveCoilName": "HeadNeck_64",
  "ReconMatrixPE": 100,
  "RefLinesPE": 32,
  "RepetitionTime": 2,
  "SAR": 0.0670614,
  "ScanOptions": "FS",
  "ScanningSequence": "EP",
  "SequenceName": "*epfid2d1_100",
  "SequenceVariant": "SK",
  "SeriesDescription": "bold_100x100_s3_2x2x2_static_156",
  "SeriesNumber": 11,
  "ShimSetting": [-5460, -11527, -1257, 402, -8, -337, -117, 36],
  "SliceThickness": 2,
  "SliceTiming": [1.4825, 0, 0.99, 0.0825, 1.0725, 0.165, 1.155, 0.2475, 1.2375, 0.33, 1.32, 0.4125, 1.4, 0.5775, 1.565, 0.66, 1.6475, 0.7425, 1.73, 0.825, 1.8125, 0.9075, 1.895, 0.495, 1.4825, 0, 0.99, 0.0825, 1.0725, 0.165, 1.155, 0.2475, 1.2375, 0.33, 1.32, 0.4125, 1.4, 0.5775, 1.565, 0.66, 1.6475, 0.7425, 1.73, 0.825, 1.8125, 0.9075, 1.895, 0.495, 1.4825, 0, 0.99, 0.0825, 1.0725, 0.165, 1.155, 0.2475, 1.2375, 0.33, 1.32, 0.4125, 1.4, 0.5775, 1.565, 0.66, 1.6475, 0.7425, 1.73, 0.825, 1.8125, 0.9075, 1.895, 0.495],
  "SoftwareVersions": "syngo MR E11",
  "SpacingBetweenSlices": 2,
  "StationName": "AWP166078",
  "TaskName": "action",
  "TotalReadoutTime": 0.0534586,
  "TxRefAmp": 212.816,
  "dcmmeta_affine": [
    [-2.0, 0.0, 0.0, 100.0],
    [0.0, 1.9272608757019043, -0.5344767570495605, -71.66040802001953],
    [0.0, 0.5344767570495605, 1.9272608757019043, -91.50785064697266],
    [0.0, 0.0, 0.0, 1.0]
],
  "dcmmeta_reorient_transform": [
    [0.0, -1.0, 0.0, 99.0],
    [1.0, 0.0, 0.0, 0.0],
    [0.0, 0.0, 1.0, 0.0],
    [0.0, 0.0, 0.0, 1.0]
],
  "dcmmeta_shape": [100, 100, 72, 156],
  "dcmmeta_slice_dim": 2,
  "dcmmeta_version": 0.6,
  "global": {
    "const": {
      "AcquisitionMatrix": [100, 0, 0, 100],
      "AngioFlag": "N",
      "BitsAllocated": 16,
      "BitsStored": 12,
      "BodyPartExamined": "BRAIN",
      "Columns": 900,
      "EchoNumbers": 1,
      "EchoTime": 34.0,
      "EchoTrainLength": 100,
      "FlipAngle": 90.0,
      "HighBit": 11,
      "ImageOrientationPatient": [1.0, 0.0, 0.0, 0.0, 0.9636304558474, -0.2672383665631],
      "ImagePositionPatient": [-900.0, -890.04278753622, 175.19604083213],
      "ImageType": [
        "ORIGINAL",
        "PRIMARY",
        "M",
        "ND",
        "MOSAIC"
],
      "ImagedNucleus": "1H",
      "ImagingFrequency": 123.257722,
      "InPlanePhaseEncodingDirection": "COL",
      "MRAcquisitionType": "2D",
      "MagneticFieldStrength": 3.0,
      "Manufacturer": "SIEMENS",
      "ManufacturerModelName": "Prisma",
      "Modality": "MR",
      "NumberOfAverages": 1.0,
      "NumberOfPhaseEncodingSteps": 100,
      "PercentPhaseFieldOfView": 100.0,
      "PercentSampling": 100.0,
      "PerformedProcedureStepStartTime": "160219.420000",
      "PhotometricInterpretation": "MONOCHROME2",
      "PixelBandwidth": 2380.0,
      "PixelRepresentation": 0,
      "PixelSpacing": [2.0, 2.0],
      "ProtocolName": "bold_100x100_s3_2x2x2_static_156",
      "RepetitionTime": 2000.0,
      "Rows": 900,
      "SAR": 0.06706142560556,
      "SamplesPerPixel": 1,
      "ScanOptions": "FS",
      "ScanningSequence": "EP",
      "SequenceName": "*epfid2d1_100",
      "SequenceVariant": "SK",
      "SeriesDescription": "bold_100x100_s3_2x2x2_static_156",
      "SeriesNumber": 11,
      "SeriesTime": "164442.702000",
      "SliceLocation": -69.029340022769,
      "SliceThickness": 2.0,
      "SmallestImagePixelValue": 0,
      "SoftwareVersions": "syngo MR E11",
      "SpacingBetweenSlices": 2.0000000152169,
      "SpecificCharacterSet": "ISO_IR 100",
      "StudyID": "1",
      "StudyTime": "160219.353000",
      "TransmitCoilName": "Body",
      "VariableFlipAngleFlag": "N",
      "WindowCenterWidthExplanation": "Algo1",
      "dBdt": 0.0},
    "slices": {}
  },
  "time": {
    "samples": {
      "AcquisitionNumber": [1, 2, 3, 4, 5, 6, 7, 8, 9, 10, 11, 12, 13, 14, 15, 16, 17, 18, 19, 20, 21, 22, 23, 24, 25, 26, 27, 28, 29, 30, 31, 32, 33, 34, 35, 36, 37, 38, 39, 40, 41, 42, 43, 44, 45, 46, 47, 48, 49, 50, 51, 52, 53, 54, 55, 56, 57, 58, 59, 60, 61, 62, 63, 64, 65, 66, 67, 68, 69, 70, 71, 72, 73, 74, 75, 76, 77, 78, 79, 80, 81, 82, 83, 84, 85, 86, 87, 88, 89, 90, 91, 92, 93, 94, 95, 96, 97, 98, 99, 100, 101, 102, 103, 104, 105, 106, 107, 108, 109, 110, 111, 112, 113, 114, 115, 116, 117, 118, 119, 120, 121, 122, 123, 124, 125, 126, 127, 128, 129, 130, 131, 132, 133, 134, 135, 136, 137, 138, 139, 140, 141, 142, 143, 144, 145, 146, 147, 148, 149, 150, 151, 152, 153, 154, 155, 156],
      "AcquisitionTime": ["164439.880000", "164441.880000", "164443.880000", "164445.880000", "164447.880000", "164449.880000", "164451.880000", "164453.880000", "164455.880000", "164457.880000", "164459.880000", "164501.880000", "164503.880000", "164505.880000", "164507.880000", "164509.880000", "164511.880000", "164513.880000", "164515.880000", "164517.880000", "164519.880000", "164521.880000", "164523.880000", "164525.880000", "164527.880000", "164529.880000", "164531.880000", "164533.880000", "164535.880000", "164537.880000", "164539.880000", "164541.880000", "164543.880000", "164545.880000", "164547.880000", "164549.880000", "164551.880000", "164553.880000", "164555.880000", "164557.880000", "164559.880000", "164601.880000", "164603.880000", "164605.880000", "164607.880000", "164609.880000", "164611.880000", "164613.880000", "164615.880000", "164617.880000", "164619.880000", "164621.880000", "164623.880000", "164625.880000", "164627.880000", "164629.880000", "164631.880000", "164633.880000", "164635.880000", "164637.880000", "164639.880000", "164641.880000", "164643.880000", "164645.880000", "164647.880000", "164649.880000", "164651.880000", "164653.880000", "164655.880000", "164657.880000", "164659.880000", "164701.880000", "164703.880000", "164705.880000", "164707.880000", "164709.880000", "164711.880000", "164713.880000", "164715.880000", "164717.880000", "164719.880000", "164721.880000", "164723.880000", "164725.880000", "164727.880000", "164729.880000", "164731.880000", "164733.880000", "164735.880000", "164737.880000", "164739.880000", "164741.880000", "164743.880000", "164745.880000", "164747.880000", "164749.880000", "164751.880000", "164753.880000", "164755.880000", "164757.880000", "164759.880000", "164801.880000", "164803.880000", "164805.880000", "164807.880000", "164809.880000", "164811.880000", "164813.880000", "164815.880000", "164817.880000", "164819.880000", "164821.880000", "164823.880000", "164825.880000", "164827.880000", "164829.880000", "164831.880000", "164833.880000", "164835.880000", "164837.880000", "164839.880000", "164841.880000", "164843.880000", "164845.880000", "164847.880000", "164849.880000", "164851.880000", "164853.880000", "164855.880000", "164857.880000", "164859.880000", "164901.880000", "164903.880000", "164905.880000", "164907.880000", "164909.880000", "164911.880000", "164913.880000", "164915.880000", "164917.880000", "164919.880000", "164921.880000", "164923.880000", "164925.880000", "164927.880000", "164929.880000", "164931.880000", "164933.880000", "164935.880000", "164937.880000", "164939.880000", "164941.880000", "164943.880000", "164945.880000", "164947.880000", "164949.880000"],
      "ContentTime": ["164442.705000", "164444.201000", "164446.200000", "164448.201000", "164450.200000", "164452.200000", "164454.201000", "164456.201000", "164458.200000", "164500.201000", "164502.201000", "164504.200000", "164506.201000", "164508.201000", "164510.201000", "164512.200000", "164514.201000", "164516.200000", "164518.200000", "164520.201000", "164522.200000", "164524.201000", "164526.200000", "164528.201000", "164530.200000", "164532.201000", "164534.200000", "164536.201000", "164538.200000", "164540.200000", "164542.201000", "164544.201000", "164546.200000", "164548.200000", "164550.200000", "164552.200000", "164554.201000", "164556.200000", "164558.200000", "164600.200000", "164602.201000", "164604.201000", "164606.201000", "164608.200000", "164610.200000", "164612.201000", "164614.200000", "164616.201000", "164618.200000", "164620.201000", "164622.200000", "164624.200000", "164626.200000", "164628.201000", "164630.200000", "164632.200000", "164634.200000", "164636.201000", "164638.200000", "164640.201000", "164642.200000", "164644.200000", "164646.200000", "164648.200000", "164650.200000", "164652.201000", "164654.201000", "164656.700000", "164658.200000", "164700.200000", "164702.201000", "164704.200000", "164706.700000", "164708.200000", "164710.200000", "164712.200000", "164714.201000", "164716.200000", "164718.200000", "164720.200000", "164722.201000", "164724.201000", "164726.200000", "164728.201000", "164730.200000", "164732.200000", "164734.200000", "164736.201000", "164738.201000", "164740.200000", "164742.200000", "164744.200000", "164746.201000", "164748.201000", "164750.200000", "164752.200000", "164754.201000", "164756.200000", "164758.201000", "164800.200000", "164802.201000", "164804.200000", "164806.201000", "164808.200000", "164810.200000", "164812.200000", "164814.200000", "164816.200000", "164818.200000", "164820.201000", "164822.200000", "164824.201000", "164826.200000", "164828.200000", "164830.200000", "164832.200000", "164834.200000", "164836.200000", "164838.200000", "164840.200000", "164842.200000", "164844.201000", "164846.200000", "164848.200000", "164850.200000", "164852.199000", "164854.201000", "164856.201000", "164858.201000", "164900.201000", "164902.201000", "164904.200000", "164906.201000", "164908.200000", "164910.199000", "164912.201000", "164914.201000", "164916.201000", "164918.200000", "164920.201000", "164922.201000", "164924.201000", "164926.701000", "164928.201000", "164930.200000", "164932.201000", "164934.201000", "164936.201000", "164938.201000", "164940.201000", "164942.200000", "164944.201000", "164946.200000", "164948.200000", "164950.201000", "164952.092000"],
      "InstanceCreationTime": ["164442.705000", "164444.201000", "164446.200000", "164448.201000", "164450.200000", "164452.200000", "164454.201000", "164456.201000", "164458.200000", "164500.201000", "164502.201000", "164504.200000", "164506.201000", "164508.201000", "164510.201000", "164512.200000", "164514.201000", "164516.200000", "164518.200000", "164520.201000", "164522.200000", "164524.201000", "164526.200000", "164528.201000", "164530.200000", "164532.201000", "164534.200000", "164536.201000", "164538.200000", "164540.200000", "164542.201000", "164544.201000", "164546.200000", "164548.200000", "164550.200000", "164552.200000", "164554.201000", "164556.200000", "164558.200000", "164600.200000", "164602.201000", "164604.201000", "164606.201000", "164608.200000", "164610.200000", "164612.201000", "164614.200000", "164616.201000", "164618.200000", "164620.201000", "164622.200000", "164624.200000", "164626.200000", "164628.201000", "164630.200000", "164632.200000", "164634.200000", "164636.201000", "164638.200000", "164640.201000", "164642.200000", "164644.200000", "164646.200000", "164648.200000", "164650.200000", "164652.201000", "164654.201000", "164656.700000", "164658.200000", "164700.200000", "164702.201000", "164704.200000", "164706.700000", "164708.200000", "164710.200000", "164712.200000", "164714.201000", "164716.200000", "164718.200000", "164720.200000", "164722.201000", "164724.201000", "164726.200000", "164728.201000", "164730.200000", "164732.200000", "164734.200000", "164736.201000", "164738.201000", "164740.200000", "164742.200000", "164744.200000", "164746.201000", "164748.201000", "164750.200000", "164752.200000", "164754.201000", "164756.200000", "164758.201000", "164800.200000", "164802.201000", "164804.200000", "164806.201000", "164808.200000", "164810.200000", "164812.200000", "164814.200000", "164816.200000", "164818.200000", "164820.201000", "164822.200000", "164824.201000", "164826.200000", "164828.200000", "164830.200000", "164832.200000", "164834.200000", "164836.200000", "164838.200000", "164840.200000", "164842.200000", "164844.201000", "164846.200000", "164848.200000", "164850.200000", "164852.199000", "164854.201000", "164856.201000", "164858.201000", "164900.201000", "164902.201000", "164904.200000", "164906.201000", "164908.200000", "164910.199000", "164912.201000", "164914.201000", "164916.201000", "164918.200000", "164920.201000", "164922.201000", "164924.201000", "164926.701000", "164928.201000", "164930.200000", "164932.201000", "164934.201000", "164936.201000", "164938.201000", "164940.201000", "164942.200000", "164944.201000", "164946.200000", "164948.200000", "164950.201000", "164952.092000"],
      "InstanceNumber": [1, 2, 3, 4, 5, 6, 7, 8, 9, 10, 11, 12, 13, 14, 15, 16, 17, 18, 19, 20, 21, 22, 23, 24, 25, 26, 27, 28, 29, 30, 31, 32, 33, 34, 35, 36, 37, 38, 39, 40, 41, 42, 43, 44, 45, 46, 47, 48, 49, 50, 51, 52, 53, 54, 55, 56, 57, 58, 59, 60, 61, 62, 63, 64, 65, 66, 67, 68, 69, 70, 71, 72, 73, 74, 75, 76, 77, 78, 79, 80, 81, 82, 83, 84, 85, 86, 87, 88, 89, 90, 91, 92, 93, 94, 95, 96, 97, 98, 99, 100, 101, 102, 103, 104, 105, 106, 107, 108, 109, 110, 111, 112, 113, 114, 115, 116, 117, 118, 119, 120, 121, 122, 123, 124, 125, 126, 127, 128, 129, 130, 131, 132, 133, 134, 135, 136, 137, 138, 139, 140, 141, 142, 143, 144, 145, 146, 147, 148, 149, 150, 151, 152, 153, 154, 155, 156],
      "LargestImagePixelValue": [2690, 2616, 2603, 2611, 2596, 2608, 2608, 2623, 2594, 2626, 2607, 2591, 2612, 2597, 2617, 2583, 2620, 2602, 2610, 2590, 2588, 2610, 2582, 2581, 2607, 2581, 2578, 2583, 2610, 2615, 2607, 2595, 2571, 2596, 2598, 2579, 2613, 2577, 2631, 2577, 2586, 2607, 2561, 2582, 2547, 2591, 2546, 2606, 2581, 2581, 2549, 2576, 2596, 2593, 2592, 2571, 2571, 2560, 2595, 2555, 2557, 2562, 2598, 2549, 2584, 2554, 2559, 2552, 2566, 2572, 2555, 2550, 2592, 2567, 2560, 2559, 2545, 2549, 2574, 2549, 2543, 2563, 2566, 2562, 2576, 2555, 2548, 2534, 2538, 2524, 2535, 2532, 2554, 2542, 2533, 2523, 2534, 2534, 2537, 2545, 2544, 2531, 2542, 2536, 2516, 2510, 2513, 2500, 2522, 2521, 2532, 2510, 2552, 2546, 2546, 2525, 2518, 2527, 2515, 2509, 2506, 2524, 2527, 2534, 2524, 2531, 2509, 2506, 2518, 2502, 2509, 2524, 2523, 2537, 2525, 2529, 2523, 2547, 2530, 2524, 2532, 2532, 2540, 2547, 2571, 2538, 2550, 2522, 2513, 2544, 2519, 2547, 2520, 2534, 2510, 2519],
      "WindowCenter": [716.0, 715.0, 715.0, 715.0, 714.0, 714.0, 713.0, 714.0, 714.0, 713.0, 713.0, 714.0, 716.0, 716.0, 716.0, 716.0, 717.0, 716.0, 716.0, 714.0, 713.0, 714.0, 715.0, 714.0, 714.0, 713.0, 713.0, 714.0, 714.0, 715.0, 714.0, 714.0, 713.0, 712.0, 711.0, 711.0, 712.0, 712.0, 712.0, 712.0, 711.0, 712.0, 711.0, 711.0, 712.0, 714.0, 713.0, 713.0, 713.0, 713.0, 712.0, 713.0, 713.0, 713.0, 714.0, 713.0, 712.0, 712.0, 713.0, 713.0, 714.0, 714.0, 714.0, 713.0, 713.0, 713.0, 711.0, 710.0, 710.0, 712.0, 714.0, 713.0, 713.0, 712.0, 712.0, 712.0, 712.0, 712.0, 713.0, 712.0, 713.0, 716.0, 716.0, 715.0, 713.0, 713.0, 712.0, 712.0, 713.0, 714.0, 714.0, 713.0, 712.0, 712.0, 713.0, 713.0, 712.0, 712.0, 713.0, 714.0, 715.0, 715.0, 713.0, 711.0, 711.0, 711.0, 712.0, 713.0, 714.0, 714.0, 713.0, 713.0, 714.0, 715.0, 714.0, 712.0, 712.0, 712.0, 712.0, 712.0, 712.0, 713.0, 714.0, 714.0, 712.0, 712.0, 712.0, 713.0, 713.0, 713.0, 713.0, 713.0, 714.0, 715.0, 713.0, 713.0, 713.0, 713.0, 713.0, 712.0, 712.0, 713.0, 714.0, 713.0, 714.0, 714.0, 714.0, 714.0, 713.0, 713.0, 713.0, 713.0, 713.0, 713.0, 713.0, 713.0],
      "WindowWidth": [1531.0, 1529.0, 1528.0, 1529.0, 1526.0, 1524.0, 1524.0, 1525.0, 1524.0, 1524.0, 1523.0, 1525.0, 1530.0, 1531.0, 1530.0, 1531.0, 1533.0, 1531.0, 1530.0, 1525.0, 1523.0, 1526.0, 1527.0, 1527.0, 1525.0, 1524.0, 1524.0, 1527.0, 1526.0, 1527.0, 1526.0, 1525.0, 1522.0, 1521.0, 1519.0, 1519.0, 1520.0, 1519.0, 1520.0, 1519.0, 1519.0, 1519.0, 1517.0, 1519.0, 1521.0, 1527.0, 1524.0, 1524.0, 1522.0, 1522.0, 1521.0, 1522.0, 1522.0, 1524.0, 1525.0, 1522.0, 1521.0, 1521.0, 1523.0, 1524.0, 1525.0, 1526.0, 1526.0, 1524.0, 1524.0, 1522.0, 1518.0, 1516.0, 1515.0, 1520.0, 1524.0, 1523.0, 1522.0, 1521.0, 1519.0, 1520.0, 1520.0, 1521.0, 1522.0, 1520.0, 1523.0, 1531.0, 1531.0, 1527.0, 1524.0, 1522.0, 1521.0, 1521.0, 1522.0, 1525.0, 1527.0, 1524.0, 1522.0, 1521.0, 1523.0, 1524.0, 1522.0, 1521.0, 1522.0, 1526.0, 1528.0, 1527.0, 1524.0, 1519.0, 1518.0, 1519.0, 1521.0, 1523.0, 1525.0, 1526.0, 1524.0, 1523.0, 1527.0, 1529.0, 1525.0, 1520.0, 1519.0, 1521.0, 1521.0, 1519.0, 1520.0, 1524.0, 1527.0, 1525.0, 1521.0, 1521.0, 1521.0, 1522.0, 1524.0, 1523.0, 1522.0, 1524.0, 1526.0, 1527.0, 1524.0, 1523.0, 1522.0, 1523.0, 1523.0, 1521.0, 1521.0, 1523.0, 1525.0, 1524.0, 1524.0, 1525.0, 1527.0, 1526.0, 1523.0, 1524.0, 1523.0, 1524.0, 1524.0, 1524.0, 1524.0, 1523.0]
    },
    "slices": {}
  }
}