{
  "AcquisitionMatrixPE": 100,
  "AcquisitionNumber": 1,
  "AcquisitionTime": "17:08:42.965000",
  "BandwidthPerPixelPhaseEncode": 18.519,
  "BaseResolution": 100,
  "BodyPartExamined": "BRAIN",
  "CoilCombinationMethod": "Sum of Squares",
  "ConsistencyInfo": "N4_VE11C_LATEST_20160120",
  "ConversionSoftware": "dcm2niix",
  "ConversionSoftwareVersion": "v1.0.20211006",
  "DerivedVendorReportedEchoSpacing": 0.000539986,
  "DeviceSerialNumber": "166078",
  "DwellTime": 2.1e-06,
  "EchoTime": 0.034,
  "EchoTrainLength": 100,
  "EffectiveEchoSpacing": 0.000539986,
  "FlipAngle": 90,
  "ImageOrientationPatientDICOM": [1, 0, 0, 0, 0.96363, -0.267238],
  "ImageOrientationText": "Tra>Cor(-15.5)",
  "ImageType": [
    "ORIGINAL",
    "PRIMARY",
    "M",
    "ND",
    "MOSAIC"
],
  "ImagingFrequency": 123.258,
  "InPlanePhaseEncodingDirectionDICOM": "COL",
  "InstitutionAddress": "Street StreetNo,Bei Jing,District,CN,ZIP",
  "InstitutionName": "BeiJing Normal University",
  "InstitutionalDepartmentName": "Department",
  "MRAcquisitionType": "2D",
  "MagneticFieldStrength": 3,
  "Manufacturer": "Siemens",
  "ManufacturersModelName": "Prisma",
  "Modality": "MR",
  "MultibandAccelerationFactor": 3,
  "PartialFourier": 1,
  "PatientPosition": "HFS",
  "PercentPhaseFOV": 100,
  "PercentSampling": 100,
  "PhaseEncodingDirection": "j-",
  "PhaseEncodingSteps": 100,
  "PhaseResolution": 1,
  "PixelBandwidth": 2380,
  "ProcedureStepDescription": "BNU_P2018_64CH^Zhen.ZongLei",
  "ProtocolName": "bold_100x100_s3_2x2x2_static_156",
  "PulseSequenceDetails": "%SiemensSeq%\\ep2d_bold",
  "ReceiveCoilActiveElements": "HC1-7;NC1",
  "ReceiveCoilName": "HeadNeck_64",
  "ReconMatrixPE": 100,
  "RefLinesPE": 32,
  "RepetitionTime": 2,
  "SAR": 0.0670614,
  "ScanOptions": "FS",
  "ScanningSequence": "EP",
  "SequenceName": "*epfid2d1_100",
  "SequenceVariant": "SK",
  "SeriesDescription": "bold_100x100_s3_2x2x2_static_156",
  "SeriesNumber": 15,
  "ShimSetting": [-5460, -11527, -1257, 402, -8, -337, -117, 36],
  "SliceThickness": 2,
  "SliceTiming": [1.485, 0, 0.99, 0.0825, 1.0725, 0.165, 1.155, 0.2475, 1.2375, 0.33, 1.32, 0.4125, 1.4025, 0.5775, 1.5675, 0.66, 1.65, 0.7425, 1.7325, 0.825, 1.815, 0.9075, 1.8975, 0.495, 1.485, 0, 0.99, 0.0825, 1.0725, 0.165, 1.155, 0.2475, 1.2375, 0.33, 1.32, 0.4125, 1.4025, 0.5775, 1.5675, 0.66, 1.65, 0.7425, 1.7325, 0.825, 1.815, 0.9075, 1.8975, 0.495, 1.485, 0, 0.99, 0.0825, 1.0725, 0.165, 1.155, 0.2475, 1.2375, 0.33, 1.32, 0.4125, 1.4025, 0.5775, 1.5675, 0.66, 1.65, 0.7425, 1.7325, 0.825, 1.815, 0.9075, 1.8975, 0.495],
  "SoftwareVersions": "syngo MR E11",
  "SpacingBetweenSlices": 2,
  "StationName": "AWP166078",
  "TaskName": "action",
  "TotalReadoutTime": 0.0534586,
  "TxRefAmp": 212.816,
  "dcmmeta_affine": [
    [-2.0, 0.0, 0.0, 100.0],
    [0.0, 1.9272608757019043, -0.5344767570495605, -71.66040802001953],
    [0.0, 0.5344767570495605, 1.9272608757019043, -91.50785064697266],
    [0.0, 0.0, 0.0, 1.0]
],
  "dcmmeta_reorient_transform": [
    [0.0, -1.0, 0.0, 99.0],
    [1.0, 0.0, 0.0, 0.0],
    [0.0, 0.0, 1.0, 0.0],
    [0.0, 0.0, 0.0, 1.0]
],
  "dcmmeta_shape": [100, 100, 72, 156],
  "dcmmeta_slice_dim": 2,
  "dcmmeta_version": 0.6,
  "global": {
    "const": {
      "AcquisitionMatrix": [100, 0, 0, 100],
      "AngioFlag": "N",
      "BitsAllocated": 16,
      "BitsStored": 12,
      "BodyPartExamined": "BRAIN",
      "Columns": 900,
      "EchoNumbers": 1,
      "EchoTime": 34.0,
      "EchoTrainLength": 100,
      "FlipAngle": 90.0,
      "HighBit": 11,
      "ImageOrientationPatient": [1.0, 0.0, 0.0, 0.0, 0.9636304558474, -0.2672383665631],
      "ImagePositionPatient": [-900.0, -890.04278753622, 175.19604083213],
      "ImageType": [
        "ORIGINAL",
        "PRIMARY",
        "M",
        "ND",
        "MOSAIC"
],
      "ImagedNucleus": "1H",
      "ImagingFrequency": 123.257731,
      "InPlanePhaseEncodingDirection": "COL",
      "MRAcquisitionType": "2D",
      "MagneticFieldStrength": 3.0,
      "Manufacturer": "SIEMENS",
      "ManufacturerModelName": "Prisma",
      "Modality": "MR",
      "NumberOfAverages": 1.0,
      "NumberOfPhaseEncodingSteps": 100,
      "PercentPhaseFieldOfView": 100.0,
      "PercentSampling": 100.0,
      "PerformedProcedureStepStartTime": "160219.420000",
      "PhotometricInterpretation": "MONOCHROME2",
      "PixelBandwidth": 2380.0,
      "PixelRepresentation": 0,
      "PixelSpacing": [2.0, 2.0],
      "ProtocolName": "bold_100x100_s3_2x2x2_static_156",
      "RepetitionTime": 2000.0,
      "Rows": 900,
      "SAR": 0.06706142560556,
      "SamplesPerPixel": 1,
      "ScanOptions": "FS",
      "ScanningSequence": "EP",
      "SequenceName": "*epfid2d1_100",
      "SequenceVariant": "SK",
      "SeriesDescription": "bold_100x100_s3_2x2x2_static_156",
      "SeriesNumber": 15,
      "SeriesTime": "170845.560000",
      "SliceLocation": -69.029340022769,
      "SliceThickness": 2.0,
      "SmallestImagePixelValue": 0,
      "SoftwareVersions": "syngo MR E11",
      "SpacingBetweenSlices": 2.0000000152169,
      "SpecificCharacterSet": "ISO_IR 100",
      "StudyID": "1",
      "StudyTime": "160219.353000",
      "TransmitCoilName": "Body",
      "VariableFlipAngleFlag": "N",
      "WindowCenterWidthExplanation": "Algo1",
      "dBdt": 0.0},
    "slices": {}
  },
  "time": {
    "samples": {
      "AcquisitionNumber": [1, 2, 3, 4, 5, 6, 7, 8, 9, 10, 11, 12, 13, 14, 15, 16, 17, 18, 19, 20, 21, 22, 23, 24, 25, 26, 27, 28, 29, 30, 31, 32, 33, 34, 35, 36, 37, 38, 39, 40, 41, 42, 43, 44, 45, 46, 47, 48, 49, 50, 51, 52, 53, 54, 55, 56, 57, 58, 59, 60, 61, 62, 63, 64, 65, 66, 67, 68, 69, 70, 71, 72, 73, 74, 75, 76, 77, 78, 79, 80, 81, 82, 83, 84, 85, 86, 87, 88, 89, 90, 91, 92, 93, 94, 95, 96, 97, 98, 99, 100, 101, 102, 103, 104, 105, 106, 107, 108, 109, 110, 111, 112, 113, 114, 115, 116, 117, 118, 119, 120, 121, 122, 123, 124, 125, 126, 127, 128, 129, 130, 131, 132, 133, 134, 135, 136, 137, 138, 139, 140, 141, 142, 143, 144, 145, 146, 147, 148, 149, 150, 151, 152, 153, 154, 155, 156],
      "AcquisitionTime": ["170842.965000", "170844.965000", "170846.965000", "170848.965000", "170850.965000", "170852.965000", "170854.965000", "170856.965000", "170858.965000", "170900.965000", "170902.965000", "170904.965000", "170906.965000", "170908.965000", "170910.965000", "170912.965000", "170914.965000", "170916.965000", "170918.965000", "170920.965000", "170922.965000", "170924.965000", "170926.965000", "170928.965000", "170930.965000", "170932.965000", "170934.965000", "170936.965000", "170938.965000", "170940.965000", "170942.965000", "170944.965000", "170946.965000", "170948.965000", "170950.965000", "170952.965000", "170954.965000", "170956.965000", "170958.965000", "171000.965000", "171002.965000", "171004.965000", "171006.965000", "171008.965000", "171010.965000", "171012.965000", "171014.965000", "171016.965000", "171018.965000", "171020.965000", "171022.965000", "171024.965000", "171026.965000", "171028.965000", "171030.965000", "171032.965000", "171034.965000", "171036.965000", "171038.965000", "171040.965000", "171042.965000", "171044.965000", "171046.965000", "171048.965000", "171050.965000", "171052.965000", "171054.965000", "171056.965000", "171058.965000", "171100.965000", "171102.965000", "171104.965000", "171106.965000", "171108.965000", "171110.965000", "171112.965000", "171114.965000", "171116.965000", "171118.965000", "171120.965000", "171122.965000", "171124.965000", "171126.965000", "171128.965000", "171130.965000", "171132.965000", "171134.965000", "171136.965000", "171138.965000", "171140.965000", "171142.965000", "171144.965000", "171146.965000", "171148.965000", "171150.965000", "171152.965000", "171154.965000", "171156.965000", "171158.965000", "171200.965000", "171202.965000", "171204.965000", "171206.965000", "171208.965000", "171210.965000", "171212.965000", "171214.965000", "171216.965000", "171218.965000", "171220.965000", "171222.965000", "171224.965000", "171226.965000", "171228.965000", "171230.965000", "171232.965000", "171234.965000", "171236.965000", "171238.965000", "171240.965000", "171242.965000", "171244.965000", "171246.965000", "171248.965000", "171250.965000", "171252.965000", "171254.965000", "171256.965000", "171258.965000", "171300.965000", "171302.965000", "171304.965000", "171306.965000", "171308.965000", "171310.965000", "171312.965000", "171314.965000", "171316.965000", "171318.965000", "171320.965000", "171322.965000", "171324.965000", "171326.965000", "171328.965000", "171330.965000", "171332.965000", "171334.965000", "171336.965000", "171338.965000", "171340.965000", "171342.965000", "171344.965000", "171346.965000", "171348.965000", "171350.965000", "171352.965000"],
      "ContentTime": ["170845.564000", "170847.560000", "170849.060000", "170851.058000", "170853.059000", "170855.058000", "170857.059000", "170859.058000", "170901.059000", "170903.060000", "170905.560000", "170907.560000", "170909.058000", "170911.058000", "170913.058000", "170915.059000", "170917.059000", "170919.059000", "170921.060000", "170923.060000", "170925.060000", "170927.058000", "170929.058000", "170931.058000", "170933.058000", "170935.059000", "170937.060000", "170939.059000", "170941.060000", "170943.058000", "170945.558000", "170947.059000", "170949.558000", "170951.559000", "170953.059000", "170955.060000", "170957.060000", "170959.060000", "171001.058000", "171003.058000", "171005.058000", "171007.058000", "171009.058000", "171011.059000", "171013.060000", "171015.060000", "171017.060000", "171019.558000", "171021.059000", "171023.058000", "171025.059000", "171027.059000", "171029.560000", "171031.060000", "171033.059000", "171035.060000", "171037.059000", "171039.059000", "171041.058000", "171043.058000", "171045.559000", "171047.060000", "171049.059000", "171051.060000", "171053.559000", "171055.059000", "171057.058000", "171059.058000", "171101.059000", "171103.060000", "171105.060000", "171107.060000", "171109.559000", "171111.059000", "171113.058000", "171115.558000", "171117.058000", "171119.059000", "171121.060000", "171123.060000", "171125.060000", "171127.060000", "171129.058000", "171131.058000", "171133.058000", "171135.059000", "171137.059000", "171139.059000", "171141.060000", "171143.059000", "171145.059000", "171147.559000", "171149.558000", "171151.059000", "171153.058000", "171155.060000", "171157.059000", "171159.060000", "171201.059000", "171203.059000", "171205.059000", "171207.058000", "171209.058000", "171211.058000", "171213.060000", "171215.560000", "171217.059000", "171219.059000", "171221.058000", "171223.059000", "171225.058000", "171227.058000", "171229.059000", "171231.559000", "171233.059000", "171235.060000", "171237.059000", "171239.058000", "171241.559000", "171243.058000", "171245.558000", "171247.060000", "171249.059000", "171251.060000", "171253.059000", "171255.559000", "171257.059000", "171259.058000", "171301.059000", "171303.058000", "171305.060000", "171307.059000", "171309.559000", "171311.059000", "171313.058000", "171315.558000", "171317.059000", "171319.059000", "171321.058000", "171323.059000", "171325.059000", "171327.560000", "171329.059000", "171331.058000", "171333.059000", "171335.059000", "171337.059000", "171339.060000", "171341.059000", "171343.059000", "171345.060000", "171347.060000", "171349.058000", "171351.059000", "171353.567000", "171355.053000"],
      "InstanceCreationTime": ["170845.564000", "170847.560000", "170849.060000", "170851.058000", "170853.059000", "170855.058000", "170857.059000", "170859.058000", "170901.059000", "170903.060000", "170905.560000", "170907.560000", "170909.058000", "170911.058000", "170913.058000", "170915.059000", "170917.059000", "170919.059000", "170921.060000", "170923.060000", "170925.060000", "170927.058000", "170929.058000", "170931.058000", "170933.058000", "170935.059000", "170937.060000", "170939.059000", "170941.060000", "170943.058000", "170945.558000", "170947.059000", "170949.558000", "170951.559000", "170953.059000", "170955.060000", "170957.060000", "170959.060000", "171001.058000", "171003.058000", "171005.058000", "171007.058000", "171009.058000", "171011.059000", "171013.060000", "171015.060000", "171017.060000", "171019.558000", "171021.059000", "171023.058000", "171025.059000", "171027.059000", "171029.560000", "171031.060000", "171033.059000", "171035.060000", "171037.059000", "171039.059000", "171041.058000", "171043.058000", "171045.559000", "171047.060000", "171049.059000", "171051.060000", "171053.559000", "171055.059000", "171057.058000", "171059.058000", "171101.059000", "171103.060000", "171105.060000", "171107.060000", "171109.559000", "171111.059000", "171113.058000", "171115.558000", "171117.058000", "171119.059000", "171121.060000", "171123.060000", "171125.060000", "171127.060000", "171129.058000", "171131.058000", "171133.058000", "171135.059000", "171137.059000", "171139.059000", "171141.060000", "171143.059000", "171145.059000", "171147.559000", "171149.558000", "171151.059000", "171153.058000", "171155.060000", "171157.059000", "171159.060000", "171201.059000", "171203.059000", "171205.059000", "171207.058000", "171209.058000", "171211.058000", "171213.060000", "171215.560000", "171217.059000", "171219.059000", "171221.058000", "171223.059000", "171225.058000", "171227.058000", "171229.059000", "171231.559000", "171233.059000", "171235.060000", "171237.059000", "171239.058000", "171241.559000", "171243.058000", "171245.558000", "171247.060000", "171249.059000", "171251.060000", "171253.059000", "171255.559000", "171257.059000", "171259.058000", "171301.059000", "171303.058000", "171305.060000", "171307.059000", "171309.559000", "171311.059000", "171313.058000", "171315.558000", "171317.059000", "171319.059000", "171321.058000", "171323.059000", "171325.059000", "171327.560000", "171329.059000", "171331.058000", "171333.059000", "171335.059000", "171337.059000", "171339.060000", "171341.059000", "171343.059000", "171345.060000", "171347.060000", "171349.058000", "171351.059000", "171353.567000", "171355.053000"],
      "InstanceNumber": [1, 2, 3, 4, 5, 6, 7, 8, 9, 10, 11, 12, 13, 14, 15, 16, 17, 18, 19, 20, 21, 22, 23, 24, 25, 26, 27, 28, 29, 30, 31, 32, 33, 34, 35, 36, 37, 38, 39, 40, 41, 42, 43, 44, 45, 46, 47, 48, 49, 50, 51, 52, 53, 54, 55, 56, 57, 58, 59, 60, 61, 62, 63, 64, 65, 66, 67, 68, 69, 70, 71, 72, 73, 74, 75, 76, 77, 78, 79, 80, 81, 82, 83, 84, 85, 86, 87, 88, 89, 90, 91, 92, 93, 94, 95, 96, 97, 98, 99, 100, 101, 102, 103, 104, 105, 106, 107, 108, 109, 110, 111, 112, 113, 114, 115, 116, 117, 118, 119, 120, 121, 122, 123, 124, 125, 126, 127, 128, 129, 130, 131, 132, 133, 134, 135, 136, 137, 138, 139, 140, 141, 142, 143, 144, 145, 146, 147, 148, 149, 150, 151, 152, 153, 154, 155, 156],
      "LargestImagePixelValue": [2501, 2513, 2486, 2473, 2471, 2510, 2497, 2478, 2471, 2514, 2494, 2498, 2468, 2467, 2464, 2475, 2487, 2505, 2508, 2485, 2518, 2493, 2498, 2476, 2454, 2465, 2500, 2467, 2477, 2481, 2523, 2460, 2477, 2480, 2481, 2490, 2474, 2451, 2475, 2483, 2481, 2495, 2493, 2492, 2496, 2517, 2493, 2491, 2497, 2501, 2495, 2464, 2477, 2487, 2485, 2473, 2499, 2486, 2495, 2512, 2514, 2511, 2501, 2504, 2506, 2501, 2468, 2502, 2492, 2500, 2469, 2496, 2499, 2504, 2492, 2537, 2511, 2522, 2518, 2469, 2470, 2488, 2488, 2501, 2492, 2489, 2492, 2466, 2477, 2471, 2493, 2488, 2508, 2491, 2512, 2494, 2500, 2474, 2491, 2502, 2474, 2491, 2457, 2491, 2481, 2514, 2485, 2498, 2451, 2447, 2468, 2513, 2503, 2483, 2482, 2497, 2495, 2504, 2502, 2518, 2502, 2526, 2527, 2500, 2473, 2469, 2456, 2454, 2457, 2465, 2467, 2500, 2473, 2511, 2465, 2484, 2476, 2505, 2525, 2502, 2468, 2539, 2474, 2509, 2500, 2478, 2465, 2472, 2507, 2457, 2455, 2495, 2536, 2542, 2606, 2574],
      "WindowCenter": [712.0, 713.0, 712.0, 711.0, 712.0, 713.0, 713.0, 711.0, 712.0, 714.0, 715.0, 714.0, 713.0, 713.0, 713.0, 713.0, 713.0, 713.0, 714.0, 714.0, 715.0, 714.0, 713.0, 713.0, 713.0, 713.0, 713.0, 711.0, 712.0, 714.0, 714.0, 712.0, 711.0, 712.0, 712.0, 713.0, 712.0, 711.0, 711.0, 711.0, 709.0, 711.0, 711.0, 710.0, 711.0, 713.0, 713.0, 711.0, 709.0, 708.0, 710.0, 710.0, 711.0, 710.0, 711.0, 712.0, 713.0, 712.0, 711.0, 711.0, 711.0, 712.0, 712.0, 712.0, 712.0, 710.0, 709.0, 710.0, 710.0, 712.0, 713.0, 713.0, 713.0, 713.0, 712.0, 713.0, 712.0, 713.0, 713.0, 712.0, 712.0, 712.0, 712.0, 712.0, 713.0, 711.0, 709.0, 709.0, 709.0, 710.0, 712.0, 712.0, 712.0, 712.0, 713.0, 713.0, 713.0, 711.0, 711.0, 711.0, 711.0, 710.0, 711.0, 712.0, 712.0, 713.0, 711.0, 709.0, 707.0, 706.0, 707.0, 709.0, 711.0, 711.0, 710.0, 709.0, 709.0, 711.0, 712.0, 712.0, 711.0, 712.0, 710.0, 710.0, 709.0, 708.0, 707.0, 708.0, 709.0, 711.0, 712.0, 712.0, 710.0, 710.0, 709.0, 710.0, 710.0, 711.0, 711.0, 711.0, 711.0, 711.0, 709.0, 710.0, 710.0, 709.0, 709.0, 710.0, 710.0, 709.0, 707.0, 707.0, 708.0, 709.0, 709.0, 708.0],
      "WindowWidth": [1521.0, 1522.0, 1520.0, 1518.0, 1519.0, 1523.0, 1522.0, 1519.0, 1519.0, 1524.0, 1527.0, 1526.0, 1523.0, 1524.0, 1523.0, 1524.0, 1523.0, 1524.0, 1525.0, 1526.0, 1527.0, 1525.0, 1523.0, 1522.0, 1522.0, 1523.0, 1522.0, 1518.0, 1521.0, 1525.0, 1525.0, 1519.0, 1519.0, 1520.0, 1521.0, 1523.0, 1521.0, 1518.0, 1518.0, 1517.0, 1513.0, 1517.0, 1517.0, 1515.0, 1517.0, 1522.0, 1522.0, 1517.0, 1511.0, 1510.0, 1515.0, 1515.0, 1517.0, 1516.0, 1516.0, 1520.0, 1523.0, 1521.0, 1518.0, 1517.0, 1517.0, 1520.0, 1521.0, 1520.0, 1519.0, 1516.0, 1513.0, 1513.0, 1516.0, 1521.0, 1522.0, 1523.0, 1522.0, 1522.0, 1521.0, 1522.0, 1521.0, 1523.0, 1523.0, 1521.0, 1520.0, 1521.0, 1520.0, 1521.0, 1522.0, 1518.0, 1513.0, 1512.0, 1513.0, 1515.0, 1519.0, 1518.0, 1520.0, 1520.0, 1523.0, 1523.0, 1521.0, 1518.0, 1517.0, 1517.0, 1518.0, 1515.0, 1518.0, 1518.0, 1519.0, 1522.0, 1518.0, 1512.0, 1507.0, 1506.0, 1506.0, 1512.0, 1517.0, 1517.0, 1514.0, 1512.0, 1512.0, 1516.0, 1521.0, 1521.0, 1518.0, 1519.0, 1516.0, 1515.0, 1513.0, 1509.0, 1507.0, 1509.0, 1512.0, 1518.0, 1520.0, 1520.0, 1515.0, 1514.0, 1512.0, 1514.0, 1515.0, 1516.0, 1516.0, 1516.0, 1516.0, 1516.0, 1513.0, 1514.0, 1514.0, 1513.0, 1512.0, 1515.0, 1515.0, 1512.0, 1506.0, 1507.0, 1510.0, 1513.0, 1510.0, 1508.0]
    },
    "slices": {}
  }
}