{
  "AcquisitionMatrixPE": 100,
  "AcquisitionNumber": 1,
  "AcquisitionTime": "16:04:53.730000",
  "BandwidthPerPixelPhaseEncode": 18.519,
  "BaseResolution": 100,
  "BodyPartExamined": "BRAIN",
  "CoilCombinationMethod": "Sum of Squares",
  "ConsistencyInfo": "N4_VE11C_LATEST_20160120",
  "ConversionSoftware": "dcm2niix",
  "ConversionSoftwareVersion": "v1.0.20211006",
  "DerivedVendorReportedEchoSpacing": 0.000539986,
  "DeviceSerialNumber": "166078",
  "DwellTime": 2.1e-06,
  "EchoTime": 0.034,
  "EchoTrainLength": 100,
  "EffectiveEchoSpacing": 0.000539986,
  "FlipAngle": 90,
  "ImageOrientationPatientDICOM": [1, 0, 0, 0, 0.96363, -0.267238],
  "ImageOrientationText": "Tra>Cor(-15.5)",
  "ImageType": [
    "ORIGINAL",
    "PRIMARY",
    "M",
    "ND",
    "MOSAIC"
],
  "ImagingFrequency": 123.258,
  "InPlanePhaseEncodingDirectionDICOM": "COL",
  "InstitutionAddress": "Street StreetNo,Bei Jing,District,CN,ZIP",
  "InstitutionName": "BeiJing Normal University",
  "InstitutionalDepartmentName": "Department",
  "MRAcquisitionType": "2D",
  "MagneticFieldStrength": 3,
  "Manufacturer": "Siemens",
  "ManufacturersModelName": "Prisma",
  "Modality": "MR",
  "MultibandAccelerationFactor": 3,
  "PartialFourier": 1,
  "PatientPosition": "HFS",
  "PercentPhaseFOV": 100,
  "PercentSampling": 100,
  "PhaseEncodingDirection": "j-",
  "PhaseEncodingSteps": 100,
  "PhaseResolution": 1,
  "PixelBandwidth": 2380,
  "ProcedureStepDescription": "BNU_P2018_64CH^Zhen.ZongLei",
  "ProtocolName": "bold_100x100_s3_2x2x2_static_156",
  "PulseSequenceDetails": "%SiemensSeq%\\ep2d_bold",
  "ReceiveCoilActiveElements": "HC1-7;NC1",
  "ReceiveCoilName": "HeadNeck_64",
  "ReconMatrixPE": 100,
  "RefLinesPE": 32,
  "RepetitionTime": 2,
  "SAR": 0.0670614,
  "ScanOptions": "FS",
  "ScanningSequence": "EP",
  "SequenceName": "*epfid2d1_100",
  "SequenceVariant": "SK",
  "SeriesDescription": "bold_100x100_s3_2x2x2_static_156",
  "SeriesNumber": 3,
  "ShimSetting": [-5460, -11527, -1257, 402, -8, -337, -117, 36],
  "SliceThickness": 2,
  "SliceTiming": [1.485, 0, 0.99, 0.0825, 1.0725, 0.165, 1.155, 0.2475, 1.2375, 0.33, 1.32, 0.4125, 1.4025, 0.5775, 1.5675, 0.66, 1.65, 0.7425, 1.7325, 0.825, 1.815, 0.9075, 1.8975, 0.495, 1.485, 0, 0.99, 0.0825, 1.0725, 0.165, 1.155, 0.2475, 1.2375, 0.33, 1.32, 0.4125, 1.4025, 0.5775, 1.5675, 0.66, 1.65, 0.7425, 1.7325, 0.825, 1.815, 0.9075, 1.8975, 0.495, 1.485, 0, 0.99, 0.0825, 1.0725, 0.165, 1.155, 0.2475, 1.2375, 0.33, 1.32, 0.4125, 1.4025, 0.5775, 1.5675, 0.66, 1.65, 0.7425, 1.7325, 0.825, 1.815, 0.9075, 1.8975, 0.495],
  "SoftwareVersions": "syngo MR E11",
  "SpacingBetweenSlices": 2,
  "StationName": "AWP166078",
  "TaskName": "action",
  "TotalReadoutTime": 0.0534586,
  "TxRefAmp": 212.816,
  "dcmmeta_affine": [
    [-2.0, 0.0, 0.0, 100.0],
    [0.0, 1.9272608757019043, -0.5344767570495605, -71.66040802001953],
    [0.0, 0.5344767570495605, 1.9272608757019043, -91.50785064697266],
    [0.0, 0.0, 0.0, 1.0]
],
  "dcmmeta_reorient_transform": [
    [0.0, -1.0, 0.0, 99.0],
    [1.0, 0.0, 0.0, 0.0],
    [0.0, 0.0, 1.0, 0.0],
    [0.0, 0.0, 0.0, 1.0]
],
  "dcmmeta_shape": [100, 100, 72, 156],
  "dcmmeta_slice_dim": 2,
  "dcmmeta_version": 0.6,
  "global": {
    "const": {
      "AcquisitionMatrix": [100, 0, 0, 100],
      "AngioFlag": "N",
      "BitsAllocated": 16,
      "BitsStored": 12,
      "BodyPartExamined": "BRAIN",
      "Columns": 900,
      "EchoNumbers": 1,
      "EchoTime": 34.0,
      "EchoTrainLength": 100,
      "FlipAngle": 90.0,
      "HighBit": 11,
      "ImageOrientationPatient": [1.0, 0.0, 0.0, 0.0, 0.9636304558474, -0.2672383665631],
      "ImagePositionPatient": [-900.0, -890.04278753622, 175.19604083213],
      "ImageType": [
        "ORIGINAL",
        "PRIMARY",
        "M",
        "ND",
        "MOSAIC"
],
      "ImagedNucleus": "1H",
      "ImagingFrequency": 123.257721,
      "InPlanePhaseEncodingDirection": "COL",
      "MRAcquisitionType": "2D",
      "MagneticFieldStrength": 3.0,
      "Manufacturer": "SIEMENS",
      "ManufacturerModelName": "Prisma",
      "Modality": "MR",
      "NumberOfAverages": 1.0,
      "NumberOfPhaseEncodingSteps": 100,
      "PercentPhaseFieldOfView": 100.0,
      "PercentSampling": 100.0,
      "PerformedProcedureStepStartTime": "160219.420000",
      "PhotometricInterpretation": "MONOCHROME2",
      "PixelBandwidth": 2380.0,
      "PixelRepresentation": 0,
      "PixelSpacing": [2.0, 2.0],
      "ProtocolName": "bold_100x100_s3_2x2x2_static_156",
      "RepetitionTime": 2000.0,
      "Rows": 900,
      "SAR": 0.06706142560556,
      "SamplesPerPixel": 1,
      "ScanOptions": "FS",
      "ScanningSequence": "EP",
      "SequenceName": "*epfid2d1_100",
      "SequenceVariant": "SK",
      "SeriesDescription": "bold_100x100_s3_2x2x2_static_156",
      "SeriesNumber": 3,
      "SeriesTime": "160456.729000",
      "SliceLocation": -69.029340022769,
      "SliceThickness": 2.0,
      "SmallestImagePixelValue": 0,
      "SoftwareVersions": "syngo MR E11",
      "SpacingBetweenSlices": 2.0000000152169,
      "SpecificCharacterSet": "ISO_IR 100",
      "StudyID": "1",
      "StudyTime": "160219.353000",
      "TransmitCoilName": "Body",
      "VariableFlipAngleFlag": "N",
      "WindowCenterWidthExplanation": "Algo1",
      "dBdt": 0.0},
    "slices": {}
  },
  "time": {
    "samples": {
      "AcquisitionNumber": [1, 2, 3, 4, 5, 6, 7, 8, 9, 10, 11, 12, 13, 14, 15, 16, 17, 18, 19, 20, 21, 22, 23, 24, 25, 26, 27, 28, 29, 30, 31, 32, 33, 34, 35, 36, 37, 38, 39, 40, 41, 42, 43, 44, 45, 46, 47, 48, 49, 50, 51, 52, 53, 54, 55, 56, 57, 58, 59, 60, 61, 62, 63, 64, 65, 66, 67, 68, 69, 70, 71, 72, 73, 74, 75, 76, 77, 78, 79, 80, 81, 82, 83, 84, 85, 86, 87, 88, 89, 90, 91, 92, 93, 94, 95, 96, 97, 98, 99, 100, 101, 102, 103, 104, 105, 106, 107, 108, 109, 110, 111, 112, 113, 114, 115, 116, 117, 118, 119, 120, 121, 122, 123, 124, 125, 126, 127, 128, 129, 130, 131, 132, 133, 134, 135, 136, 137, 138, 139, 140, 141, 142, 143, 144, 145, 146, 147, 148, 149, 150, 151, 152, 153, 154, 155, 156],
      "AcquisitionTime": ["160453.730000", "160455.730000", "160457.730000", "160459.730000", "160501.730000", "160503.730000", "160505.730000", "160507.730000", "160509.730000", "160511.730000", "160513.730000", "160515.730000", "160517.730000", "160519.730000", "160521.730000", "160523.730000", "160525.730000", "160527.730000", "160529.730000", "160531.730000", "160533.730000", "160535.730000", "160537.730000", "160539.730000", "160541.730000", "160543.730000", "160545.730000", "160547.730000", "160549.730000", "160551.730000", "160553.730000", "160555.730000", "160557.730000", "160559.730000", "160601.730000", "160603.730000", "160605.730000", "160607.730000", "160609.730000", "160611.730000", "160613.730000", "160615.730000", "160617.730000", "160619.730000", "160621.730000", "160623.730000", "160625.730000", "160627.730000", "160629.730000", "160631.730000", "160633.730000", "160635.730000", "160637.730000", "160639.730000", "160641.730000", "160643.730000", "160645.730000", "160647.730000", "160649.730000", "160651.730000", "160653.730000", "160655.730000", "160657.730000", "160659.730000", "160701.730000", "160703.730000", "160705.730000", "160707.730000", "160709.730000", "160711.730000", "160713.730000", "160715.730000", "160717.730000", "160719.730000", "160721.730000", "160723.730000", "160725.730000", "160727.730000", "160729.730000", "160731.730000", "160733.730000", "160735.730000", "160737.730000", "160739.730000", "160741.730000", "160743.730000", "160745.730000", "160747.730000", "160749.730000", "160751.730000", "160753.730000", "160755.730000", "160757.730000", "160759.730000", "160801.730000", "160803.730000", "160805.730000", "160807.730000", "160809.730000", "160811.730000", "160813.730000", "160815.730000", "160817.730000", "160819.730000", "160821.730000", "160823.730000", "160825.730000", "160827.730000", "160829.730000", "160831.730000", "160833.730000", "160835.730000", "160837.730000", "160839.730000", "160841.730000", "160843.730000", "160845.730000", "160847.730000", "160849.730000", "160851.730000", "160853.730000", "160855.730000", "160857.730000", "160859.730000", "160901.730000", "160903.730000", "160905.730000", "160907.730000", "160909.730000", "160911.730000", "160913.730000", "160915.730000", "160917.730000", "160919.730000", "160921.730000", "160923.730000", "160925.730000", "160927.730000", "160929.730000", "160931.730000", "160933.730000", "160935.730000", "160937.730000", "160939.730000", "160941.730000", "160943.730000", "160945.730000", "160947.730000", "160949.730000", "160951.730000", "160953.730000", "160955.730000", "160957.730000", "160959.730000", "161001.730000", "161003.730000"],
      "ContentTime": ["160456.733000", "160458.228000", "160500.228000", "160502.228000", "160504.228000", "160506.228000", "160508.227000", "160510.228000", "160512.228000", "160514.229000", "160516.227000", "160518.227000", "160520.227000", "160522.227000", "160524.227000", "160526.228000", "160528.228000", "160530.228000", "160532.228000", "160534.228000", "160536.227000", "160538.227000", "160540.227000", "160542.227000", "160544.227000", "160546.228000", "160548.228000", "160550.227000", "160552.228000", "160554.227000", "160556.227000", "160558.227000", "160600.228000", "160602.227000", "160604.229000", "160606.228000", "160608.227000", "160610.227000", "160612.227000", "160614.227000", "160616.227000", "160618.227000", "160620.227000", "160622.229000", "160624.229000", "160626.227000", "160628.227000", "160630.228000", "160632.227000", "160634.227000", "160636.227000", "160638.229000", "160640.228000", "160642.227000", "160644.227000", "160646.228000", "160648.228000", "160650.228000", "160652.228000", "160654.227000", "160656.228000", "160658.229000", "160700.227000", "160702.227000", "160704.228000", "160706.228000", "160708.228000", "160710.228000", "160712.227000", "160714.229000", "160716.229000", "160718.228000", "160720.227000", "160722.227000", "160724.227000", "160726.228000", "160728.228000", "160730.229000", "160732.229000", "160734.229000", "160736.228000", "160738.227000", "160740.227000", "160742.227000", "160744.227000", "160746.228000", "160748.229000", "160750.229000", "160752.227000", "160754.228000", "160756.227000", "160758.227000", "160800.227000", "160802.227000", "160804.227000", "160806.228000", "160808.229000", "160810.227000", "160812.228000", "160814.228000", "160816.227000", "160818.228000", "160820.228000", "160822.248000", "160824.229000", "160826.228000", "160828.227000", "160830.228000", "160832.227000", "160834.227000", "160836.228000", "160838.227000", "160840.229000", "160842.228000", "160844.228000", "160846.228000", "160848.228000", "160850.228000", "160852.228000", "160854.227000", "160856.228000", "160858.229000", "160900.229000", "160902.228000", "160904.227000", "160906.228000", "160908.228000", "160910.227000", "160912.227000", "160914.227000", "160916.229000", "160918.229000", "160920.227000", "160922.228000", "160924.228000", "160926.228000", "160928.228000", "160930.228000", "160932.227000", "160934.229000", "160936.229000", "160938.228000", "160940.228000", "160942.228000", "160944.228000", "160946.227000", "160948.228000", "160950.229000", "160952.229000", "160954.229000", "160956.227000", "160958.227000", "161000.227000", "161002.228000", "161004.227000", "161005.889000"],
      "InstanceCreationTime": ["160456.733000", "160458.228000", "160500.228000", "160502.228000", "160504.228000", "160506.228000", "160508.227000", "160510.228000", "160512.228000", "160514.229000", "160516.227000", "160518.227000", "160520.227000", "160522.227000", "160524.227000", "160526.228000", "160528.228000", "160530.228000", "160532.228000", "160534.228000", "160536.227000", "160538.227000", "160540.227000", "160542.227000", "160544.227000", "160546.228000", "160548.228000", "160550.227000", "160552.228000", "160554.227000", "160556.227000", "160558.227000", "160600.228000", "160602.227000", "160604.229000", "160606.228000", "160608.227000", "160610.227000", "160612.227000", "160614.227000", "160616.227000", "160618.227000", "160620.227000", "160622.229000", "160624.229000", "160626.227000", "160628.227000", "160630.228000", "160632.227000", "160634.227000", "160636.227000", "160638.229000", "160640.228000", "160642.227000", "160644.227000", "160646.228000", "160648.228000", "160650.228000", "160652.228000", "160654.227000", "160656.228000", "160658.229000", "160700.227000", "160702.227000", "160704.228000", "160706.228000", "160708.228000", "160710.228000", "160712.227000", "160714.229000", "160716.229000", "160718.228000", "160720.227000", "160722.227000", "160724.227000", "160726.228000", "160728.228000", "160730.229000", "160732.229000", "160734.229000", "160736.228000", "160738.227000", "160740.227000", "160742.227000", "160744.227000", "160746.228000", "160748.229000", "160750.229000", "160752.227000", "160754.228000", "160756.227000", "160758.227000", "160800.227000", "160802.227000", "160804.227000", "160806.228000", "160808.229000", "160810.227000", "160812.228000", "160814.228000", "160816.227000", "160818.228000", "160820.228000", "160822.248000", "160824.229000", "160826.228000", "160828.227000", "160830.228000", "160832.227000", "160834.227000", "160836.228000", "160838.227000", "160840.229000", "160842.228000", "160844.228000", "160846.228000", "160848.228000", "160850.228000", "160852.228000", "160854.227000", "160856.228000", "160858.229000", "160900.229000", "160902.228000", "160904.227000", "160906.228000", "160908.228000", "160910.227000", "160912.227000", "160914.227000", "160916.229000", "160918.229000", "160920.227000", "160922.228000", "160924.228000", "160926.228000", "160928.228000", "160930.228000", "160932.227000", "160934.229000", "160936.229000", "160938.228000", "160940.228000", "160942.228000", "160944.228000", "160946.227000", "160948.228000", "160950.229000", "160952.229000", "160954.229000", "160956.227000", "160958.227000", "161000.227000", "161002.228000", "161004.227000", "161005.889000"],
      "InstanceNumber": [1, 2, 3, 4, 5, 6, 7, 8, 9, 10, 11, 12, 13, 14, 15, 16, 17, 18, 19, 20, 21, 22, 23, 24, 25, 26, 27, 28, 29, 30, 31, 32, 33, 34, 35, 36, 37, 38, 39, 40, 41, 42, 43, 44, 45, 46, 47, 48, 49, 50, 51, 52, 53, 54, 55, 56, 57, 58, 59, 60, 61, 62, 63, 64, 65, 66, 67, 68, 69, 70, 71, 72, 73, 74, 75, 76, 77, 78, 79, 80, 81, 82, 83, 84, 85, 86, 87, 88, 89, 90, 91, 92, 93, 94, 95, 96, 97, 98, 99, 100, 101, 102, 103, 104, 105, 106, 107, 108, 109, 110, 111, 112, 113, 114, 115, 116, 117, 118, 119, 120, 121, 122, 123, 124, 125, 126, 127, 128, 129, 130, 131, 132, 133, 134, 135, 136, 137, 138, 139, 140, 141, 142, 143, 144, 145, 146, 147, 148, 149, 150, 151, 152, 153, 154, 155, 156],
      "LargestImagePixelValue": [2553, 2520, 2529, 2525, 2523, 2541, 2487, 2477, 2524, 2476, 2490, 2501, 2504, 2506, 2512, 2524, 2527, 2545, 2534, 2517, 2533, 2497, 2486, 2543, 2543, 2489, 2491, 2501, 2537, 2519, 2524, 2497, 2501, 2524, 2555, 2548, 2527, 2535, 2550, 2547, 2530, 2529, 2552, 2553, 2545, 2557, 2539, 2531, 2563, 2537, 2533, 2529, 2529, 2535, 2534, 2542, 2570, 2541, 2556, 2526, 2526, 2544, 2508, 2527, 2535, 2534, 2549, 2523, 2550, 2558, 2565, 2543, 2524, 2504, 2517, 2515, 2519, 2539, 2545, 2533, 2514, 2527, 2504, 2552, 2544, 2545, 2519, 2516, 2540, 2514, 2546, 2511, 2557, 2537, 2539, 2510, 2500, 2521, 2510, 2508, 2512, 2510, 2505, 2522, 2520, 2519, 2525, 2536, 2544, 2532, 2539, 2514, 2542, 2521, 2503, 2526, 2524, 2516, 2522, 2528, 2506, 2549, 2533, 2518, 2500, 2514, 2486, 2497, 2535, 2508, 2513, 2495, 2505, 2493, 2523, 2507, 2524, 2502, 2518, 2500, 2489, 2507, 2517, 2501, 2483, 2499, 2484, 2504, 2502, 2505, 2475, 2468, 2489, 2474, 2459, 2440],
      "WindowCenter": [711.0, 711.0, 712.0, 713.0, 711.0, 710.0, 709.0, 709.0, 710.0, 709.0, 710.0, 711.0, 711.0, 711.0, 710.0, 710.0, 710.0, 711.0, 711.0, 710.0, 710.0, 711.0, 710.0, 710.0, 710.0, 710.0, 710.0, 710.0, 711.0, 710.0, 710.0, 709.0, 709.0, 710.0, 711.0, 710.0, 710.0, 712.0, 712.0, 711.0, 711.0, 711.0, 711.0, 710.0, 709.0, 709.0, 709.0, 710.0, 710.0, 710.0, 711.0, 711.0, 711.0, 711.0, 711.0, 711.0, 711.0, 711.0, 712.0, 712.0, 710.0, 709.0, 710.0, 711.0, 712.0, 712.0, 712.0, 711.0, 711.0, 711.0, 710.0, 710.0, 710.0, 710.0, 709.0, 710.0, 711.0, 712.0, 712.0, 711.0, 710.0, 710.0, 710.0, 711.0, 712.0, 711.0, 709.0, 709.0, 710.0, 711.0, 712.0, 711.0, 711.0, 711.0, 711.0, 710.0, 709.0, 710.0, 710.0, 711.0, 711.0, 710.0, 710.0, 710.0, 711.0, 712.0, 713.0, 713.0, 712.0, 712.0, 711.0, 712.0, 712.0, 711.0, 710.0, 710.0, 710.0, 711.0, 711.0, 711.0, 711.0, 712.0, 711.0, 711.0, 710.0, 710.0, 709.0, 709.0, 711.0, 712.0, 712.0, 712.0, 712.0, 711.0, 712.0, 711.0, 712.0, 711.0, 711.0, 710.0, 710.0, 712.0, 712.0, 711.0, 710.0, 711.0, 711.0, 712.0, 711.0, 711.0, 710.0, 709.0, 709.0, 710.0, 710.0, 711.0],
      "WindowWidth": [1520.0, 1519.0, 1524.0, 1524.0, 1520.0, 1516.0, 1513.0, 1514.0, 1516.0, 1516.0, 1517.0, 1519.0, 1519.0, 1519.0, 1518.0, 1518.0, 1518.0, 1520.0, 1519.0, 1518.0, 1518.0, 1518.0, 1518.0, 1518.0, 1518.0, 1517.0, 1517.0, 1518.0, 1519.0, 1518.0, 1516.0, 1515.0, 1515.0, 1517.0, 1519.0, 1517.0, 1518.0, 1521.0, 1521.0, 1520.0, 1520.0, 1518.0, 1518.0, 1516.0, 1515.0, 1515.0, 1516.0, 1517.0, 1518.0, 1517.0, 1518.0, 1519.0, 1519.0, 1520.0, 1519.0, 1519.0, 1520.0, 1519.0, 1522.0, 1521.0, 1517.0, 1515.0, 1515.0, 1519.0, 1522.0, 1522.0, 1521.0, 1519.0, 1519.0, 1518.0, 1517.0, 1517.0, 1516.0, 1516.0, 1515.0, 1516.0, 1518.0, 1522.0, 1522.0, 1519.0, 1518.0, 1517.0, 1516.0, 1520.0, 1521.0, 1518.0, 1515.0, 1514.0, 1517.0, 1520.0, 1521.0, 1518.0, 1519.0, 1519.0, 1519.0, 1518.0, 1515.0, 1516.0, 1517.0, 1518.0, 1519.0, 1517.0, 1516.0, 1517.0, 1520.0, 1521.0, 1524.0, 1524.0, 1523.0, 1521.0, 1520.0, 1521.0, 1522.0, 1519.0, 1516.0, 1515.0, 1517.0, 1520.0, 1520.0, 1520.0, 1520.0, 1521.0, 1521.0, 1520.0, 1518.0, 1517.0, 1513.0, 1515.0, 1519.0, 1521.0, 1523.0, 1522.0, 1520.0, 1519.0, 1521.0, 1520.0, 1522.0, 1520.0, 1518.0, 1517.0, 1518.0, 1521.0, 1521.0, 1520.0, 1518.0, 1521.0, 1521.0, 1521.0, 1519.0, 1518.0, 1516.0, 1514.0, 1515.0, 1516.0, 1518.0, 1519.0]
    },
    "slices": {}
  }
}