{
  "AcquisitionMatrixPE": 100,
  "AcquisitionNumber": 1,
  "AcquisitionTime": "13:48:28.677500",
  "BandwidthPerPixelPhaseEncode": 18.519,
  "BaseResolution": 100,
  "BodyPartExamined": "BRAIN",
  "CoilCombinationMethod": "Sum of Squares",
  "ConsistencyInfo": "N4_VE11C_LATEST_20160120",
  "ConversionSoftware": "dcm2niix",
  "ConversionSoftwareVersion": "v1.0.20211006",
  "DerivedVendorReportedEchoSpacing": 0.000539986,
  "DeviceSerialNumber": "166078",
  "DwellTime": 2.1e-06,
  "EchoTime": 0.034,
  "EchoTrainLength": 100,
  "EffectiveEchoSpacing": 0.000539986,
  "FlipAngle": 90,
  "ImageOrientationPatientDICOM": [0.999976, 0.000814536, 0.00693358, -2.7569e-08, 0.993171, -0.116671],
  "ImageOrientationText": "Tra>Cor(-6.7)>Sag(0.4)",
  "ImageType": [
    "ORIGINAL",
    "PRIMARY",
    "M",
    "ND",
    "MOSAIC"
],
  "ImagingFrequency": 123.258,
  "InPlanePhaseEncodingDirectionDICOM": "COL",
  "InstitutionAddress": "Street StreetNo,Bei Jing,District,CN,ZIP",
  "InstitutionName": "BeiJing Normal University",
  "InstitutionalDepartmentName": "Department",
  "MRAcquisitionType": "2D",
  "MagneticFieldStrength": 3,
  "Manufacturer": "Siemens",
  "ManufacturersModelName": "Prisma",
  "Modality": "MR",
  "MultibandAccelerationFactor": 3,
  "PartialFourier": 1,
  "PatientPosition": "HFS",
  "PercentPhaseFOV": 100,
  "PercentSampling": 100,
  "PhaseEncodingDirection": "j-",
  "PhaseEncodingSteps": 100,
  "PhaseResolution": 1,
  "PixelBandwidth": 2380,
  "ProcedureStepDescription": "BNU_P2018_64CH^Zhen.ZongLei",
  "ProtocolName": "bold_100x100_s3_2x2x2_static_156",
  "PulseSequenceDetails": "%SiemensSeq%\\ep2d_bold",
  "ReceiveCoilActiveElements": "HC1-7;NC1",
  "ReceiveCoilName": "HeadNeck_64",
  "ReconMatrixPE": 100,
  "RefLinesPE": 32,
  "RepetitionTime": 2,
  "SAR": 0.0663888,
  "ScanOptions": "FS",
  "ScanningSequence": "EP",
  "SequenceName": "*epfid2d1_100",
  "SequenceVariant": "SK",
  "SeriesDescription": "bold_100x100_s3_2x2x2_static_156",
  "SeriesNumber": 12,
  "ShimSetting": [-5435, -11515, -1240, 303, -58, -263, -116, -6],
  "SliceThickness": 2,
  "SliceTiming": [1.485, 0, 0.99, 0.0825, 1.0725, 0.165, 1.155, 0.2475, 1.2375, 0.33, 1.32, 0.4125, 1.4025, 0.5775, 1.5675, 0.66, 1.65, 0.7425, 1.7325, 0.825, 1.815, 0.9075, 1.8975, 0.495, 1.485, 0, 0.99, 0.0825, 1.0725, 0.165, 1.155, 0.2475, 1.2375, 0.33, 1.32, 0.4125, 1.4025, 0.5775, 1.5675, 0.66, 1.65, 0.7425, 1.7325, 0.825, 1.815, 0.9075, 1.8975, 0.495, 1.485, 0, 0.99, 0.0825, 1.0725, 0.165, 1.155, 0.2475, 1.2375, 0.33, 1.32, 0.4125, 1.4025, 0.5775, 1.5675, 0.66, 1.65, 0.7425, 1.7325, 0.825, 1.815, 0.9075, 1.8975, 0.495],
  "SoftwareVersions": "syngo MR E11",
  "SpacingBetweenSlices": 2,
  "StationName": "AWP166078",
  "TaskName": "action",
  "TotalReadoutTime": 0.0534586,
  "TxRefAmp": 212.729,
  "dcmmeta_affine": [
    [-1.9999512434005737, -5.5138059451564914e-08, 0.01396252028644085, 100.85782623291016],
    [-0.0016290722414851189, 1.9863413572311401, -0.23333579301834106, -88.22382354736328],
    [0.013867158442735672, 0.23334148526191711, 1.9862929582595825, -70.30143737792969],
    [0.0, 0.0, 0.0, 1.0]
],
  "dcmmeta_reorient_transform": [
    [0.0, -1.0, 0.0, 99.0],
    [1.0, 0.0, 0.0, 0.0],
    [0.0, 0.0, 1.0, 0.0],
    [0.0, 0.0, 0.0, 1.0]
],
  "dcmmeta_shape": [100, 100, 72, 156],
  "dcmmeta_slice_dim": 2,
  "dcmmeta_version": 0.6,
  "global": {
    "const": {
      "AcquisitionMatrix": [100, 0, 0, 100],
      "AngioFlag": "N",
      "BitsAllocated": 16,
      "BitsStored": 12,
      "BodyPartExamined": "BRAIN",
      "Columns": 900,
      "EchoNumbers": 1,
      "EchoTime": 34.0,
      "EchoTrainLength": 100,
      "FlipAngle": 90.0,
      "HighBit": 11,
      "ImageOrientationPatient": [0.99997563070726, 0.0008145361468, 0.00693357934158, -2.756903e-08, 0.99317064931944, -0.116670738964],
      "ImagePositionPatient": [-900.83830557599, -903.61211190405, 40.589092921666],
      "ImageType": [
        "ORIGINAL",
        "PRIMARY",
        "M",
        "ND",
        "MOSAIC"
],
      "ImagedNucleus": "1H",
      "ImagingFrequency": 123.257687,
      "InPlanePhaseEncodingDirection": "COL",
      "MRAcquisitionType": "2D",
      "MagneticFieldStrength": 3.0,
      "Manufacturer": "SIEMENS",
      "ManufacturerModelName": "Prisma",
      "Modality": "MR",
      "NumberOfAverages": 1.0,
      "NumberOfPhaseEncodingSteps": 100,
      "PercentPhaseFieldOfView": 100.0,
      "PercentSampling": 100.0,
      "PerformedProcedureStepStartTime": "125430.952000",
      "PhotometricInterpretation": "MONOCHROME2",
      "PixelBandwidth": 2380.0,
      "PixelRepresentation": 0,
      "PixelSpacing": [2.0, 2.0],
      "ProtocolName": "bold_100x100_s3_2x2x2_static_156",
      "RepetitionTime": 2000.0,
      "Rows": 900,
      "SAR": 0.06638879303649,
      "SamplesPerPixel": 1,
      "ScanOptions": "FS",
      "ScanningSequence": "EP",
      "SequenceName": "*epfid2d1_100",
      "SequenceVariant": "SK",
      "SeriesDescription": "bold_100x100_s3_2x2x2_static_156",
      "SeriesNumber": 12,
      "SeriesTime": "134831.532000",
      "SliceLocation": -58.82262366712,
      "SliceThickness": 2.0,
      "SmallestImagePixelValue": 0,
      "SoftwareVersions": "syngo MR E11",
      "SpacingBetweenSlices": 2.0000000397734,
      "SpecificCharacterSet": "ISO_IR 100",
      "StudyID": "1",
      "StudyTime": "125430.798000",
      "TransmitCoilName": "Body",
      "VariableFlipAngleFlag": "N",
      "WindowCenterWidthExplanation": "Algo1",
      "dBdt": 0.0},
    "slices": {}
  },
  "time": {
    "samples": {
      "AcquisitionNumber": [1, 2, 3, 4, 5, 6, 7, 8, 9, 10, 11, 12, 13, 14, 15, 16, 17, 18, 19, 20, 21, 22, 23, 24, 25, 26, 27, 28, 29, 30, 31, 32, 33, 34, 35, 36, 37, 38, 39, 40, 41, 42, 43, 44, 45, 46, 47, 48, 49, 50, 51, 52, 53, 54, 55, 56, 57, 58, 59, 60, 61, 62, 63, 64, 65, 66, 67, 68, 69, 70, 71, 72, 73, 74, 75, 76, 77, 78, 79, 80, 81, 82, 83, 84, 85, 86, 87, 88, 89, 90, 91, 92, 93, 94, 95, 96, 97, 98, 99, 100, 101, 102, 103, 104, 105, 106, 107, 108, 109, 110, 111, 112, 113, 114, 115, 116, 117, 118, 119, 120, 121, 122, 123, 124, 125, 126, 127, 128, 129, 130, 131, 132, 133, 134, 135, 136, 137, 138, 139, 140, 141, 142, 143, 144, 145, 146, 147, 148, 149, 150, 151, 152, 153, 154, 155, 156],
      "AcquisitionTime": ["134828.677500", "134830.677500", "134832.677500", "134834.677500", "134836.677500", "134838.677500", "134840.677500", "134842.677500", "134844.677500", "134846.677500", "134848.677500", "134850.677500", "134852.677500", "134854.677500", "134856.677500", "134858.677500", "134900.677500", "134902.677500", "134904.677500", "134906.677500", "134908.677500", "134910.677500", "134912.677500", "134914.677500", "134916.677500", "134918.677500", "134920.677500", "134922.677500", "134924.677500", "134926.677500", "134928.677500", "134930.677500", "134932.677500", "134934.677500", "134936.677500", "134938.677500", "134940.677500", "134942.677500", "134944.677500", "134946.677500", "134948.677500", "134950.677500", "134952.677500", "134954.677500", "134956.677500", "134958.677500", "135000.677500", "135002.677500", "135004.677500", "135006.677500", "135008.677500", "135010.677500", "135012.677500", "135014.677500", "135016.677500", "135018.677500", "135020.677500", "135022.677500", "135024.677500", "135026.677500", "135028.677500", "135030.677500", "135032.677500", "135034.677500", "135036.677500", "135038.677500", "135040.677500", "135042.677500", "135044.677500", "135046.677500", "135048.677500", "135050.677500", "135052.677500", "135054.677500", "135056.677500", "135058.677500", "135100.677500", "135102.677500", "135104.677500", "135106.677500", "135108.677500", "135110.677500", "135112.677500", "135114.677500", "135116.677500", "135118.677500", "135120.677500", "135122.677500", "135124.677500", "135126.677500", "135128.677500", "135130.677500", "135132.677500", "135134.677500", "135136.677500", "135138.677500", "135140.677500", "135142.677500", "135144.677500", "135146.677500", "135148.677500", "135150.677500", "135152.677500", "135154.677500", "135156.677500", "135158.677500", "135200.677500", "135202.677500", "135204.677500", "135206.677500", "135208.677500", "135210.677500", "135212.677500", "135214.677500", "135216.677500", "135218.677500", "135220.677500", "135222.677500", "135224.677500", "135226.677500", "135228.677500", "135230.677500", "135232.677500", "135234.677500", "135236.677500", "135238.677500", "135240.677500", "135242.677500", "135244.677500", "135246.677500", "135248.677500", "135250.677500", "135252.677500", "135254.677500", "135256.677500", "135258.677500", "135300.677500", "135302.677500", "135304.677500", "135306.677500", "135308.677500", "135310.677500", "135312.677500", "135314.677500", "135316.677500", "135318.677500", "135320.677500", "135322.677500", "135324.677500", "135326.677500", "135328.677500", "135330.677500", "135332.677500", "135334.677500", "135336.677500", "135338.677500"],
      "ContentTime": ["134831.536000", "134833.032000", "134835.032000", "134837.032000", "134839.032000", "134841.033000", "134843.033000", "134845.032000", "134847.033000", "134849.032000", "134851.031000", "134853.031000", "134855.031000", "134857.033000", "134859.032000", "134901.032000", "134903.033000", "134905.032000", "134907.031000", "134909.031000", "134911.031000", "134913.032000", "134915.032000", "134917.033000", "134919.032000", "134921.032000", "134923.032000", "134925.032000", "134927.031000", "134929.031000", "134931.033000", "134933.033000", "134935.033000", "134937.033000", "134939.033000", "134941.032000", "134943.032000", "134945.032000", "134947.032000", "134949.033000", "134951.033000", "134953.032000", "134955.033000", "134957.033000", "134959.032000", "135001.032000", "135003.031000", "135005.031000", "135007.033000", "135009.033000", "135011.032000", "135013.033000", "135015.032000", "135017.031000", "135019.032000", "135021.031000", "135023.033000", "135025.033000", "135027.033000", "135029.033000", "135031.033000", "135033.031000", "135035.032000", "135037.032000", "135039.032000", "135041.033000", "135043.033000", "135045.033000", "135047.033000", "135049.032000", "135051.032000", "135053.032000", "135055.031000", "135057.031000", "135059.033000", "135101.032000", "135103.032000", "135105.033000", "135107.033000", "135109.031000", "135111.032000", "135113.032000", "135115.031000", "135117.032000", "135119.033000", "135121.032000", "135123.032000", "135125.032000", "135127.032000", "135129.032000", "135131.032000", "135133.032000", "135135.033000", "135137.033000", "135139.032000", "135141.033000", "135143.032000", "135145.031000", "135147.032000", "135149.032000", "135151.033000", "135153.033000", "135155.033000", "135157.033000", "135159.033000", "135201.032000", "135203.032000", "135205.032000", "135207.031000", "135209.033000", "135211.034000", "135213.033000", "135215.033000", "135217.033000", "135219.032000", "135221.032000", "135223.031000", "135225.033000", "135227.032000", "135229.032000", "135231.032000", "135233.033000", "135235.032000", "135237.032000", "135239.032000", "135241.032000", "135243.033000", "135245.033000", "135247.033000", "135249.033000", "135251.033000", "135253.032000", "135255.032000", "135257.032000", "135259.032000", "135301.033000", "135303.032000", "135305.032000", "135307.033000", "135309.033000", "135311.032000", "135313.032000", "135315.031000", "135317.032000", "135319.033000", "135321.033000", "135323.033000", "135325.032000", "135327.033000", "135329.032000", "135331.032000", "135333.031000", "135335.033000", "135337.032000", "135339.032000", "135340.732000"],
      "InstanceCreationTime": ["134831.536000", "134833.032000", "134835.032000", "134837.032000", "134839.032000", "134841.033000", "134843.033000", "134845.032000", "134847.033000", "134849.032000", "134851.031000", "134853.031000", "134855.031000", "134857.033000", "134859.032000", "134901.032000", "134903.033000", "134905.032000", "134907.031000", "134909.031000", "134911.031000", "134913.032000", "134915.032000", "134917.033000", "134919.032000", "134921.032000", "134923.032000", "134925.032000", "134927.031000", "134929.031000", "134931.033000", "134933.033000", "134935.033000", "134937.033000", "134939.033000", "134941.032000", "134943.032000", "134945.032000", "134947.032000", "134949.033000", "134951.033000", "134953.032000", "134955.033000", "134957.033000", "134959.032000", "135001.032000", "135003.031000", "135005.031000", "135007.033000", "135009.033000", "135011.032000", "135013.033000", "135015.032000", "135017.031000", "135019.032000", "135021.031000", "135023.033000", "135025.033000", "135027.033000", "135029.033000", "135031.033000", "135033.031000", "135035.032000", "135037.032000", "135039.032000", "135041.033000", "135043.033000", "135045.033000", "135047.033000", "135049.032000", "135051.032000", "135053.032000", "135055.031000", "135057.031000", "135059.033000", "135101.032000", "135103.032000", "135105.033000", "135107.033000", "135109.031000", "135111.032000", "135113.032000", "135115.031000", "135117.032000", "135119.033000", "135121.032000", "135123.032000", "135125.032000", "135127.032000", "135129.032000", "135131.032000", "135133.032000", "135135.033000", "135137.033000", "135139.032000", "135141.033000", "135143.032000", "135145.031000", "135147.032000", "135149.032000", "135151.033000", "135153.033000", "135155.033000", "135157.033000", "135159.033000", "135201.032000", "135203.032000", "135205.032000", "135207.031000", "135209.033000", "135211.034000", "135213.033000", "135215.033000", "135217.033000", "135219.032000", "135221.032000", "135223.031000", "135225.033000", "135227.032000", "135229.032000", "135231.032000", "135233.033000", "135235.032000", "135237.032000", "135239.032000", "135241.032000", "135243.033000", "135245.033000", "135247.033000", "135249.033000", "135251.033000", "135253.032000", "135255.032000", "135257.032000", "135259.032000", "135301.033000", "135303.032000", "135305.032000", "135307.033000", "135309.033000", "135311.032000", "135313.032000", "135315.031000", "135317.032000", "135319.033000", "135321.033000", "135323.033000", "135325.032000", "135327.033000", "135329.032000", "135331.032000", "135333.031000", "135335.033000", "135337.032000", "135339.032000", "135340.732000"],
      "InstanceNumber": [1, 2, 3, 4, 5, 6, 7, 8, 9, 10, 11, 12, 13, 14, 15, 16, 17, 18, 19, 20, 21, 22, 23, 24, 25, 26, 27, 28, 29, 30, 31, 32, 33, 34, 35, 36, 37, 38, 39, 40, 41, 42, 43, 44, 45, 46, 47, 48, 49, 50, 51, 52, 53, 54, 55, 56, 57, 58, 59, 60, 61, 62, 63, 64, 65, 66, 67, 68, 69, 70, 71, 72, 73, 74, 75, 76, 77, 78, 79, 80, 81, 82, 83, 84, 85, 86, 87, 88, 89, 90, 91, 92, 93, 94, 95, 96, 97, 98, 99, 100, 101, 102, 103, 104, 105, 106, 107, 108, 109, 110, 111, 112, 113, 114, 115, 116, 117, 118, 119, 120, 121, 122, 123, 124, 125, 126, 127, 128, 129, 130, 131, 132, 133, 134, 135, 136, 137, 138, 139, 140, 141, 142, 143, 144, 145, 146, 147, 148, 149, 150, 151, 152, 153, 154, 155, 156],
      "LargestImagePixelValue": [3370, 3364, 3293, 3381, 3298, 3327, 3393, 3313, 3348, 3325, 3323, 3293, 3352, 3315, 3320, 3311, 3340, 3325, 3371, 3344, 3347, 3360, 3345, 3285, 3292, 3291, 3335, 3308, 3385, 3357, 3331, 3360, 3354, 3364, 3381, 3408, 3381, 3399, 3363, 3355, 3403, 3351, 3376, 3413, 3410, 3374, 3367, 3355, 3351, 3328, 3342, 3340, 3309, 3317, 3325, 3368, 3350, 3305, 3365, 3285, 3307, 3320, 3396, 3358, 3396, 3419, 3438, 3387, 3375, 3326, 3352, 3348, 3394, 3375, 3395, 3365, 3318, 3299, 3363, 3384, 3368, 3383, 3338, 3326, 3343, 3350, 3377, 3396, 3336, 3342, 3393, 3403, 3374, 3379, 3341, 3387, 3409, 3423, 3434, 3409, 3426, 3351, 3383, 3407, 3443, 3407, 3393, 3384, 3391, 3365, 3354, 3331, 3391, 3377, 3361, 3341, 3376, 3385, 3357, 3373, 3405, 3405, 3400, 3389, 3370, 3389, 3387, 3397, 3337, 3362, 3373, 3364, 3380, 3404, 3452, 3431, 3416, 3374, 3419, 3414, 3367, 3378, 3402, 3380, 3376, 3324, 3294, 3339, 3371, 3409, 3375, 3420, 3412, 3409, 3410, 3390],
      "WindowCenter": [781.0, 779.0, 778.0, 778.0, 778.0, 778.0, 778.0, 778.0, 778.0, 778.0, 778.0, 777.0, 778.0, 777.0, 778.0, 778.0, 778.0, 777.0, 778.0, 778.0, 778.0, 778.0, 778.0, 776.0, 776.0, 776.0, 777.0, 777.0, 778.0, 779.0, 779.0, 779.0, 779.0, 779.0, 778.0, 778.0, 779.0, 780.0, 779.0, 779.0, 780.0, 780.0, 779.0, 779.0, 779.0, 779.0, 778.0, 777.0, 778.0, 778.0, 777.0, 777.0, 776.0, 777.0, 777.0, 778.0, 778.0, 778.0, 778.0, 777.0, 777.0, 778.0, 779.0, 780.0, 780.0, 781.0, 781.0, 778.0, 778.0, 777.0, 778.0, 778.0, 777.0, 777.0, 777.0, 777.0, 776.0, 775.0, 775.0, 776.0, 776.0, 778.0, 777.0, 777.0, 777.0, 778.0, 778.0, 778.0, 777.0, 777.0, 778.0, 778.0, 778.0, 778.0, 778.0, 780.0, 780.0, 780.0, 780.0, 780.0, 779.0, 778.0, 778.0, 779.0, 779.0, 779.0, 779.0, 779.0, 779.0, 778.0, 777.0, 777.0, 778.0, 778.0, 777.0, 777.0, 778.0, 778.0, 778.0, 779.0, 779.0, 780.0, 779.0, 779.0, 778.0, 777.0, 777.0, 778.0, 777.0, 777.0, 777.0, 776.0, 778.0, 779.0, 780.0, 779.0, 779.0, 779.0, 780.0, 779.0, 777.0, 777.0, 777.0, 777.0, 777.0, 775.0, 775.0, 776.0, 778.0, 777.0, 779.0, 779.0, 779.0, 778.0, 778.0, 777.0],
      "WindowWidth": [1689.0, 1684.0, 1681.0, 1682.0, 1680.0, 1681.0, 1682.0, 1682.0, 1683.0, 1683.0, 1682.0, 1680.0, 1682.0, 1680.0, 1681.0, 1681.0, 1681.0, 1679.0, 1681.0, 1683.0, 1681.0, 1682.0, 1681.0, 1676.0, 1677.0, 1677.0, 1678.0, 1680.0, 1682.0, 1684.0, 1684.0, 1684.0, 1684.0, 1684.0, 1682.0, 1682.0, 1684.0, 1686.0, 1685.0, 1686.0, 1687.0, 1686.0, 1684.0, 1683.0, 1684.0, 1683.0, 1681.0, 1680.0, 1681.0, 1682.0, 1680.0, 1678.0, 1677.0, 1679.0, 1679.0, 1682.0, 1683.0, 1681.0, 1682.0, 1679.0, 1680.0, 1681.0, 1684.0, 1686.0, 1688.0, 1689.0, 1689.0, 1683.0, 1681.0, 1679.0, 1681.0, 1682.0, 1680.0, 1679.0, 1680.0, 1679.0, 1676.0, 1674.0, 1674.0, 1676.0, 1677.0, 1680.0, 1679.0, 1679.0, 1680.0, 1681.0, 1680.0, 1680.0, 1678.0, 1679.0, 1681.0, 1681.0, 1682.0, 1682.0, 1682.0, 1686.0, 1687.0, 1687.0, 1688.0, 1687.0, 1685.0, 1683.0, 1683.0, 1684.0, 1686.0, 1686.0, 1685.0, 1684.0, 1684.0, 1681.0, 1678.0, 1678.0, 1681.0, 1681.0, 1678.0, 1678.0, 1682.0, 1682.0, 1682.0, 1684.0, 1685.0, 1686.0, 1685.0, 1684.0, 1682.0, 1678.0, 1678.0, 1680.0, 1680.0, 1680.0, 1680.0, 1677.0, 1681.0, 1684.0, 1688.0, 1686.0, 1684.0, 1685.0, 1686.0, 1683.0, 1678.0, 1678.0, 1678.0, 1678.0, 1678.0, 1674.0, 1674.0, 1677.0, 1681.0, 1680.0, 1684.0, 1683.0, 1684.0, 1681.0, 1681.0, 1679.0]
    },
    "slices": {}
  }
}