{
  "AcquisitionMatrixPE": 100,
  "AcquisitionNumber": 1,
  "AcquisitionTime": "14:12:16.197500",
  "BandwidthPerPixelPhaseEncode": 18.519,
  "BaseResolution": 100,
  "BodyPartExamined": "BRAIN",
  "CoilCombinationMethod": "Sum of Squares",
  "ConsistencyInfo": "N4_VE11C_LATEST_20160120",
  "ConversionSoftware": "dcm2niix",
  "ConversionSoftwareVersion": "v1.0.20211006",
  "DerivedVendorReportedEchoSpacing": 0.000539986,
  "DeviceSerialNumber": "166078",
  "DwellTime": 2.1e-06,
  "EchoTime": 0.034,
  "EchoTrainLength": 100,
  "EffectiveEchoSpacing": 0.000539986,
  "FlipAngle": 90,
  "ImageOrientationPatientDICOM": [0.999976, 0.000814536, 0.00693358, -2.7569e-08, 0.993171, -0.116671],
  "ImageOrientationText": "Tra>Cor(-6.7)>Sag(0.4)",
  "ImageType": [
    "ORIGINAL",
    "PRIMARY",
    "M",
    "ND",
    "MOSAIC"
],
  "ImagingFrequency": 123.258,
  "InPlanePhaseEncodingDirectionDICOM": "COL",
  "InstitutionAddress": "Street StreetNo,Bei Jing,District,CN,ZIP",
  "InstitutionName": "BeiJing Normal University",
  "InstitutionalDepartmentName": "Department",
  "MRAcquisitionType": "2D",
  "MagneticFieldStrength": 3,
  "Manufacturer": "Siemens",
  "ManufacturersModelName": "Prisma",
  "Modality": "MR",
  "MultibandAccelerationFactor": 3,
  "PartialFourier": 1,
  "PatientPosition": "HFS",
  "PercentPhaseFOV": 100,
  "PercentSampling": 100,
  "PhaseEncodingDirection": "j-",
  "PhaseEncodingSteps": 100,
  "PhaseResolution": 1,
  "PixelBandwidth": 2380,
  "ProcedureStepDescription": "BNU_P2018_64CH^Zhen.ZongLei",
  "ProtocolName": "bold_100x100_s3_2x2x2_static_156",
  "PulseSequenceDetails": "%SiemensSeq%\\ep2d_bold",
  "ReceiveCoilActiveElements": "HC1-7;NC1",
  "ReceiveCoilName": "HeadNeck_64",
  "ReconMatrixPE": 100,
  "RefLinesPE": 32,
  "RepetitionTime": 2,
  "SAR": 0.0663888,
  "ScanOptions": "FS",
  "ScanningSequence": "EP",
  "SequenceName": "*epfid2d1_100",
  "SequenceVariant": "SK",
  "SeriesDescription": "bold_100x100_s3_2x2x2_static_156",
  "SeriesNumber": 16,
  "ShimSetting": [-5435, -11515, -1240, 303, -58, -263, -116, -6],
  "SliceThickness": 2,
  "SliceTiming": [1.485, 0, 0.99, 0.0825, 1.0725, 0.165, 1.155, 0.2475, 1.2375, 0.33, 1.32, 0.4125, 1.4025, 0.5775, 1.5675, 0.66, 1.65, 0.7425, 1.7325, 0.825, 1.815, 0.9075, 1.8975, 0.495, 1.485, 0, 0.99, 0.0825, 1.0725, 0.165, 1.155, 0.2475, 1.2375, 0.33, 1.32, 0.4125, 1.4025, 0.5775, 1.5675, 0.66, 1.65, 0.7425, 1.7325, 0.825, 1.815, 0.9075, 1.8975, 0.495, 1.485, 0, 0.99, 0.0825, 1.0725, 0.165, 1.155, 0.2475, 1.2375, 0.33, 1.32, 0.4125, 1.4025, 0.5775, 1.5675, 0.66, 1.65, 0.7425, 1.7325, 0.825, 1.815, 0.9075, 1.8975, 0.495],
  "SoftwareVersions": "syngo MR E11",
  "SpacingBetweenSlices": 2,
  "StationName": "AWP166078",
  "TaskName": "action",
  "TotalReadoutTime": 0.0534586,
  "TxRefAmp": 212.729,
  "dcmmeta_affine": [
    [-1.9999512434005737, -5.5138059451564914e-08, 0.01396252028644085, 100.85782623291016],
    [-0.0016290722414851189, 1.9863413572311401, -0.23333579301834106, -88.22382354736328],
    [0.013867158442735672, 0.23334148526191711, 1.9862929582595825, -70.30143737792969],
    [0.0, 0.0, 0.0, 1.0]
],
  "dcmmeta_reorient_transform": [
    [0.0, -1.0, 0.0, 99.0],
    [1.0, 0.0, 0.0, 0.0],
    [0.0, 0.0, 1.0, 0.0],
    [0.0, 0.0, 0.0, 1.0]
],
  "dcmmeta_shape": [100, 100, 72, 156],
  "dcmmeta_slice_dim": 2,
  "dcmmeta_version": 0.6,
  "global": {
    "const": {
      "AcquisitionMatrix": [100, 0, 0, 100],
      "AngioFlag": "N",
      "BitsAllocated": 16,
      "BitsStored": 12,
      "BodyPartExamined": "BRAIN",
      "Columns": 900,
      "EchoNumbers": 1,
      "EchoTime": 34.0,
      "EchoTrainLength": 100,
      "FlipAngle": 90.0,
      "HighBit": 11,
      "ImageOrientationPatient": [0.99997563070726, 0.0008145361468, 0.00693357934158, -2.756903e-08, 0.99317064931944, -0.116670738964],
      "ImagePositionPatient": [-900.83830557599, -903.61211190405, 40.589092921666],
      "ImageType": [
        "ORIGINAL",
        "PRIMARY",
        "M",
        "ND",
        "MOSAIC"
],
      "ImagedNucleus": "1H",
      "ImagingFrequency": 123.257691,
      "InPlanePhaseEncodingDirection": "COL",
      "MRAcquisitionType": "2D",
      "MagneticFieldStrength": 3.0,
      "Manufacturer": "SIEMENS",
      "ManufacturerModelName": "Prisma",
      "Modality": "MR",
      "NumberOfAverages": 1.0,
      "NumberOfPhaseEncodingSteps": 100,
      "PercentPhaseFieldOfView": 100.0,
      "PercentSampling": 100.0,
      "PerformedProcedureStepStartTime": "125430.952000",
      "PhotometricInterpretation": "MONOCHROME2",
      "PixelBandwidth": 2380.0,
      "PixelRepresentation": 0,
      "PixelSpacing": [2.0, 2.0],
      "ProtocolName": "bold_100x100_s3_2x2x2_static_156",
      "RepetitionTime": 2000.0,
      "Rows": 900,
      "SAR": 0.06638879303649,
      "SamplesPerPixel": 1,
      "ScanOptions": "FS",
      "ScanningSequence": "EP",
      "SequenceName": "*epfid2d1_100",
      "SequenceVariant": "SK",
      "SeriesDescription": "bold_100x100_s3_2x2x2_static_156",
      "SeriesNumber": 16,
      "SeriesTime": "141218.648000",
      "SliceLocation": -58.82262366712,
      "SliceThickness": 2.0,
      "SmallestImagePixelValue": 0,
      "SoftwareVersions": "syngo MR E11",
      "SpacingBetweenSlices": 2.0000000397734,
      "SpecificCharacterSet": "ISO_IR 100",
      "StudyID": "1",
      "StudyTime": "125430.798000",
      "TransmitCoilName": "Body",
      "VariableFlipAngleFlag": "N",
      "WindowCenterWidthExplanation": "Algo1",
      "dBdt": 0.0},
    "slices": {}
  },
  "time": {
    "samples": {
      "AcquisitionNumber": [1, 2, 3, 4, 5, 6, 7, 8, 9, 10, 11, 12, 13, 14, 15, 16, 17, 18, 19, 20, 21, 22, 23, 24, 25, 26, 27, 28, 29, 30, 31, 32, 33, 34, 35, 36, 37, 38, 39, 40, 41, 42, 43, 44, 45, 46, 47, 48, 49, 50, 51, 52, 53, 54, 55, 56, 57, 58, 59, 60, 61, 62, 63, 64, 65, 66, 67, 68, 69, 70, 71, 72, 73, 74, 75, 76, 77, 78, 79, 80, 81, 82, 83, 84, 85, 86, 87, 88, 89, 90, 91, 92, 93, 94, 95, 96, 97, 98, 99, 100, 101, 102, 103, 104, 105, 106, 107, 108, 109, 110, 111, 112, 113, 114, 115, 116, 117, 118, 119, 120, 121, 122, 123, 124, 125, 126, 127, 128, 129, 130, 131, 132, 133, 134, 135, 136, 137, 138, 139, 140, 141, 142, 143, 144, 145, 146, 147, 148, 149, 150, 151, 152, 153, 154, 155, 156],
      "AcquisitionTime": ["141216.197500", "141218.197500", "141220.197500", "141222.197500", "141224.197500", "141226.197500", "141228.197500", "141230.197500", "141232.197500", "141234.197500", "141236.197500", "141238.197500", "141240.197500", "141242.197500", "141244.197500", "141246.197500", "141248.197500", "141250.197500", "141252.197500", "141254.197500", "141256.197500", "141258.197500", "141300.197500", "141302.197500", "141304.197500", "141306.197500", "141308.197500", "141310.197500", "141312.197500", "141314.197500", "141316.197500", "141318.197500", "141320.197500", "141322.197500", "141324.197500", "141326.197500", "141328.197500", "141330.197500", "141332.197500", "141334.197500", "141336.197500", "141338.197500", "141340.197500", "141342.197500", "141344.197500", "141346.197500", "141348.197500", "141350.197500", "141352.197500", "141354.197500", "141356.197500", "141358.197500", "141400.197500", "141402.197500", "141404.197500", "141406.197500", "141408.197500", "141410.197500", "141412.197500", "141414.197500", "141416.197500", "141418.197500", "141420.197500", "141422.197500", "141424.197500", "141426.197500", "141428.197500", "141430.197500", "141432.197500", "141434.197500", "141436.197500", "141438.197500", "141440.197500", "141442.197500", "141444.197500", "141446.197500", "141448.197500", "141450.197500", "141452.197500", "141454.197500", "141456.197500", "141458.197500", "141500.197500", "141502.197500", "141504.197500", "141506.197500", "141508.197500", "141510.197500", "141512.197500", "141514.197500", "141516.197500", "141518.197500", "141520.197500", "141522.197500", "141524.197500", "141526.197500", "141528.197500", "141530.197500", "141532.197500", "141534.197500", "141536.197500", "141538.197500", "141540.197500", "141542.197500", "141544.197500", "141546.197500", "141548.197500", "141550.197500", "141552.197500", "141554.197500", "141556.197500", "141558.197500", "141600.197500", "141602.197500", "141604.197500", "141606.197500", "141608.197500", "141610.197500", "141612.197500", "141614.197500", "141616.197500", "141618.197500", "141620.197500", "141622.197500", "141624.197500", "141626.197500", "141628.197500", "141630.197500", "141632.197500", "141634.197500", "141636.197500", "141638.197500", "141640.197500", "141642.197500", "141644.197500", "141646.197500", "141648.197500", "141650.197500", "141652.197500", "141654.197500", "141656.197500", "141658.197500", "141700.197500", "141702.197500", "141704.197500", "141706.197500", "141708.197500", "141710.197500", "141712.197500", "141714.197500", "141716.197500", "141718.197500", "141720.197500", "141722.197500", "141724.197500", "141726.197500"],
      "ContentTime": ["141218.651000", "141220.146000", "141222.147000", "141224.147000", "141226.147000", "141228.146000", "141230.146000", "141232.147000", "141234.146000", "141236.147000", "141238.147000", "141240.146000", "141242.147000", "141244.146000", "141246.147000", "141248.146000", "141250.147000", "141252.146000", "141254.147000", "141256.146000", "141258.147000", "141300.147000", "141302.147000", "141304.147000", "141306.147000", "141308.147000", "141310.146000", "141312.147000", "141314.146000", "141316.147000", "141318.147000", "141320.147000", "141322.146000", "141324.148000", "141326.146000", "141328.146000", "141330.147000", "141332.146000", "141334.146000", "141336.147000", "141338.147000", "141340.146000", "141342.147000", "141344.146000", "141346.146000", "141348.146000", "141350.147000", "141352.147000", "141354.147000", "141356.147000", "141358.147000", "141400.147000", "141402.146000", "141404.146000", "141406.147000", "141408.146000", "141410.147000", "141412.146000", "141414.147000", "141416.146000", "141418.146000", "141420.146000", "141422.147000", "141424.147000", "141426.146000", "141428.147000", "141430.147000", "141432.147000", "141434.147000", "141436.146000", "141438.146000", "141440.146000", "141442.146000", "141444.146000", "141446.146000", "141448.146000", "141450.146000", "141452.147000", "141454.146000", "141456.146000", "141458.147000", "141500.147000", "141502.146000", "141504.146000", "141506.146000", "141508.146000", "141510.147000", "141512.148000", "141514.148000", "141516.147000", "141518.147000", "141520.147000", "141522.146000", "141524.147000", "141526.146000", "141528.147000", "141530.147000", "141532.147000", "141534.147000", "141536.147000", "141538.147000", "141540.147000", "141542.146000", "141544.148000", "141546.146000", "141548.146000", "141550.147000", "141552.147000", "141554.147000", "141556.147000", "141558.147000", "141600.146000", "141602.148000", "141604.147000", "141606.147000", "141608.147000", "141610.146000", "141612.147000", "141614.147000", "141616.146000", "141618.147000", "141620.148000", "141622.147000", "141624.147000", "141626.147000", "141628.147000", "141630.146000", "141632.147000", "141634.146000", "141636.147000", "141638.147000", "141640.146000", "141642.146000", "141644.147000", "141646.147000", "141648.146000", "141650.147000", "141652.147000", "141654.148000", "141656.146000", "141658.146000", "141700.146000", "141702.147000", "141704.147000", "141706.147000", "141708.146000", "141710.147000", "141712.148000", "141714.147000", "141716.146000", "141718.147000", "141720.146000", "141722.147000", "141724.147000", "141726.147000", "141727.832000"],
      "InstanceCreationTime": ["141218.651000", "141220.146000", "141222.147000", "141224.147000", "141226.147000", "141228.146000", "141230.146000", "141232.147000", "141234.146000", "141236.147000", "141238.147000", "141240.146000", "141242.147000", "141244.146000", "141246.147000", "141248.146000", "141250.147000", "141252.146000", "141254.147000", "141256.146000", "141258.147000", "141300.147000", "141302.147000", "141304.147000", "141306.147000", "141308.147000", "141310.146000", "141312.147000", "141314.146000", "141316.147000", "141318.147000", "141320.147000", "141322.146000", "141324.148000", "141326.146000", "141328.146000", "141330.147000", "141332.146000", "141334.146000", "141336.147000", "141338.147000", "141340.146000", "141342.147000", "141344.146000", "141346.146000", "141348.146000", "141350.147000", "141352.147000", "141354.147000", "141356.147000", "141358.147000", "141400.147000", "141402.146000", "141404.146000", "141406.147000", "141408.146000", "141410.147000", "141412.146000", "141414.147000", "141416.146000", "141418.146000", "141420.146000", "141422.147000", "141424.147000", "141426.146000", "141428.147000", "141430.147000", "141432.147000", "141434.147000", "141436.146000", "141438.146000", "141440.146000", "141442.146000", "141444.146000", "141446.146000", "141448.146000", "141450.146000", "141452.147000", "141454.146000", "141456.146000", "141458.147000", "141500.147000", "141502.146000", "141504.146000", "141506.146000", "141508.146000", "141510.147000", "141512.148000", "141514.148000", "141516.147000", "141518.147000", "141520.147000", "141522.146000", "141524.147000", "141526.146000", "141528.147000", "141530.147000", "141532.147000", "141534.147000", "141536.147000", "141538.147000", "141540.147000", "141542.146000", "141544.148000", "141546.146000", "141548.146000", "141550.147000", "141552.147000", "141554.147000", "141556.147000", "141558.147000", "141600.146000", "141602.148000", "141604.147000", "141606.147000", "141608.147000", "141610.146000", "141612.147000", "141614.147000", "141616.146000", "141618.147000", "141620.148000", "141622.147000", "141624.147000", "141626.147000", "141628.147000", "141630.146000", "141632.147000", "141634.146000", "141636.147000", "141638.147000", "141640.146000", "141642.146000", "141644.147000", "141646.147000", "141648.146000", "141650.147000", "141652.147000", "141654.148000", "141656.146000", "141658.146000", "141700.146000", "141702.147000", "141704.147000", "141706.147000", "141708.146000", "141710.147000", "141712.148000", "141714.147000", "141716.146000", "141718.147000", "141720.146000", "141722.147000", "141724.147000", "141726.147000", "141727.832000"],
      "InstanceNumber": [1, 2, 3, 4, 5, 6, 7, 8, 9, 10, 11, 12, 13, 14, 15, 16, 17, 18, 19, 20, 21, 22, 23, 24, 25, 26, 27, 28, 29, 30, 31, 32, 33, 34, 35, 36, 37, 38, 39, 40, 41, 42, 43, 44, 45, 46, 47, 48, 49, 50, 51, 52, 53, 54, 55, 56, 57, 58, 59, 60, 61, 62, 63, 64, 65, 66, 67, 68, 69, 70, 71, 72, 73, 74, 75, 76, 77, 78, 79, 80, 81, 82, 83, 84, 85, 86, 87, 88, 89, 90, 91, 92, 93, 94, 95, 96, 97, 98, 99, 100, 101, 102, 103, 104, 105, 106, 107, 108, 109, 110, 111, 112, 113, 114, 115, 116, 117, 118, 119, 120, 121, 122, 123, 124, 125, 126, 127, 128, 129, 130, 131, 132, 133, 134, 135, 136, 137, 138, 139, 140, 141, 142, 143, 144, 145, 146, 147, 148, 149, 150, 151, 152, 153, 154, 155, 156],
      "LargestImagePixelValue": [3385, 3339, 3348, 3284, 3363, 3313, 3342, 3309, 3303, 3383, 3318, 3334, 3285, 3348, 3257, 3341, 3291, 3320, 3361, 3290, 3300, 3332, 3331, 3286, 3255, 3270, 3349, 3296, 3301, 3322, 3307, 3329, 3271, 3261, 3255, 3262, 3272, 3247, 3271, 3261, 3341, 3270, 3298, 3275, 3333, 3275, 3290, 3250, 3265, 3242, 3286, 3243, 3217, 3214, 3229, 3243, 3263, 3301, 3338, 3342, 3324, 3279, 3291, 3294, 3299, 3276, 3285, 3345, 3368, 3359, 3302, 3322, 3333, 3367, 3340, 3354, 3380, 3296, 3283, 3297, 3328, 3290, 3269, 3212, 3210, 3253, 3296, 3330, 3355, 3337, 3297, 3262, 3280, 3349, 3357, 3400, 3396, 3375, 3413, 3415, 3417, 3364, 3327, 3319, 3342, 3338, 3324, 3320, 3333, 3333, 3296, 3338, 3371, 3380, 3358, 3301, 3282, 3282, 3258, 3282, 3311, 3313, 3322, 3281, 3281, 3281, 3397, 3409, 3436, 3369, 3316, 3324, 3321, 3349, 3362, 3339, 3281, 3294, 3290, 3321, 3336, 3360, 3345, 3292, 3328, 3307, 3296, 3354, 3324, 3290, 3213, 3273, 3364, 3333, 3306, 3283],
      "WindowCenter": [782.0, 780.0, 779.0, 778.0, 778.0, 778.0, 778.0, 777.0, 778.0, 778.0, 778.0, 778.0, 778.0, 779.0, 779.0, 779.0, 780.0, 779.0, 779.0, 779.0, 779.0, 779.0, 779.0, 779.0, 779.0, 780.0, 781.0, 780.0, 780.0, 781.0, 780.0, 779.0, 780.0, 779.0, 779.0, 779.0, 779.0, 779.0, 779.0, 779.0, 780.0, 778.0, 779.0, 779.0, 779.0, 778.0, 778.0, 778.0, 778.0, 778.0, 777.0, 777.0, 778.0, 778.0, 778.0, 778.0, 779.0, 779.0, 779.0, 779.0, 779.0, 779.0, 779.0, 780.0, 780.0, 780.0, 780.0, 781.0, 782.0, 782.0, 781.0, 781.0, 781.0, 782.0, 782.0, 781.0, 782.0, 783.0, 782.0, 782.0, 781.0, 780.0, 778.0, 777.0, 778.0, 779.0, 780.0, 782.0, 782.0, 782.0, 780.0, 779.0, 780.0, 781.0, 781.0, 782.0, 782.0, 782.0, 783.0, 782.0, 783.0, 782.0, 780.0, 780.0, 781.0, 781.0, 781.0, 781.0, 781.0, 781.0, 781.0, 781.0, 782.0, 782.0, 781.0, 781.0, 780.0, 780.0, 779.0, 780.0, 781.0, 780.0, 780.0, 781.0, 781.0, 781.0, 783.0, 785.0, 786.0, 783.0, 781.0, 780.0, 780.0, 781.0, 781.0, 781.0, 781.0, 780.0, 780.0, 780.0, 781.0, 781.0, 781.0, 780.0, 781.0, 781.0, 780.0, 780.0, 780.0, 780.0, 779.0, 779.0, 779.0, 779.0, 778.0, 778.0],
      "WindowWidth": [1692.0, 1688.0, 1684.0, 1680.0, 1681.0, 1680.0, 1680.0, 1679.0, 1681.0, 1682.0, 1680.0, 1682.0, 1682.0, 1683.0, 1683.0, 1684.0, 1685.0, 1685.0, 1685.0, 1685.0, 1684.0, 1684.0, 1683.0, 1683.0, 1685.0, 1686.0, 1688.0, 1687.0, 1687.0, 1689.0, 1687.0, 1685.0, 1686.0, 1684.0, 1684.0, 1685.0, 1684.0, 1683.0, 1685.0, 1685.0, 1685.0, 1681.0, 1683.0, 1684.0, 1685.0, 1682.0, 1682.0, 1682.0, 1682.0, 1680.0, 1680.0, 1680.0, 1680.0, 1681.0, 1680.0, 1683.0, 1685.0, 1685.0, 1685.0, 1683.0, 1683.0, 1683.0, 1684.0, 1685.0, 1686.0, 1686.0, 1686.0, 1690.0, 1692.0, 1691.0, 1688.0, 1689.0, 1691.0, 1692.0, 1692.0, 1690.0, 1691.0, 1693.0, 1693.0, 1693.0, 1690.0, 1686.0, 1680.0, 1678.0, 1680.0, 1683.0, 1687.0, 1691.0, 1693.0, 1691.0, 1686.0, 1684.0, 1686.0, 1689.0, 1690.0, 1691.0, 1692.0, 1693.0, 1695.0, 1694.0, 1694.0, 1691.0, 1687.0, 1687.0, 1689.0, 1689.0, 1690.0, 1690.0, 1691.0, 1690.0, 1690.0, 1690.0, 1692.0, 1691.0, 1691.0, 1689.0, 1687.0, 1686.0, 1684.0, 1686.0, 1688.0, 1688.0, 1687.0, 1688.0, 1689.0, 1689.0, 1696.0, 1701.0, 1703.0, 1696.0, 1689.0, 1688.0, 1687.0, 1689.0, 1688.0, 1689.0, 1689.0, 1687.0, 1686.0, 1688.0, 1690.0, 1691.0, 1689.0, 1687.0, 1688.0, 1688.0, 1687.0, 1688.0, 1686.0, 1687.0, 1684.0, 1683.0, 1684.0, 1683.0, 1681.0, 1681.0]
    },
    "slices": {}
  }
}