{
  "AcquisitionMatrixPE": 100,
  "AcquisitionNumber": 1,
  "AcquisitionTime": "13:10:33.290000",
  "BandwidthPerPixelPhaseEncode": 18.519,
  "BaseResolution": 100,
  "BodyPartExamined": "BRAIN",
  "CoilCombinationMethod": "Sum of Squares",
  "ConsistencyInfo": "N4_VE11C_LATEST_20160120",
  "ConversionSoftware": "dcm2niix",
  "ConversionSoftwareVersion": "v1.0.20211006",
  "DerivedVendorReportedEchoSpacing": 0.000539986,
  "DeviceSerialNumber": "166078",
  "DwellTime": 2.1e-06,
  "EchoTime": 0.034,
  "EchoTrainLength": 100,
  "EffectiveEchoSpacing": 0.000539986,
  "FlipAngle": 90,
  "ImageOrientationPatientDICOM": [0.999976, 0.000814536, 0.00693358, -2.7569e-08, 0.993171, -0.116671],
  "ImageOrientationText": "Tra>Cor(-6.7)>Sag(0.4)",
  "ImageType": [
    "ORIGINAL",
    "PRIMARY",
    "M",
    "ND",
    "MOSAIC"
],
  "ImagingFrequency": 123.258,
  "InPlanePhaseEncodingDirectionDICOM": "COL",
  "InstitutionAddress": "Street StreetNo,Bei Jing,District,CN,ZIP",
  "InstitutionName": "BeiJing Normal University",
  "InstitutionalDepartmentName": "Department",
  "MRAcquisitionType": "2D",
  "MagneticFieldStrength": 3,
  "Manufacturer": "Siemens",
  "ManufacturersModelName": "Prisma",
  "Modality": "MR",
  "MultibandAccelerationFactor": 3,
  "PartialFourier": 1,
  "PatientPosition": "HFS",
  "PercentPhaseFOV": 100,
  "PercentSampling": 100,
  "PhaseEncodingDirection": "j-",
  "PhaseEncodingSteps": 100,
  "PhaseResolution": 1,
  "PixelBandwidth": 2380,
  "ProcedureStepDescription": "BNU_P2018_64CH^Zhen.ZongLei",
  "ProtocolName": "bold_100x100_s3_2x2x2_static_156",
  "PulseSequenceDetails": "%SiemensSeq%\\ep2d_bold",
  "ReceiveCoilActiveElements": "HC1-7;NC1",
  "ReceiveCoilName": "HeadNeck_64",
  "ReconMatrixPE": 100,
  "RefLinesPE": 32,
  "RepetitionTime": 2,
  "SAR": 0.0663888,
  "ScanOptions": "FS",
  "ScanningSequence": "EP",
  "SequenceName": "*epfid2d1_100",
  "SequenceVariant": "SK",
  "SeriesDescription": "bold_100x100_s3_2x2x2_static_156",
  "SeriesNumber": 4,
  "ShimSetting": [-5435, -11515, -1240, 303, -58, -263, -116, -6],
  "SliceThickness": 2,
  "SliceTiming": [1.485, 0, 0.99, 0.0825, 1.0725, 0.165, 1.155, 0.2475, 1.2375, 0.33, 1.32, 0.4125, 1.4025, 0.5775, 1.5675, 0.66, 1.65, 0.7425, 1.7325, 0.825, 1.815, 0.9075, 1.8975, 0.495, 1.485, 0, 0.99, 0.0825, 1.0725, 0.165, 1.155, 0.2475, 1.2375, 0.33, 1.32, 0.4125, 1.4025, 0.5775, 1.5675, 0.66, 1.65, 0.7425, 1.7325, 0.825, 1.815, 0.9075, 1.8975, 0.495, 1.485, 0, 0.99, 0.0825, 1.0725, 0.165, 1.155, 0.2475, 1.2375, 0.33, 1.32, 0.4125, 1.4025, 0.5775, 1.5675, 0.66, 1.65, 0.7425, 1.7325, 0.825, 1.815, 0.9075, 1.8975, 0.495],
  "SoftwareVersions": "syngo MR E11",
  "SpacingBetweenSlices": 2,
  "StationName": "AWP166078",
  "TaskName": "action",
  "TotalReadoutTime": 0.0534586,
  "TxRefAmp": 212.729,
  "dcmmeta_affine": [
    [-1.9999512434005737, -5.5138059451564914e-08, 0.01396252028644085, 100.85782623291016],
    [-0.0016290722414851189, 1.9863413572311401, -0.23333579301834106, -88.22382354736328],
    [0.013867158442735672, 0.23334148526191711, 1.9862929582595825, -70.30143737792969],
    [0.0, 0.0, 0.0, 1.0]
],
  "dcmmeta_reorient_transform": [
    [0.0, -1.0, 0.0, 99.0],
    [1.0, 0.0, 0.0, 0.0],
    [0.0, 0.0, 1.0, 0.0],
    [0.0, 0.0, 0.0, 1.0]
],
  "dcmmeta_shape": [100, 100, 72, 156],
  "dcmmeta_slice_dim": 2,
  "dcmmeta_version": 0.6,
  "global": {
    "const": {
      "AcquisitionMatrix": [100, 0, 0, 100],
      "AngioFlag": "N",
      "BitsAllocated": 16,
      "BitsStored": 12,
      "BodyPartExamined": "BRAIN",
      "Columns": 900,
      "EchoNumbers": 1,
      "EchoTime": 34.0,
      "EchoTrainLength": 100,
      "FlipAngle": 90.0,
      "HighBit": 11,
      "ImageOrientationPatient": [0.99997563070726, 0.0008145361468, 0.00693357934158, -2.756903e-08, 0.99317064931944, -0.116670738964],
      "ImagePositionPatient": [-900.83830557599, -903.61211190405, 40.589092921666],
      "ImageType": [
        "ORIGINAL",
        "PRIMARY",
        "M",
        "ND",
        "MOSAIC"
],
      "ImagedNucleus": "1H",
      "ImagingFrequency": 123.257672,
      "InPlanePhaseEncodingDirection": "COL",
      "MRAcquisitionType": "2D",
      "MagneticFieldStrength": 3.0,
      "Manufacturer": "SIEMENS",
      "ManufacturerModelName": "Prisma",
      "Modality": "MR",
      "NumberOfAverages": 1.0,
      "NumberOfPhaseEncodingSteps": 100,
      "PercentPhaseFieldOfView": 100.0,
      "PercentSampling": 100.0,
      "PerformedProcedureStepStartTime": "125430.952000",
      "PhotometricInterpretation": "MONOCHROME2",
      "PixelBandwidth": 2380.0,
      "PixelRepresentation": 0,
      "PixelSpacing": [2.0, 2.0],
      "ProtocolName": "bold_100x100_s3_2x2x2_static_156",
      "RepetitionTime": 2000.0,
      "Rows": 900,
      "SAR": 0.06638879303649,
      "SamplesPerPixel": 1,
      "ScanOptions": "FS",
      "ScanningSequence": "EP",
      "SequenceName": "*epfid2d1_100",
      "SequenceVariant": "SK",
      "SeriesDescription": "bold_100x100_s3_2x2x2_static_156",
      "SeriesNumber": 4,
      "SeriesTime": "131035.391000",
      "SliceLocation": -58.82262366712,
      "SliceThickness": 2.0,
      "SmallestImagePixelValue": 0,
      "SoftwareVersions": "syngo MR E11",
      "SpacingBetweenSlices": 2.0000000397734,
      "SpecificCharacterSet": "ISO_IR 100",
      "StudyID": "1",
      "StudyTime": "125430.798000",
      "TransmitCoilName": "Body",
      "VariableFlipAngleFlag": "N",
      "WindowCenterWidthExplanation": "Algo1",
      "dBdt": 0.0},
    "slices": {}
  },
  "time": {
    "samples": {
      "AcquisitionNumber": [1, 2, 3, 4, 5, 6, 7, 8, 9, 10, 11, 12, 13, 14, 15, 16, 17, 18, 19, 20, 21, 22, 23, 24, 25, 26, 27, 28, 29, 30, 31, 32, 33, 34, 35, 36, 37, 38, 39, 40, 41, 42, 43, 44, 45, 46, 47, 48, 49, 50, 51, 52, 53, 54, 55, 56, 57, 58, 59, 60, 61, 62, 63, 64, 65, 66, 67, 68, 69, 70, 71, 72, 73, 74, 75, 76, 77, 78, 79, 80, 81, 82, 83, 84, 85, 86, 87, 88, 89, 90, 91, 92, 93, 94, 95, 96, 97, 98, 99, 100, 101, 102, 103, 104, 105, 106, 107, 108, 109, 110, 111, 112, 113, 114, 115, 116, 117, 118, 119, 120, 121, 122, 123, 124, 125, 126, 127, 128, 129, 130, 131, 132, 133, 134, 135, 136, 137, 138, 139, 140, 141, 142, 143, 144, 145, 146, 147, 148, 149, 150, 151, 152, 153, 154, 155, 156],
      "AcquisitionTime": ["131033.290000", "131035.290000", "131037.290000", "131039.290000", "131041.290000", "131043.290000", "131045.290000", "131047.290000", "131049.290000", "131051.290000", "131053.290000", "131055.290000", "131057.290000", "131059.290000", "131101.290000", "131103.290000", "131105.290000", "131107.290000", "131109.290000", "131111.290000", "131113.290000", "131115.290000", "131117.290000", "131119.290000", "131121.290000", "131123.290000", "131125.290000", "131127.290000", "131129.290000", "131131.290000", "131133.290000", "131135.290000", "131137.290000", "131139.290000", "131141.290000", "131143.290000", "131145.290000", "131147.290000", "131149.290000", "131151.290000", "131153.290000", "131155.290000", "131157.290000", "131159.290000", "131201.290000", "131203.290000", "131205.290000", "131207.290000", "131209.290000", "131211.290000", "131213.290000", "131215.290000", "131217.290000", "131219.290000", "131221.290000", "131223.290000", "131225.290000", "131227.290000", "131229.290000", "131231.290000", "131233.290000", "131235.290000", "131237.290000", "131239.290000", "131241.290000", "131243.290000", "131245.290000", "131247.290000", "131249.290000", "131251.290000", "131253.290000", "131255.290000", "131257.290000", "131259.290000", "131301.290000", "131303.290000", "131305.290000", "131307.290000", "131309.290000", "131311.290000", "131313.290000", "131315.290000", "131317.290000", "131319.290000", "131321.290000", "131323.290000", "131325.290000", "131327.290000", "131329.290000", "131331.290000", "131333.290000", "131335.290000", "131337.290000", "131339.290000", "131341.290000", "131343.290000", "131345.290000", "131347.290000", "131349.290000", "131351.290000", "131353.290000", "131355.290000", "131357.290000", "131359.290000", "131401.290000", "131403.290000", "131405.290000", "131407.290000", "131409.290000", "131411.290000", "131413.290000", "131415.290000", "131417.290000", "131419.290000", "131421.290000", "131423.290000", "131425.290000", "131427.290000", "131429.290000", "131431.290000", "131433.290000", "131435.290000", "131437.290000", "131439.290000", "131441.290000", "131443.290000", "131445.290000", "131447.290000", "131449.290000", "131451.290000", "131453.290000", "131455.290000", "131457.290000", "131459.290000", "131501.290000", "131503.290000", "131505.290000", "131507.290000", "131509.290000", "131511.290000", "131513.290000", "131515.290000", "131517.290000", "131519.290000", "131521.290000", "131523.290000", "131525.290000", "131527.290000", "131529.290000", "131531.290000", "131533.290000", "131535.290000", "131537.290000", "131539.290000", "131541.290000", "131543.290000"],
      "ContentTime": ["131035.402000", "131036.890000", "131038.890000", "131040.890000", "131042.890000", "131044.891000", "131046.891000", "131048.891000", "131050.890000", "131052.891000", "131054.890000", "131056.891000", "131058.890000", "131100.890000", "131102.890000", "131104.891000", "131106.891000", "131108.891000", "131110.890000", "131112.891000", "131114.890000", "131116.890000", "131118.890000", "131120.890000", "131122.891000", "131124.890000", "131126.890000", "131128.890000", "131130.890000", "131132.890000", "131134.891000", "131136.889000", "131138.890000", "131140.891000", "131142.890000", "131144.890000", "131146.890000", "131148.890000", "131150.891000", "131152.890000", "131154.890000", "131156.890000", "131158.890000", "131200.890000", "131202.890000", "131204.890000", "131206.890000", "131208.890000", "131210.890000", "131212.891000", "131214.890000", "131216.891000", "131218.890000", "131220.890000", "131222.890000", "131224.891000", "131226.890000", "131228.890000", "131230.891000", "131232.890000", "131234.891000", "131236.890000", "131238.890000", "131240.890000", "131242.890000", "131244.890000", "131246.890000", "131248.890000", "131250.890000", "131252.891000", "131254.891000", "131256.891000", "131258.891000", "131300.891000", "131302.890000", "131304.891000", "131306.891000", "131308.890000", "131310.891000", "131312.891000", "131314.890000", "131316.890000", "131318.890000", "131320.891000", "131322.891000", "131324.890000", "131326.891000", "131328.891000", "131330.890000", "131332.891000", "131334.890000", "131336.891000", "131338.889000", "131340.891000", "131342.890000", "131344.891000", "131346.890000", "131348.890000", "131350.891000", "131352.890000", "131354.890000", "131356.890000", "131358.891000", "131400.891000", "131402.890000", "131404.890000", "131406.891000", "131408.890000", "131410.890000", "131412.890000", "131414.890000", "131416.891000", "131418.891000", "131420.891000", "131422.891000", "131424.891000", "131426.891000", "131428.891000", "131430.890000", "131432.891000", "131434.891000", "131436.890000", "131438.891000", "131440.890000", "131442.890000", "131444.891000", "131446.891000", "131448.889000", "131450.891000", "131452.891000", "131454.891000", "131456.890000", "131458.891000", "131500.890000", "131502.890000", "131504.890000", "131506.889000", "131508.890000", "131510.891000", "131512.891000", "131514.890000", "131516.890000", "131518.890000", "131520.891000", "131522.890000", "131524.891000", "131526.891000", "131528.890000", "131530.891000", "131532.890000", "131534.890000", "131536.890000", "131538.890000", "131540.890000", "131542.890000", "131544.644000"],
      "InstanceCreationTime": ["131035.402000", "131036.890000", "131038.890000", "131040.890000", "131042.890000", "131044.891000", "131046.891000", "131048.891000", "131050.890000", "131052.891000", "131054.890000", "131056.891000", "131058.890000", "131100.890000", "131102.890000", "131104.891000", "131106.891000", "131108.891000", "131110.890000", "131112.891000", "131114.890000", "131116.890000", "131118.890000", "131120.890000", "131122.891000", "131124.890000", "131126.890000", "131128.890000", "131130.890000", "131132.890000", "131134.891000", "131136.889000", "131138.890000", "131140.891000", "131142.890000", "131144.890000", "131146.890000", "131148.890000", "131150.891000", "131152.890000", "131154.890000", "131156.890000", "131158.890000", "131200.890000", "131202.890000", "131204.890000", "131206.890000", "131208.890000", "131210.890000", "131212.891000", "131214.890000", "131216.891000", "131218.890000", "131220.890000", "131222.890000", "131224.891000", "131226.890000", "131228.890000", "131230.891000", "131232.890000", "131234.891000", "131236.890000", "131238.890000", "131240.890000", "131242.890000", "131244.890000", "131246.890000", "131248.890000", "131250.890000", "131252.891000", "131254.891000", "131256.891000", "131258.891000", "131300.891000", "131302.890000", "131304.891000", "131306.891000", "131308.890000", "131310.891000", "131312.891000", "131314.890000", "131316.890000", "131318.890000", "131320.891000", "131322.891000", "131324.890000", "131326.891000", "131328.891000", "131330.890000", "131332.891000", "131334.890000", "131336.891000", "131338.889000", "131340.891000", "131342.890000", "131344.891000", "131346.890000", "131348.890000", "131350.891000", "131352.890000", "131354.890000", "131356.890000", "131358.891000", "131400.891000", "131402.890000", "131404.890000", "131406.891000", "131408.890000", "131410.890000", "131412.890000", "131414.890000", "131416.891000", "131418.891000", "131420.891000", "131422.891000", "131424.891000", "131426.891000", "131428.891000", "131430.890000", "131432.891000", "131434.891000", "131436.890000", "131438.891000", "131440.890000", "131442.890000", "131444.891000", "131446.891000", "131448.889000", "131450.891000", "131452.891000", "131454.891000", "131456.890000", "131458.891000", "131500.890000", "131502.890000", "131504.890000", "131506.889000", "131508.890000", "131510.891000", "131512.891000", "131514.890000", "131516.890000", "131518.890000", "131520.891000", "131522.890000", "131524.891000", "131526.891000", "131528.890000", "131530.891000", "131532.890000", "131534.890000", "131536.890000", "131538.890000", "131540.890000", "131542.890000", "131544.644000"],
      "InstanceNumber": [1, 2, 3, 4, 5, 6, 7, 8, 9, 10, 11, 12, 13, 14, 15, 16, 17, 18, 19, 20, 21, 22, 23, 24, 25, 26, 27, 28, 29, 30, 31, 32, 33, 34, 35, 36, 37, 38, 39, 40, 41, 42, 43, 44, 45, 46, 47, 48, 49, 50, 51, 52, 53, 54, 55, 56, 57, 58, 59, 60, 61, 62, 63, 64, 65, 66, 67, 68, 69, 70, 71, 72, 73, 74, 75, 76, 77, 78, 79, 80, 81, 82, 83, 84, 85, 86, 87, 88, 89, 90, 91, 92, 93, 94, 95, 96, 97, 98, 99, 100, 101, 102, 103, 104, 105, 106, 107, 108, 109, 110, 111, 112, 113, 114, 115, 116, 117, 118, 119, 120, 121, 122, 123, 124, 125, 126, 127, 128, 129, 130, 131, 132, 133, 134, 135, 136, 137, 138, 139, 140, 141, 142, 143, 144, 145, 146, 147, 148, 149, 150, 151, 152, 153, 154, 155, 156],
      "LargestImagePixelValue": [3278, 3209, 3245, 3244, 3251, 3274, 3181, 3281, 3172, 3261, 3228, 3266, 3260, 3249, 3273, 3252, 3306, 3226, 3297, 3240, 3289, 3286, 3280, 3265, 3270, 3219, 3309, 3271, 3294, 3307, 3234, 3273, 3256, 3248, 3285, 3228, 3273, 3311, 3241, 3284, 3258, 3295, 3306, 3296, 3323, 3250, 3301, 3300, 3329, 3295, 3246, 3326, 3287, 3306, 3311, 3229, 3308, 3292, 3255, 3305, 3307, 3288, 3326, 3296, 3257, 3306, 3256, 3276, 3294, 3310, 3300, 3287, 3312, 3279, 3293, 3326, 3311, 3299, 3327, 3292, 3358, 3280, 3347, 3303, 3326, 3355, 3309, 3342, 3326, 3309, 3331, 3282, 3304, 3339, 3281, 3314, 3293, 3346, 3348, 3324, 3339, 3357, 3306, 3345, 3328, 3320, 3356, 3347, 3327, 3369, 3327, 3326, 3344, 3327, 3341, 3327, 3306, 3344, 3282, 3320, 3357, 3289, 3353, 3295, 3332, 3300, 3340, 3334, 3305, 3327, 3350, 3314, 3348, 3278, 3362, 3316, 3363, 3359, 3349, 3363, 3333, 3344, 3386, 3325, 3342, 3329, 3332, 3347, 3328, 3370, 3360, 3362, 3371, 3382, 3359, 3347],
      "WindowCenter": [777.0, 775.0, 774.0, 774.0, 774.0, 774.0, 773.0, 773.0, 773.0, 774.0, 774.0, 774.0, 774.0, 774.0, 774.0, 773.0, 773.0, 773.0, 774.0, 774.0, 774.0, 774.0, 774.0, 773.0, 773.0, 773.0, 774.0, 775.0, 775.0, 775.0, 774.0, 773.0, 773.0, 772.0, 773.0, 772.0, 773.0, 773.0, 773.0, 773.0, 773.0, 773.0, 773.0, 773.0, 773.0, 773.0, 773.0, 774.0, 774.0, 773.0, 772.0, 773.0, 774.0, 774.0, 774.0, 772.0, 773.0, 774.0, 774.0, 774.0, 774.0, 774.0, 774.0, 774.0, 773.0, 773.0, 772.0, 772.0, 773.0, 774.0, 773.0, 773.0, 774.0, 773.0, 773.0, 773.0, 774.0, 774.0, 774.0, 774.0, 775.0, 774.0, 775.0, 774.0, 773.0, 773.0, 773.0, 774.0, 773.0, 773.0, 773.0, 773.0, 773.0, 774.0, 773.0, 774.0, 774.0, 774.0, 775.0, 775.0, 775.0, 776.0, 774.0, 773.0, 773.0, 774.0, 775.0, 775.0, 775.0, 775.0, 775.0, 775.0, 775.0, 775.0, 775.0, 774.0, 773.0, 774.0, 773.0, 774.0, 774.0, 774.0, 775.0, 774.0, 775.0, 774.0, 774.0, 774.0, 774.0, 774.0, 774.0, 774.0, 774.0, 773.0, 775.0, 775.0, 776.0, 776.0, 775.0, 775.0, 774.0, 775.0, 774.0, 774.0, 774.0, 774.0, 774.0, 775.0, 775.0, 775.0, 775.0, 774.0, 775.0, 775.0, 775.0, 775.0],
      "WindowWidth": [1683.0, 1677.0, 1676.0, 1675.0, 1675.0, 1674.0, 1671.0, 1672.0, 1671.0, 1674.0, 1674.0, 1675.0, 1674.0, 1674.0, 1675.0, 1673.0, 1672.0, 1672.0, 1674.0, 1674.0, 1675.0, 1674.0, 1674.0, 1673.0, 1673.0, 1673.0, 1675.0, 1676.0, 1678.0, 1678.0, 1675.0, 1673.0, 1671.0, 1670.0, 1671.0, 1670.0, 1671.0, 1672.0, 1671.0, 1672.0, 1671.0, 1672.0, 1671.0, 1672.0, 1672.0, 1671.0, 1673.0, 1673.0, 1674.0, 1672.0, 1670.0, 1673.0, 1673.0, 1674.0, 1673.0, 1670.0, 1672.0, 1674.0, 1674.0, 1675.0, 1675.0, 1673.0, 1674.0, 1674.0, 1672.0, 1672.0, 1669.0, 1669.0, 1671.0, 1674.0, 1673.0, 1673.0, 1673.0, 1671.0, 1672.0, 1673.0, 1673.0, 1674.0, 1674.0, 1674.0, 1675.0, 1675.0, 1676.0, 1674.0, 1670.0, 1671.0, 1670.0, 1673.0, 1673.0, 1672.0, 1672.0, 1670.0, 1671.0, 1673.0, 1672.0, 1673.0, 1673.0, 1675.0, 1675.0, 1676.0, 1677.0, 1678.0, 1674.0, 1672.0, 1671.0, 1674.0, 1676.0, 1677.0, 1677.0, 1678.0, 1676.0, 1675.0, 1676.0, 1676.0, 1676.0, 1673.0, 1672.0, 1672.0, 1671.0, 1673.0, 1674.0, 1674.0, 1676.0, 1675.0, 1676.0, 1674.0, 1675.0, 1674.0, 1673.0, 1675.0, 1675.0, 1673.0, 1673.0, 1671.0, 1675.0, 1676.0, 1678.0, 1679.0, 1676.0, 1676.0, 1675.0, 1675.0, 1675.0, 1673.0, 1673.0, 1674.0, 1675.0, 1675.0, 1675.0, 1676.0, 1675.0, 1674.0, 1675.0, 1676.0, 1676.0, 1675.0]
    },
    "slices": {}
  }
}