{
  "AcquisitionMatrixPE": 100,
  "AcquisitionNumber": 1,
  "AcquisitionTime": "13:33:42.250000",
  "BandwidthPerPixelPhaseEncode": 18.519,
  "BaseResolution": 100,
  "BodyPartExamined": "BRAIN",
  "CoilCombinationMethod": "Sum of Squares",
  "ConsistencyInfo": "N4_VE11C_LATEST_20160120",
  "ConversionSoftware": "dcm2niix",
  "ConversionSoftwareVersion": "v1.0.20211006",
  "DerivedVendorReportedEchoSpacing": 0.000539986,
  "DeviceSerialNumber": "166078",
  "DwellTime": 2.1e-06,
  "EchoTime": 0.034,
  "EchoTrainLength": 100,
  "EffectiveEchoSpacing": 0.000539986,
  "FlipAngle": 90,
  "ImageOrientationPatientDICOM": [0.999976, 0.000814536, 0.00693358, -2.7569e-08, 0.993171, -0.116671],
  "ImageOrientationText": "Tra>Cor(-6.7)>Sag(0.4)",
  "ImageType": [
    "ORIGINAL",
    "PRIMARY",
    "M",
    "ND",
    "MOSAIC"
],
  "ImagingFrequency": 123.258,
  "InPlanePhaseEncodingDirectionDICOM": "COL",
  "InstitutionAddress": "Street StreetNo,Bei Jing,District,CN,ZIP",
  "InstitutionName": "BeiJing Normal University",
  "InstitutionalDepartmentName": "Department",
  "MRAcquisitionType": "2D",
  "MagneticFieldStrength": 3,
  "Manufacturer": "Siemens",
  "ManufacturersModelName": "Prisma",
  "Modality": "MR",
  "MultibandAccelerationFactor": 3,
  "PartialFourier": 1,
  "PatientPosition": "HFS",
  "PercentPhaseFOV": 100,
  "PercentSampling": 100,
  "PhaseEncodingDirection": "j-",
  "PhaseEncodingSteps": 100,
  "PhaseResolution": 1,
  "PixelBandwidth": 2380,
  "ProcedureStepDescription": "BNU_P2018_64CH^Zhen.ZongLei",
  "ProtocolName": "bold_100x100_s3_2x2x2_static_156",
  "PulseSequenceDetails": "%SiemensSeq%\\ep2d_bold",
  "ReceiveCoilActiveElements": "HC1-7;NC1",
  "ReceiveCoilName": "HeadNeck_64",
  "ReconMatrixPE": 100,
  "RefLinesPE": 32,
  "RepetitionTime": 2,
  "SAR": 0.0663888,
  "ScanOptions": "FS",
  "ScanningSequence": "EP",
  "SequenceName": "*epfid2d1_100",
  "SequenceVariant": "SK",
  "SeriesDescription": "bold_100x100_s3_2x2x2_static_156",
  "SeriesNumber": 8,
  "ShimSetting": [-5435, -11515, -1240, 303, -58, -263, -116, -6],
  "SliceThickness": 2,
  "SliceTiming": [1.485, 0, 0.99, 0.0825, 1.0725, 0.165, 1.155, 0.2475, 1.2375, 0.33, 1.32, 0.4125, 1.4025, 0.5775, 1.5675, 0.66, 1.65, 0.7425, 1.7325, 0.825, 1.815, 0.9075, 1.8975, 0.495, 1.485, 0, 0.99, 0.0825, 1.0725, 0.165, 1.155, 0.2475, 1.2375, 0.33, 1.32, 0.4125, 1.4025, 0.5775, 1.5675, 0.66, 1.65, 0.7425, 1.7325, 0.825, 1.815, 0.9075, 1.8975, 0.495, 1.485, 0, 0.99, 0.0825, 1.0725, 0.165, 1.155, 0.2475, 1.2375, 0.33, 1.32, 0.4125, 1.4025, 0.5775, 1.5675, 0.66, 1.65, 0.7425, 1.7325, 0.825, 1.815, 0.9075, 1.8975, 0.495],
  "SoftwareVersions": "syngo MR E11",
  "SpacingBetweenSlices": 2,
  "StationName": "AWP166078",
  "TaskName": "action",
  "TotalReadoutTime": 0.0534586,
  "TxRefAmp": 212.729,
  "dcmmeta_affine": [
    [-1.9999512434005737, -5.5138059451564914e-08, 0.01396252028644085, 100.85782623291016],
    [-0.0016290722414851189, 1.9863413572311401, -0.23333579301834106, -88.22382354736328],
    [0.013867158442735672, 0.23334148526191711, 1.9862929582595825, -70.30143737792969],
    [0.0, 0.0, 0.0, 1.0]
],
  "dcmmeta_reorient_transform": [
    [0.0, -1.0, 0.0, 99.0],
    [1.0, 0.0, 0.0, 0.0],
    [0.0, 0.0, 1.0, 0.0],
    [0.0, 0.0, 0.0, 1.0]
],
  "dcmmeta_shape": [100, 100, 72, 156],
  "dcmmeta_slice_dim": 2,
  "dcmmeta_version": 0.6,
  "global": {
    "const": {
      "AcquisitionMatrix": [100, 0, 0, 100],
      "AngioFlag": "N",
      "BitsAllocated": 16,
      "BitsStored": 12,
      "BodyPartExamined": "BRAIN",
      "Columns": 900,
      "EchoNumbers": 1,
      "EchoTime": 34.0,
      "EchoTrainLength": 100,
      "FlipAngle": 90.0,
      "HighBit": 11,
      "ImageOrientationPatient": [0.99997563070726, 0.0008145361468, 0.00693357934158, -2.756903e-08, 0.99317064931944, -0.116670738964],
      "ImagePositionPatient": [-900.83830557599, -903.61211190405, 40.589092921666],
      "ImageType": [
        "ORIGINAL",
        "PRIMARY",
        "M",
        "ND",
        "MOSAIC"
],
      "ImagedNucleus": "1H",
      "ImagingFrequency": 123.257685,
      "InPlanePhaseEncodingDirection": "COL",
      "MRAcquisitionType": "2D",
      "MagneticFieldStrength": 3.0,
      "Manufacturer": "SIEMENS",
      "ManufacturerModelName": "Prisma",
      "Modality": "MR",
      "NumberOfAverages": 1.0,
      "NumberOfPhaseEncodingSteps": 100,
      "PercentPhaseFieldOfView": 100.0,
      "PercentSampling": 100.0,
      "PerformedProcedureStepStartTime": "125430.952000",
      "PhotometricInterpretation": "MONOCHROME2",
      "PixelBandwidth": 2380.0,
      "PixelRepresentation": 0,
      "PixelSpacing": [2.0, 2.0],
      "ProtocolName": "bold_100x100_s3_2x2x2_static_156",
      "RepetitionTime": 2000.0,
      "Rows": 900,
      "SAR": 0.06638879303649,
      "SamplesPerPixel": 1,
      "ScanOptions": "FS",
      "ScanningSequence": "EP",
      "SequenceName": "*epfid2d1_100",
      "SequenceVariant": "SK",
      "SeriesDescription": "bold_100x100_s3_2x2x2_static_156",
      "SeriesNumber": 8,
      "SeriesTime": "133344.423000",
      "SliceLocation": -58.82262366712,
      "SliceThickness": 2.0,
      "SmallestImagePixelValue": 0,
      "SoftwareVersions": "syngo MR E11",
      "SpacingBetweenSlices": 2.0000000397734,
      "SpecificCharacterSet": "ISO_IR 100",
      "StudyID": "1",
      "StudyTime": "125430.798000",
      "TransmitCoilName": "Body",
      "VariableFlipAngleFlag": "N",
      "WindowCenterWidthExplanation": "Algo1",
      "dBdt": 0.0},
    "slices": {}
  },
  "time": {
    "samples": {
      "AcquisitionNumber": [1, 2, 3, 4, 5, 6, 7, 8, 9, 10, 11, 12, 13, 14, 15, 16, 17, 18, 19, 20, 21, 22, 23, 24, 25, 26, 27, 28, 29, 30, 31, 32, 33, 34, 35, 36, 37, 38, 39, 40, 41, 42, 43, 44, 45, 46, 47, 48, 49, 50, 51, 52, 53, 54, 55, 56, 57, 58, 59, 60, 61, 62, 63, 64, 65, 66, 67, 68, 69, 70, 71, 72, 73, 74, 75, 76, 77, 78, 79, 80, 81, 82, 83, 84, 85, 86, 87, 88, 89, 90, 91, 92, 93, 94, 95, 96, 97, 98, 99, 100, 101, 102, 103, 104, 105, 106, 107, 108, 109, 110, 111, 112, 113, 114, 115, 116, 117, 118, 119, 120, 121, 122, 123, 124, 125, 126, 127, 128, 129, 130, 131, 132, 133, 134, 135, 136, 137, 138, 139, 140, 141, 142, 143, 144, 145, 146, 147, 148, 149, 150, 151, 152, 153, 154, 155, 156],
      "AcquisitionTime": ["133342.250000", "133344.250000", "133346.250000", "133348.250000", "133350.250000", "133352.250000", "133354.250000", "133356.250000", "133358.250000", "133400.250000", "133402.250000", "133404.250000", "133406.250000", "133408.250000", "133410.250000", "133412.250000", "133414.250000", "133416.250000", "133418.250000", "133420.250000", "133422.250000", "133424.250000", "133426.250000", "133428.250000", "133430.250000", "133432.250000", "133434.250000", "133436.250000", "133438.250000", "133440.250000", "133442.250000", "133444.250000", "133446.250000", "133448.250000", "133450.250000", "133452.250000", "133454.250000", "133456.250000", "133458.250000", "133500.250000", "133502.250000", "133504.250000", "133506.250000", "133508.250000", "133510.250000", "133512.250000", "133514.250000", "133516.250000", "133518.250000", "133520.250000", "133522.250000", "133524.250000", "133526.250000", "133528.250000", "133530.250000", "133532.250000", "133534.250000", "133536.250000", "133538.250000", "133540.250000", "133542.250000", "133544.250000", "133546.250000", "133548.250000", "133550.250000", "133552.250000", "133554.250000", "133556.250000", "133558.250000", "133600.250000", "133602.250000", "133604.250000", "133606.250000", "133608.250000", "133610.250000", "133612.250000", "133614.250000", "133616.250000", "133618.250000", "133620.250000", "133622.250000", "133624.250000", "133626.250000", "133628.250000", "133630.250000", "133632.250000", "133634.250000", "133636.250000", "133638.250000", "133640.250000", "133642.250000", "133644.250000", "133646.250000", "133648.250000", "133650.250000", "133652.250000", "133654.250000", "133656.250000", "133658.250000", "133700.250000", "133702.250000", "133704.250000", "133706.250000", "133708.250000", "133710.250000", "133712.250000", "133714.250000", "133716.250000", "133718.250000", "133720.250000", "133722.250000", "133724.250000", "133726.250000", "133728.250000", "133730.250000", "133732.250000", "133734.250000", "133736.250000", "133738.250000", "133740.250000", "133742.250000", "133744.250000", "133746.250000", "133748.250000", "133750.250000", "133752.250000", "133754.250000", "133756.250000", "133758.250000", "133800.250000", "133802.250000", "133804.250000", "133806.250000", "133808.250000", "133810.250000", "133812.250000", "133814.250000", "133816.250000", "133818.250000", "133820.250000", "133822.250000", "133824.250000", "133826.250000", "133828.250000", "133830.250000", "133832.250000", "133834.250000", "133836.250000", "133838.250000", "133840.250000", "133842.250000", "133844.250000", "133846.250000", "133848.250000", "133850.250000", "133852.250000"],
      "ContentTime": ["133344.427000", "133345.921000", "133347.922000", "133349.923000", "133351.923000", "133353.923000", "133355.923000", "133357.922000", "133359.923000", "133401.923000", "133403.923000", "133405.943000", "133407.923000", "133409.923000", "133411.923000", "133413.922000", "133415.922000", "133417.922000", "133419.923000", "133421.923000", "133423.922000", "133425.923000", "133427.923000", "133429.923000", "133431.923000", "133433.923000", "133435.923000", "133437.922000", "133439.923000", "133441.922000", "133443.922000", "133445.923000", "133447.922000", "133449.923000", "133451.923000", "133453.923000", "133455.922000", "133457.923000", "133459.923000", "133501.923000", "133503.923000", "133505.923000", "133507.923000", "133509.923000", "133511.923000", "133513.922000", "133515.923000", "133517.922000", "133519.922000", "133521.922000", "133523.923000", "133525.922000", "133527.923000", "133529.922000", "133531.923000", "133533.922000", "133535.922000", "133537.923000", "133539.922000", "133541.923000", "133543.923000", "133545.923000", "133547.922000", "133549.923000", "133551.922000", "133553.923000", "133555.923000", "133557.923000", "133559.923000", "133601.923000", "133603.922000", "133605.923000", "133607.923000", "133609.922000", "133611.923000", "133613.922000", "133615.922000", "133617.922000", "133619.922000", "133621.922000", "133623.922000", "133625.922000", "133627.922000", "133629.922000", "133631.923000", "133633.923000", "133635.923000", "133637.922000", "133639.922000", "133641.922000", "133643.922000", "133645.923000", "133647.922000", "133649.922000", "133651.922000", "133653.923000", "133655.923000", "133657.922000", "133659.923000", "133701.923000", "133703.923000", "133705.922000", "133707.922000", "133709.923000", "133711.923000", "133713.922000", "133715.923000", "133717.923000", "133719.923000", "133721.922000", "133723.922000", "133725.922000", "133727.922000", "133729.923000", "133731.923000", "133733.923000", "133735.923000", "133737.923000", "133739.923000", "133741.923000", "133743.922000", "133745.923000", "133747.923000", "133749.923000", "133751.922000", "133753.923000", "133755.923000", "133757.923000", "133759.923000", "133801.923000", "133803.923000", "133805.923000", "133807.922000", "133809.922000", "133811.923000", "133813.922000", "133815.922000", "133817.923000", "133819.922000", "133821.923000", "133823.923000", "133825.922000", "133827.923000", "133829.923000", "133831.923000", "133833.923000", "133835.922000", "133837.923000", "133839.923000", "133841.923000", "133843.923000", "133845.923000", "133847.923000", "133849.923000", "133851.923000", "133853.656000"],
      "InstanceCreationTime": ["133344.427000", "133345.921000", "133347.922000", "133349.923000", "133351.923000", "133353.923000", "133355.923000", "133357.922000", "133359.923000", "133401.923000", "133403.923000", "133405.943000", "133407.923000", "133409.923000", "133411.923000", "133413.922000", "133415.922000", "133417.922000", "133419.923000", "133421.923000", "133423.922000", "133425.923000", "133427.923000", "133429.923000", "133431.923000", "133433.923000", "133435.923000", "133437.922000", "133439.923000", "133441.922000", "133443.922000", "133445.923000", "133447.922000", "133449.923000", "133451.923000", "133453.923000", "133455.922000", "133457.923000", "133459.923000", "133501.923000", "133503.923000", "133505.923000", "133507.923000", "133509.923000", "133511.923000", "133513.922000", "133515.923000", "133517.922000", "133519.922000", "133521.922000", "133523.923000", "133525.922000", "133527.923000", "133529.922000", "133531.923000", "133533.922000", "133535.922000", "133537.923000", "133539.922000", "133541.923000", "133543.923000", "133545.923000", "133547.922000", "133549.923000", "133551.922000", "133553.923000", "133555.923000", "133557.923000", "133559.923000", "133601.923000", "133603.922000", "133605.923000", "133607.923000", "133609.922000", "133611.923000", "133613.922000", "133615.922000", "133617.922000", "133619.922000", "133621.922000", "133623.922000", "133625.922000", "133627.922000", "133629.922000", "133631.923000", "133633.923000", "133635.923000", "133637.922000", "133639.922000", "133641.922000", "133643.922000", "133645.923000", "133647.922000", "133649.922000", "133651.922000", "133653.923000", "133655.923000", "133657.922000", "133659.923000", "133701.923000", "133703.923000", "133705.922000", "133707.922000", "133709.923000", "133711.923000", "133713.922000", "133715.923000", "133717.923000", "133719.923000", "133721.922000", "133723.922000", "133725.922000", "133727.922000", "133729.923000", "133731.923000", "133733.923000", "133735.923000", "133737.923000", "133739.923000", "133741.923000", "133743.922000", "133745.923000", "133747.923000", "133749.923000", "133751.922000", "133753.923000", "133755.923000", "133757.923000", "133759.923000", "133801.923000", "133803.923000", "133805.923000", "133807.922000", "133809.922000", "133811.923000", "133813.922000", "133815.922000", "133817.923000", "133819.922000", "133821.923000", "133823.923000", "133825.922000", "133827.923000", "133829.923000", "133831.923000", "133833.923000", "133835.922000", "133837.923000", "133839.923000", "133841.923000", "133843.923000", "133845.923000", "133847.923000", "133849.923000", "133851.923000", "133853.656000"],
      "InstanceNumber": [1, 2, 3, 4, 5, 6, 7, 8, 9, 10, 11, 12, 13, 14, 15, 16, 17, 18, 19, 20, 21, 22, 23, 24, 25, 26, 27, 28, 29, 30, 31, 32, 33, 34, 35, 36, 37, 38, 39, 40, 41, 42, 43, 44, 45, 46, 47, 48, 49, 50, 51, 52, 53, 54, 55, 56, 57, 58, 59, 60, 61, 62, 63, 64, 65, 66, 67, 68, 69, 70, 71, 72, 73, 74, 75, 76, 77, 78, 79, 80, 81, 82, 83, 84, 85, 86, 87, 88, 89, 90, 91, 92, 93, 94, 95, 96, 97, 98, 99, 100, 101, 102, 103, 104, 105, 106, 107, 108, 109, 110, 111, 112, 113, 114, 115, 116, 117, 118, 119, 120, 121, 122, 123, 124, 125, 126, 127, 128, 129, 130, 131, 132, 133, 134, 135, 136, 137, 138, 139, 140, 141, 142, 143, 144, 145, 146, 147, 148, 149, 150, 151, 152, 153, 154, 155, 156],
      "LargestImagePixelValue": [3326, 3268, 3166, 3169, 3183, 3186, 3209, 3182, 3243, 3177, 3206, 3188, 3186, 3162, 3179, 3187, 3247, 3193, 3148, 3205, 3173, 3220, 3205, 3216, 3187, 3182, 3198, 3184, 3186, 3207, 3202, 3198, 3169, 3189, 3205, 3177, 3232, 3194, 3181, 3186, 3203, 3187, 3202, 3198, 3242, 3235, 3196, 3201, 3205, 3202, 3175, 3181, 3176, 3261, 3181, 3150, 3174, 3196, 3179, 3156, 3183, 3197, 3227, 3185, 3176, 3198, 3186, 3203, 3163, 3162, 3198, 3169, 3180, 3171, 3206, 3181, 3273, 3176, 3229, 3184, 3174, 3188, 3181, 3178, 3201, 3170, 3181, 3187, 3192, 3187, 3191, 3187, 3281, 3165, 3181, 3200, 3176, 3156, 3169, 3211, 3201, 3178, 3189, 3193, 3186, 3215, 3218, 3193, 3179, 3223, 3250, 3176, 3259, 3216, 3182, 3140, 3299, 3170, 3239, 3162, 3264, 3166, 3226, 3176, 3158, 3221, 3164, 3158, 3172, 3205, 3173, 3181, 3218, 3205, 3179, 3179, 3255, 3135, 3194, 3247, 3174, 3168, 3197, 3203, 3199, 3178, 3226, 3181, 3182, 3231, 3164, 3201, 3240, 3152, 3198, 3176],
      "WindowCenter": [778.0, 776.0, 776.0, 775.0, 774.0, 773.0, 771.0, 771.0, 772.0, 772.0, 772.0, 772.0, 773.0, 773.0, 773.0, 773.0, 774.0, 774.0, 774.0, 774.0, 774.0, 775.0, 774.0, 774.0, 773.0, 772.0, 772.0, 773.0, 773.0, 774.0, 774.0, 775.0, 775.0, 775.0, 774.0, 773.0, 773.0, 773.0, 773.0, 773.0, 774.0, 775.0, 774.0, 775.0, 775.0, 775.0, 774.0, 773.0, 773.0, 773.0, 773.0, 773.0, 772.0, 773.0, 773.0, 773.0, 773.0, 773.0, 773.0, 772.0, 771.0, 771.0, 772.0, 773.0, 773.0, 774.0, 774.0, 774.0, 774.0, 773.0, 772.0, 772.0, 772.0, 772.0, 773.0, 773.0, 774.0, 775.0, 775.0, 775.0, 775.0, 773.0, 772.0, 772.0, 773.0, 773.0, 774.0, 774.0, 775.0, 773.0, 773.0, 773.0, 774.0, 774.0, 771.0, 771.0, 772.0, 771.0, 770.0, 770.0, 770.0, 770.0, 770.0, 772.0, 773.0, 773.0, 773.0, 774.0, 775.0, 775.0, 776.0, 776.0, 777.0, 776.0, 775.0, 774.0, 776.0, 775.0, 776.0, 774.0, 774.0, 773.0, 773.0, 773.0, 773.0, 773.0, 772.0, 771.0, 772.0, 773.0, 773.0, 773.0, 773.0, 774.0, 774.0, 774.0, 775.0, 773.0, 772.0, 771.0, 771.0, 771.0, 771.0, 770.0, 771.0, 772.0, 773.0, 773.0, 774.0, 775.0, 775.0, 775.0, 775.0, 775.0, 775.0, 773.0],
      "WindowWidth": [1685.0, 1679.0, 1678.0, 1675.0, 1671.0, 1668.0, 1665.0, 1664.0, 1666.0, 1666.0, 1667.0, 1667.0, 1670.0, 1670.0, 1670.0, 1669.0, 1672.0, 1672.0, 1671.0, 1672.0, 1672.0, 1675.0, 1672.0, 1671.0, 1669.0, 1667.0, 1667.0, 1669.0, 1670.0, 1672.0, 1673.0, 1675.0, 1674.0, 1674.0, 1671.0, 1669.0, 1670.0, 1669.0, 1669.0, 1669.0, 1671.0, 1674.0, 1673.0, 1674.0, 1675.0, 1675.0, 1671.0, 1670.0, 1669.0, 1670.0, 1669.0, 1669.0, 1667.0, 1670.0, 1670.0, 1670.0, 1669.0, 1670.0, 1668.0, 1666.0, 1665.0, 1664.0, 1666.0, 1669.0, 1669.0, 1671.0, 1671.0, 1673.0, 1672.0, 1670.0, 1667.0, 1667.0, 1667.0, 1667.0, 1669.0, 1670.0, 1671.0, 1673.0, 1675.0, 1675.0, 1673.0, 1669.0, 1665.0, 1666.0, 1668.0, 1670.0, 1670.0, 1672.0, 1674.0, 1671.0, 1669.0, 1669.0, 1673.0, 1671.0, 1665.0, 1665.0, 1666.0, 1663.0, 1660.0, 1661.0, 1660.0, 1661.0, 1661.0, 1667.0, 1669.0, 1669.0, 1670.0, 1673.0, 1674.0, 1675.0, 1678.0, 1678.0, 1680.0, 1677.0, 1674.0, 1671.0, 1676.0, 1676.0, 1678.0, 1673.0, 1673.0, 1670.0, 1669.0, 1669.0, 1669.0, 1669.0, 1666.0, 1665.0, 1666.0, 1669.0, 1670.0, 1668.0, 1670.0, 1671.0, 1671.0, 1673.0, 1674.0, 1670.0, 1666.0, 1664.0, 1664.0, 1663.0, 1663.0, 1661.0, 1663.0, 1666.0, 1670.0, 1669.0, 1673.0, 1675.0, 1674.0, 1674.0, 1674.0, 1674.0, 1674.0, 1669.0]
    },
    "slices": {}
  }
}