{
  "AcquisitionMatrixPE": 100,
  "AcquisitionNumber": 1,
  "AcquisitionTime": "13:22:8.677500",
  "BandwidthPerPixelPhaseEncode": 18.519,
  "BaseResolution": 100,
  "BodyPartExamined": "BRAIN",
  "CoilCombinationMethod": "Sum of Squares",
  "ConsistencyInfo": "N4_VE11C_LATEST_20160120",
  "ConversionSoftware": "dcm2niix",
  "ConversionSoftwareVersion": "v1.0.20211006",
  "DerivedVendorReportedEchoSpacing": 0.000539986,
  "DeviceSerialNumber": "166078",
  "DwellTime": 2.1e-06,
  "EchoTime": 0.034,
  "EchoTrainLength": 100,
  "EffectiveEchoSpacing": 0.000539986,
  "FlipAngle": 90,
  "ImageOrientationPatientDICOM": [0.999976, 0.000814536, 0.00693358, -2.7569e-08, 0.993171, -0.116671],
  "ImageOrientationText": "Tra>Cor(-6.7)>Sag(0.4)",
  "ImageType": [
    "ORIGINAL",
    "PRIMARY",
    "M",
    "ND",
    "MOSAIC"
],
  "ImagingFrequency": 123.258,
  "InPlanePhaseEncodingDirectionDICOM": "COL",
  "InstitutionAddress": "Street StreetNo,Bei Jing,District,CN,ZIP",
  "InstitutionName": "BeiJing Normal University",
  "InstitutionalDepartmentName": "Department",
  "MRAcquisitionType": "2D",
  "MagneticFieldStrength": 3,
  "Manufacturer": "Siemens",
  "ManufacturersModelName": "Prisma",
  "Modality": "MR",
  "MultibandAccelerationFactor": 3,
  "PartialFourier": 1,
  "PatientPosition": "HFS",
  "PercentPhaseFOV": 100,
  "PercentSampling": 100,
  "PhaseEncodingDirection": "j-",
  "PhaseEncodingSteps": 100,
  "PhaseResolution": 1,
  "PixelBandwidth": 2380,
  "ProcedureStepDescription": "BNU_P2018_64CH^Zhen.ZongLei",
  "ProtocolName": "bold_100x100_s3_2x2x2_static_156",
  "PulseSequenceDetails": "%SiemensSeq%\\ep2d_bold",
  "ReceiveCoilActiveElements": "HC1-7;NC1",
  "ReceiveCoilName": "HeadNeck_64",
  "ReconMatrixPE": 100,
  "RefLinesPE": 32,
  "RepetitionTime": 2,
  "SAR": 0.0663888,
  "ScanOptions": "FS",
  "ScanningSequence": "EP",
  "SequenceName": "*epfid2d1_100",
  "SequenceVariant": "SK",
  "SeriesDescription": "bold_100x100_s3_2x2x2_static_156",
  "SeriesNumber": 6,
  "ShimSetting": [-5435, -11515, -1240, 303, -58, -263, -116, -6],
  "SliceThickness": 2,
  "SliceTiming": [1.485, 0, 0.99, 0.0825, 1.0725, 0.165, 1.155, 0.2475, 1.2375, 0.33, 1.32, 0.4125, 1.4025, 0.5775, 1.5675, 0.66, 1.65, 0.7425, 1.7325, 0.825, 1.815, 0.9075, 1.8975, 0.495, 1.485, 0, 0.99, 0.0825, 1.0725, 0.165, 1.155, 0.2475, 1.2375, 0.33, 1.32, 0.4125, 1.4025, 0.5775, 1.5675, 0.66, 1.65, 0.7425, 1.7325, 0.825, 1.815, 0.9075, 1.8975, 0.495, 1.485, 0, 0.99, 0.0825, 1.0725, 0.165, 1.155, 0.2475, 1.2375, 0.33, 1.32, 0.4125, 1.4025, 0.5775, 1.5675, 0.66, 1.65, 0.7425, 1.7325, 0.825, 1.815, 0.9075, 1.8975, 0.495],
  "SoftwareVersions": "syngo MR E11",
  "SpacingBetweenSlices": 2,
  "StationName": "AWP166078",
  "TaskName": "action",
  "TotalReadoutTime": 0.0534586,
  "TxRefAmp": 212.729,
  "dcmmeta_affine": [
    [-1.9999512434005737, -5.5138059451564914e-08, 0.01396252028644085, 100.85782623291016],
    [-0.0016290722414851189, 1.9863413572311401, -0.23333579301834106, -88.22382354736328],
    [0.013867158442735672, 0.23334148526191711, 1.9862929582595825, -70.30143737792969],
    [0.0, 0.0, 0.0, 1.0]
],
  "dcmmeta_reorient_transform": [
    [0.0, -1.0, 0.0, 99.0],
    [1.0, 0.0, 0.0, 0.0],
    [0.0, 0.0, 1.0, 0.0],
    [0.0, 0.0, 0.0, 1.0]
],
  "dcmmeta_shape": [100, 100, 72, 156],
  "dcmmeta_slice_dim": 2,
  "dcmmeta_version": 0.6,
  "global": {
    "const": {
      "AcquisitionMatrix": [100, 0, 0, 100],
      "AngioFlag": "N",
      "BitsAllocated": 16,
      "BitsStored": 12,
      "BodyPartExamined": "BRAIN",
      "Columns": 900,
      "EchoNumbers": 1,
      "EchoTime": 34.0,
      "EchoTrainLength": 100,
      "FlipAngle": 90.0,
      "HighBit": 11,
      "ImageOrientationPatient": [0.99997563070726, 0.0008145361468, 0.00693357934158, -2.756903e-08, 0.99317064931944, -0.116670738964],
      "ImagePositionPatient": [-900.83830557599, -903.61211190405, 40.589092921666],
      "ImageType": [
        "ORIGINAL",
        "PRIMARY",
        "M",
        "ND",
        "MOSAIC"
],
      "ImagedNucleus": "1H",
      "ImagingFrequency": 123.257679,
      "InPlanePhaseEncodingDirection": "COL",
      "MRAcquisitionType": "2D",
      "MagneticFieldStrength": 3.0,
      "Manufacturer": "SIEMENS",
      "ManufacturerModelName": "Prisma",
      "Modality": "MR",
      "NumberOfAverages": 1.0,
      "NumberOfPhaseEncodingSteps": 100,
      "PercentPhaseFieldOfView": 100.0,
      "PercentSampling": 100.0,
      "PerformedProcedureStepStartTime": "125430.952000",
      "PhotometricInterpretation": "MONOCHROME2",
      "PixelBandwidth": 2380.0,
      "PixelRepresentation": 0,
      "PixelSpacing": [2.0, 2.0],
      "ProtocolName": "bold_100x100_s3_2x2x2_static_156",
      "RepetitionTime": 2000.0,
      "Rows": 900,
      "SAR": 0.06638879303649,
      "SamplesPerPixel": 1,
      "ScanOptions": "FS",
      "ScanningSequence": "EP",
      "SequenceName": "*epfid2d1_100",
      "SequenceVariant": "SK",
      "SeriesDescription": "bold_100x100_s3_2x2x2_static_156",
      "SeriesNumber": 6,
      "SeriesTime": "132211.080000",
      "SliceLocation": -58.82262366712,
      "SliceThickness": 2.0,
      "SmallestImagePixelValue": 0,
      "SoftwareVersions": "syngo MR E11",
      "SpacingBetweenSlices": 2.0000000397734,
      "SpecificCharacterSet": "ISO_IR 100",
      "StudyID": "1",
      "StudyTime": "125430.798000",
      "TransmitCoilName": "Body",
      "VariableFlipAngleFlag": "N",
      "WindowCenterWidthExplanation": "Algo1",
      "dBdt": 0.0},
    "slices": {}
  },
  "time": {
    "samples": {
      "AcquisitionNumber": [1, 2, 3, 4, 5, 6, 7, 8, 9, 10, 11, 12, 13, 14, 15, 16, 17, 18, 19, 20, 21, 22, 23, 24, 25, 26, 27, 28, 29, 30, 31, 32, 33, 34, 35, 36, 37, 38, 39, 40, 41, 42, 43, 44, 45, 46, 47, 48, 49, 50, 51, 52, 53, 54, 55, 56, 57, 58, 59, 60, 61, 62, 63, 64, 65, 66, 67, 68, 69, 70, 71, 72, 73, 74, 75, 76, 77, 78, 79, 80, 81, 82, 83, 84, 85, 86, 87, 88, 89, 90, 91, 92, 93, 94, 95, 96, 97, 98, 99, 100, 101, 102, 103, 104, 105, 106, 107, 108, 109, 110, 111, 112, 113, 114, 115, 116, 117, 118, 119, 120, 121, 122, 123, 124, 125, 126, 127, 128, 129, 130, 131, 132, 133, 134, 135, 136, 137, 138, 139, 140, 141, 142, 143, 144, 145, 146, 147, 148, 149, 150, 151, 152, 153, 154, 155, 156],
      "AcquisitionTime": ["132208.677500", "132210.677500", "132212.677500", "132214.677500", "132216.677500", "132218.677500", "132220.677500", "132222.677500", "132224.677500", "132226.677500", "132228.677500", "132230.677500", "132232.677500", "132234.677500", "132236.677500", "132238.677500", "132240.677500", "132242.677500", "132244.677500", "132246.677500", "132248.677500", "132250.677500", "132252.677500", "132254.677500", "132256.677500", "132258.677500", "132300.677500", "132302.677500", "132304.677500", "132306.677500", "132308.677500", "132310.677500", "132312.677500", "132314.677500", "132316.677500", "132318.677500", "132320.677500", "132322.677500", "132324.677500", "132326.677500", "132328.677500", "132330.677500", "132332.677500", "132334.677500", "132336.677500", "132338.677500", "132340.677500", "132342.677500", "132344.677500", "132346.677500", "132348.677500", "132350.677500", "132352.677500", "132354.677500", "132356.677500", "132358.677500", "132400.677500", "132402.677500", "132404.677500", "132406.677500", "132408.677500", "132410.677500", "132412.677500", "132414.677500", "132416.677500", "132418.677500", "132420.677500", "132422.677500", "132424.677500", "132426.677500", "132428.677500", "132430.677500", "132432.677500", "132434.677500", "132436.677500", "132438.677500", "132440.677500", "132442.677500", "132444.677500", "132446.677500", "132448.677500", "132450.677500", "132452.677500", "132454.677500", "132456.677500", "132458.677500", "132500.677500", "132502.677500", "132504.677500", "132506.677500", "132508.677500", "132510.677500", "132512.677500", "132514.677500", "132516.677500", "132518.677500", "132520.677500", "132522.677500", "132524.677500", "132526.677500", "132528.677500", "132530.677500", "132532.677500", "132534.677500", "132536.677500", "132538.677500", "132540.677500", "132542.677500", "132544.677500", "132546.677500", "132548.677500", "132550.677500", "132552.677500", "132554.677500", "132556.677500", "132558.677500", "132600.677500", "132602.677500", "132604.677500", "132606.677500", "132608.677500", "132610.677500", "132612.677500", "132614.677500", "132616.677500", "132618.677500", "132620.677500", "132622.677500", "132624.677500", "132626.677500", "132628.677500", "132630.677500", "132632.677500", "132634.677500", "132636.677500", "132638.677500", "132640.677500", "132642.677500", "132644.677500", "132646.677500", "132648.677500", "132650.677500", "132652.677500", "132654.677500", "132656.677500", "132658.677500", "132700.677500", "132702.677500", "132704.677500", "132706.677500", "132708.677500", "132710.677500", "132712.677500", "132714.677500", "132716.677500", "132718.677500"],
      "ContentTime": ["132211.084000", "132212.580000", "132214.579000", "132216.580000", "132218.580000", "132220.580000", "132222.579000", "132224.581000", "132226.580000", "132228.580000", "132230.579000", "132232.579000", "132234.579000", "132236.579000", "132238.579000", "132240.579000", "132242.581000", "132244.580000", "132246.580000", "132248.580000", "132250.579000", "132252.579000", "132254.580000", "132256.580000", "132258.579000", "132300.581000", "132302.580000", "132304.580000", "132306.579000", "132308.579000", "132310.579000", "132312.580000", "132314.579000", "132316.580000", "132318.580000", "132320.579000", "132322.580000", "132324.579000", "132326.580000", "132328.579000", "132330.579000", "132332.579000", "132334.581000", "132336.580000", "132338.579000", "132340.579000", "132342.580000", "132344.580000", "132346.579000", "132348.579000", "132350.579000", "132352.580000", "132354.580000", "132356.580000", "132358.580000", "132400.580000", "132402.579000", "132404.579000", "132406.580000", "132408.580000", "132410.581000", "132412.580000", "132414.580000", "132416.579000", "132418.579000", "132420.579000", "132422.580000", "132424.580000", "132426.579000", "132428.580000", "132430.580000", "132432.580000", "132434.579000", "132436.580000", "132438.579000", "132440.580000", "132442.580000", "132444.580000", "132446.579000", "132448.579000", "132450.580000", "132452.579000", "132454.580000", "132456.579000", "132458.580000", "132500.579000", "132502.580000", "132504.580000", "132506.579000", "132508.579000", "132510.579000", "132512.579000", "132514.579000", "132516.580000", "132518.579000", "132520.580000", "132522.579000", "132524.580000", "132526.579000", "132528.579000", "132530.580000", "132532.580000", "132534.579000", "132536.581000", "132538.579000", "132540.580000", "132542.579000", "132544.580000", "132546.580000", "132548.580000", "132550.579000", "132552.579000", "132554.580000", "132556.580000", "132558.580000", "132600.580000", "132602.579000", "132604.580000", "132606.580000", "132608.579000", "132610.580000", "132612.581000", "132614.579000", "132616.580000", "132618.580000", "132620.579000", "132622.579000", "132624.580000", "132626.580000", "132628.579000", "132630.581000", "132632.580000", "132634.589000", "132636.579000", "132638.580000", "132640.579000", "132642.580000", "132644.580000", "132646.581000", "132648.579000", "132650.580000", "132652.580000", "132654.580000", "132656.580000", "132658.579000", "132700.579000", "132702.579000", "132704.580000", "132706.580000", "132708.580000", "132710.580000", "132712.580000", "132714.579000", "132716.580000", "132718.580000", "132720.208000"],
      "InstanceCreationTime": ["132211.084000", "132212.580000", "132214.579000", "132216.580000", "132218.580000", "132220.580000", "132222.579000", "132224.581000", "132226.580000", "132228.580000", "132230.579000", "132232.579000", "132234.579000", "132236.579000", "132238.579000", "132240.579000", "132242.581000", "132244.580000", "132246.580000", "132248.580000", "132250.579000", "132252.579000", "132254.580000", "132256.580000", "132258.579000", "132300.581000", "132302.580000", "132304.580000", "132306.579000", "132308.579000", "132310.579000", "132312.580000", "132314.579000", "132316.580000", "132318.580000", "132320.579000", "132322.580000", "132324.579000", "132326.580000", "132328.579000", "132330.579000", "132332.579000", "132334.581000", "132336.580000", "132338.579000", "132340.579000", "132342.580000", "132344.580000", "132346.579000", "132348.579000", "132350.579000", "132352.580000", "132354.580000", "132356.580000", "132358.580000", "132400.580000", "132402.579000", "132404.579000", "132406.580000", "132408.580000", "132410.581000", "132412.580000", "132414.580000", "132416.579000", "132418.579000", "132420.579000", "132422.580000", "132424.580000", "132426.579000", "132428.580000", "132430.580000", "132432.580000", "132434.579000", "132436.580000", "132438.579000", "132440.580000", "132442.580000", "132444.580000", "132446.579000", "132448.579000", "132450.580000", "132452.579000", "132454.580000", "132456.579000", "132458.580000", "132500.579000", "132502.580000", "132504.580000", "132506.579000", "132508.579000", "132510.579000", "132512.579000", "132514.579000", "132516.580000", "132518.579000", "132520.580000", "132522.579000", "132524.580000", "132526.579000", "132528.579000", "132530.580000", "132532.580000", "132534.579000", "132536.581000", "132538.579000", "132540.580000", "132542.579000", "132544.580000", "132546.580000", "132548.580000", "132550.579000", "132552.579000", "132554.580000", "132556.580000", "132558.580000", "132600.580000", "132602.579000", "132604.580000", "132606.580000", "132608.579000", "132610.580000", "132612.581000", "132614.579000", "132616.580000", "132618.580000", "132620.579000", "132622.579000", "132624.580000", "132626.580000", "132628.579000", "132630.581000", "132632.580000", "132634.589000", "132636.579000", "132638.580000", "132640.579000", "132642.580000", "132644.580000", "132646.581000", "132648.579000", "132650.580000", "132652.580000", "132654.580000", "132656.580000", "132658.579000", "132700.579000", "132702.579000", "132704.580000", "132706.580000", "132708.580000", "132710.580000", "132712.580000", "132714.579000", "132716.580000", "132718.580000", "132720.208000"],
      "InstanceNumber": [1, 2, 3, 4, 5, 6, 7, 8, 9, 10, 11, 12, 13, 14, 15, 16, 17, 18, 19, 20, 21, 22, 23, 24, 25, 26, 27, 28, 29, 30, 31, 32, 33, 34, 35, 36, 37, 38, 39, 40, 41, 42, 43, 44, 45, 46, 47, 48, 49, 50, 51, 52, 53, 54, 55, 56, 57, 58, 59, 60, 61, 62, 63, 64, 65, 66, 67, 68, 69, 70, 71, 72, 73, 74, 75, 76, 77, 78, 79, 80, 81, 82, 83, 84, 85, 86, 87, 88, 89, 90, 91, 92, 93, 94, 95, 96, 97, 98, 99, 100, 101, 102, 103, 104, 105, 106, 107, 108, 109, 110, 111, 112, 113, 114, 115, 116, 117, 118, 119, 120, 121, 122, 123, 124, 125, 126, 127, 128, 129, 130, 131, 132, 133, 134, 135, 136, 137, 138, 139, 140, 141, 142, 143, 144, 145, 146, 147, 148, 149, 150, 151, 152, 153, 154, 155, 156],
      "LargestImagePixelValue": [3374, 3321, 3352, 3345, 3342, 3323, 3307, 3353, 3347, 3340, 3367, 3314, 3374, 3325, 3362, 3315, 3355, 3358, 3326, 3346, 3332, 3348, 3358, 3337, 3355, 3352, 3351, 3355, 3357, 3337, 3368, 3320, 3385, 3328, 3374, 3312, 3347, 3372, 3357, 3367, 3386, 3365, 3372, 3349, 3358, 3360, 3374, 3379, 3338, 3365, 3330, 3363, 3390, 3321, 3349, 3296, 3370, 3332, 3364, 3340, 3372, 3364, 3376, 3377, 3372, 3337, 3340, 3352, 3333, 3368, 3323, 3363, 3363, 3342, 3341, 3354, 3348, 3357, 3336, 3345, 3366, 3373, 3379, 3337, 3355, 3329, 3383, 3332, 3368, 3332, 3350, 3345, 3368, 3357, 3386, 3323, 3358, 3380, 3350, 3357, 3353, 3319, 3349, 3345, 3349, 3321, 3347, 3354, 3376, 3355, 3387, 3354, 3351, 3391, 3370, 3349, 3395, 3362, 3367, 3343, 3354, 3374, 3374, 3351, 3359, 3343, 3394, 3350, 3362, 3375, 3353, 3363, 3360, 3364, 3364, 3392, 3353, 3386, 3336, 3372, 3344, 3386, 3356, 3357, 3369, 3344, 3359, 3354, 3410, 3360, 3351, 3333, 3377, 3375, 3345, 3368],
      "WindowCenter": [778.0, 776.0, 775.0, 775.0, 776.0, 774.0, 773.0, 774.0, 774.0, 774.0, 773.0, 773.0, 774.0, 774.0, 775.0, 775.0, 776.0, 775.0, 774.0, 774.0, 775.0, 775.0, 775.0, 775.0, 775.0, 775.0, 776.0, 776.0, 777.0, 776.0, 777.0, 776.0, 776.0, 775.0, 776.0, 775.0, 775.0, 775.0, 774.0, 774.0, 775.0, 775.0, 775.0, 775.0, 776.0, 776.0, 776.0, 776.0, 775.0, 776.0, 776.0, 776.0, 777.0, 776.0, 776.0, 776.0, 776.0, 776.0, 776.0, 775.0, 775.0, 776.0, 775.0, 775.0, 775.0, 775.0, 775.0, 776.0, 776.0, 776.0, 775.0, 775.0, 775.0, 775.0, 775.0, 776.0, 775.0, 775.0, 776.0, 776.0, 776.0, 777.0, 777.0, 776.0, 776.0, 775.0, 776.0, 776.0, 777.0, 777.0, 777.0, 776.0, 776.0, 776.0, 776.0, 775.0, 775.0, 775.0, 776.0, 776.0, 776.0, 776.0, 777.0, 776.0, 776.0, 776.0, 775.0, 775.0, 776.0, 775.0, 775.0, 775.0, 775.0, 776.0, 776.0, 776.0, 777.0, 776.0, 776.0, 776.0, 776.0, 775.0, 775.0, 774.0, 773.0, 772.0, 773.0, 773.0, 774.0, 774.0, 776.0, 777.0, 777.0, 777.0, 777.0, 777.0, 778.0, 779.0, 779.0, 779.0, 778.0, 778.0, 777.0, 776.0, 774.0, 773.0, 773.0, 774.0, 776.0, 776.0, 775.0, 775.0, 775.0, 775.0, 775.0, 774.0],
      "WindowWidth": [1686.0, 1678.0, 1676.0, 1675.0, 1678.0, 1674.0, 1671.0, 1673.0, 1673.0, 1672.0, 1672.0, 1671.0, 1673.0, 1674.0, 1676.0, 1676.0, 1679.0, 1676.0, 1672.0, 1674.0, 1675.0, 1677.0, 1675.0, 1675.0, 1675.0, 1675.0, 1678.0, 1680.0, 1680.0, 1680.0, 1681.0, 1679.0, 1679.0, 1678.0, 1678.0, 1677.0, 1675.0, 1675.0, 1674.0, 1673.0, 1675.0, 1675.0, 1677.0, 1677.0, 1678.0, 1678.0, 1679.0, 1678.0, 1677.0, 1679.0, 1680.0, 1678.0, 1680.0, 1679.0, 1678.0, 1677.0, 1678.0, 1677.0, 1678.0, 1675.0, 1676.0, 1677.0, 1677.0, 1677.0, 1676.0, 1676.0, 1675.0, 1678.0, 1679.0, 1678.0, 1675.0, 1676.0, 1676.0, 1675.0, 1676.0, 1678.0, 1677.0, 1678.0, 1678.0, 1678.0, 1678.0, 1680.0, 1680.0, 1679.0, 1679.0, 1677.0, 1679.0, 1680.0, 1682.0, 1681.0, 1681.0, 1678.0, 1679.0, 1680.0, 1679.0, 1677.0, 1676.0, 1676.0, 1677.0, 1679.0, 1679.0, 1679.0, 1680.0, 1679.0, 1678.0, 1677.0, 1676.0, 1676.0, 1677.0, 1676.0, 1675.0, 1674.0, 1675.0, 1679.0, 1678.0, 1680.0, 1681.0, 1679.0, 1678.0, 1679.0, 1678.0, 1676.0, 1675.0, 1673.0, 1669.0, 1667.0, 1671.0, 1671.0, 1672.0, 1674.0, 1677.0, 1680.0, 1682.0, 1681.0, 1681.0, 1682.0, 1683.0, 1688.0, 1686.0, 1686.0, 1683.0, 1683.0, 1681.0, 1679.0, 1673.0, 1671.0, 1671.0, 1673.0, 1677.0, 1677.0, 1676.0, 1675.0, 1676.0, 1676.0, 1674.0, 1673.0]
    },
    "slices": {}
  }
}