{
  "AcquisitionMatrixPE": 100,
  "AcquisitionNumber": 1,
  "AcquisitionTime": "10:44:33.350000",
  "BandwidthPerPixelPhaseEncode": 18.519,
  "BaseResolution": 100,
  "BodyPartExamined": "BRAIN",
  "CoilCombinationMethod": "Sum of Squares",
  "ConsistencyInfo": "N4_VE11C_LATEST_20160120",
  "ConversionSoftware": "dcm2niix",
  "ConversionSoftwareVersion": "v1.0.20211006",
  "DerivedVendorReportedEchoSpacing": 0.000539986,
  "DeviceSerialNumber": "166078",
  "DwellTime": 2.1e-06,
  "EchoTime": 0.034,
  "EchoTrainLength": 100,
  "EffectiveEchoSpacing": 0.000539986,
  "FlipAngle": 90,
  "ImageOrientationPatientDICOM": [0.998812, -0.0174827, -0.0454954, -1.7849e-08, 0.933452, -0.358702],
  "ImageOrientationText": "Tra>Cor(-21.0)>Sag(-2.8)",
  "ImageType": [
    "ORIGINAL",
    "PRIMARY",
    "M",
    "ND",
    "MOSAIC"
],
  "ImagingFrequency": 123.258,
  "InPlanePhaseEncodingDirectionDICOM": "COL",
  "InstitutionAddress": "Street StreetNo,Bei Jing,District,CN,ZIP",
  "InstitutionName": "BeiJing Normal University",
  "InstitutionalDepartmentName": "Department",
  "MRAcquisitionType": "2D",
  "MagneticFieldStrength": 3,
  "Manufacturer": "Siemens",
  "ManufacturersModelName": "Prisma",
  "Modality": "MR",
  "MultibandAccelerationFactor": 3,
  "PartialFourier": 1,
  "PatientPosition": "HFS",
  "PercentPhaseFOV": 100,
  "PercentSampling": 100,
  "PhaseEncodingDirection": "j-",
  "PhaseEncodingSteps": 100,
  "PhaseResolution": 1,
  "PixelBandwidth": 2380,
  "ProcedureStepDescription": "BNU_P2018_64CH^Zhen.ZongLei",
  "ProtocolName": "bold_100x100_s3_2x2x2_static_156",
  "PulseSequenceDetails": "%SiemensSeq%\\ep2d_bold",
  "ReceiveCoilActiveElements": "HC1-7;NC1",
  "ReceiveCoilName": "HeadNeck_64",
  "ReconMatrixPE": 100,
  "RefLinesPE": 32,
  "RepetitionTime": 2,
  "SAR": 0.083031,
  "ScanOptions": "FS",
  "ScanningSequence": "EP",
  "SequenceName": "*epfid2d1_100",
  "SequenceVariant": "SK",
  "SeriesDescription": "bold_100x100_s3_2x2x2_static_156",
  "SeriesNumber": 5,
  "ShimSetting": [-5477, -11466, -1248, 391, -89, -423, -111, 50],
  "SliceThickness": 2,
  "SliceTiming": [1.485, 0, 0.99, 0.0825, 1.0725, 0.165, 1.155, 0.2475, 1.2375, 0.33, 1.32, 0.4125, 1.4025, 0.5775, 1.5675, 0.66, 1.65, 0.7425, 1.7325, 0.825, 1.815, 0.9075, 1.8975, 0.495, 1.485, 0, 0.99, 0.0825, 1.0725, 0.165, 1.155, 0.2475, 1.2375, 0.33, 1.32, 0.4125, 1.4025, 0.5775, 1.5675, 0.66, 1.65, 0.7425, 1.7325, 0.825, 1.815, 0.9075, 1.8975, 0.495, 1.485, 0, 0.99, 0.0825, 1.0725, 0.165, 1.155, 0.2475, 1.2375, 0.33, 1.32, 0.4125, 1.4025, 0.5775, 1.5675, 0.66, 1.65, 0.7425, 1.7325, 0.825, 1.815, 0.9075, 1.8975, 0.495],
  "SoftwareVersions": "syngo MR E11",
  "SpacingBetweenSlices": 2,
  "StationName": "AWP166078",
  "TaskName": "action",
  "TotalReadoutTime": 0.0534586,
  "TxRefAmp": 232.271,
  "dcmmeta_affine": [
    [-1.997623085975647, -3.569809337022889e-08, -0.0974777415394783, 105.37552642822266],
    [0.034965429455041885, 1.8669042587280273, -0.7165514230728149, -68.79307556152344],
    [-0.0909908190369606, 0.7174040675163269, 1.8646855354309082, -99.51190948486328],
    [0.0, 0.0, 0.0, 1.0]
],
  "dcmmeta_reorient_transform": [
    [0.0, -1.0, 0.0, 99.0],
    [1.0, 0.0, 0.0, 0.0],
    [0.0, 0.0, 1.0, 0.0],
    [0.0, 0.0, 0.0, 1.0]
],
  "dcmmeta_shape": [100, 100, 72, 156],
  "dcmmeta_slice_dim": 2,
  "dcmmeta_version": 0.6,
  "global": {
    "const": {
      "AcquisitionMatrix": [100, 0, 0, 100],
      "AngioFlag": "N",
      "BitsAllocated": 16,
      "BitsStored": 12,
      "BodyPartExamined": "BRAIN",
      "Columns": 900,
      "EchoNumbers": 1,
      "EchoTime": 34.0,
      "EchoTrainLength": 100,
      "FlipAngle": 90.0,
      "HighBit": 11,
      "ImageOrientationPatient": [0.99881155496543, -0.0174827153334, -0.0454954100115, -1.7849046e-08, 0.93345211989275, -0.3587020209976],
      "ImagePositionPatient": [-904.42475434209, -848.80597011541, 294.86903464888],
      "ImageType": [
        "ORIGINAL",
        "PRIMARY",
        "M",
        "ND",
        "MOSAIC"
],
      "ImagedNucleus": "1H",
      "ImagingFrequency": 123.257733,
      "InPlanePhaseEncodingDirection": "COL",
      "MRAcquisitionType": "2D",
      "MagneticFieldStrength": 3.0,
      "Manufacturer": "SIEMENS",
      "ManufacturerModelName": "Prisma",
      "Modality": "MR",
      "NumberOfAverages": 1.0,
      "NumberOfPhaseEncodingSteps": 100,
      "PercentPhaseFieldOfView": 100.0,
      "PercentSampling": 100.0,
      "PerformedProcedureStepStartTime": "102743.462000",
      "PhotometricInterpretation": "MONOCHROME2",
      "PixelBandwidth": 2380.0,
      "PixelRepresentation": 0,
      "PixelSpacing": [2.0, 2.0],
      "ProtocolName": "bold_100x100_s3_2x2x2_static_156",
      "RepetitionTime": 2000.0,
      "Rows": 900,
      "SAR": 0.08303095084429,
      "SamplesPerPixel": 1,
      "ScanOptions": "FS",
      "ScanningSequence": "EP",
      "SequenceName": "*epfid2d1_100",
      "SequenceVariant": "SK",
      "SeriesDescription": "bold_100x100_s3_2x2x2_static_156",
      "SeriesNumber": 5,
      "SeriesTime": "104435.901000",
      "SliceLocation": -73.268205681097,
      "SliceThickness": 2.0,
      "SmallestImagePixelValue": 0,
      "SoftwareVersions": "syngo MR E11",
      "SpacingBetweenSlices": 2.0000000040561,
      "SpecificCharacterSet": "ISO_IR 100",
      "StudyID": "1",
      "StudyTime": "102743.357000",
      "TransmitCoilName": "Body",
      "VariableFlipAngleFlag": "N",
      "WindowCenterWidthExplanation": "Algo1",
      "dBdt": 0.0},
    "slices": {}
  },
  "time": {
    "samples": {
      "AcquisitionNumber": [1, 2, 3, 4, 5, 6, 7, 8, 9, 10, 11, 12, 13, 14, 15, 16, 17, 18, 19, 20, 21, 22, 23, 24, 25, 26, 27, 28, 29, 30, 31, 32, 33, 34, 35, 36, 37, 38, 39, 40, 41, 42, 43, 44, 45, 46, 47, 48, 49, 50, 51, 52, 53, 54, 55, 56, 57, 58, 59, 60, 61, 62, 63, 64, 65, 66, 67, 68, 69, 70, 71, 72, 73, 74, 75, 76, 77, 78, 79, 80, 81, 82, 83, 84, 85, 86, 87, 88, 89, 90, 91, 92, 93, 94, 95, 96, 97, 98, 99, 100, 101, 102, 103, 104, 105, 106, 107, 108, 109, 110, 111, 112, 113, 114, 115, 116, 117, 118, 119, 120, 121, 122, 123, 124, 125, 126, 127, 128, 129, 130, 131, 132, 133, 134, 135, 136, 137, 138, 139, 140, 141, 142, 143, 144, 145, 146, 147, 148, 149, 150, 151, 152, 153, 154, 155, 156],
      "AcquisitionTime": ["104433.350000", "104435.350000", "104437.350000", "104439.350000", "104441.350000", "104443.350000", "104445.350000", "104447.350000", "104449.350000", "104451.350000", "104453.350000", "104455.350000", "104457.350000", "104459.350000", "104501.350000", "104503.350000", "104505.350000", "104507.350000", "104509.350000", "104511.350000", "104513.350000", "104515.350000", "104517.350000", "104519.350000", "104521.350000", "104523.350000", "104525.350000", "104527.350000", "104529.350000", "104531.350000", "104533.350000", "104535.350000", "104537.350000", "104539.350000", "104541.350000", "104543.350000", "104545.350000", "104547.350000", "104549.350000", "104551.350000", "104553.350000", "104555.350000", "104557.350000", "104559.350000", "104601.350000", "104603.350000", "104605.350000", "104607.350000", "104609.350000", "104611.350000", "104613.350000", "104615.350000", "104617.350000", "104619.350000", "104621.350000", "104623.350000", "104625.350000", "104627.350000", "104629.350000", "104631.350000", "104633.350000", "104635.350000", "104637.350000", "104639.350000", "104641.350000", "104643.350000", "104645.350000", "104647.350000", "104649.350000", "104651.350000", "104653.350000", "104655.350000", "104657.350000", "104659.350000", "104701.350000", "104703.350000", "104705.350000", "104707.350000", "104709.350000", "104711.350000", "104713.350000", "104715.350000", "104717.350000", "104719.350000", "104721.350000", "104723.350000", "104725.350000", "104727.350000", "104729.350000", "104731.350000", "104733.350000", "104735.350000", "104737.350000", "104739.350000", "104741.350000", "104743.350000", "104745.350000", "104747.350000", "104749.350000", "104751.350000", "104753.350000", "104755.350000", "104757.350000", "104759.350000", "104801.350000", "104803.350000", "104805.350000", "104807.350000", "104809.350000", "104811.350000", "104813.350000", "104815.350000", "104817.350000", "104819.350000", "104821.350000", "104823.350000", "104825.350000", "104827.350000", "104829.350000", "104831.350000", "104833.350000", "104835.350000", "104837.350000", "104839.350000", "104841.350000", "104843.350000", "104845.350000", "104847.350000", "104849.350000", "104851.350000", "104853.350000", "104855.350000", "104857.350000", "104859.350000", "104901.350000", "104903.350000", "104905.350000", "104907.350000", "104909.350000", "104911.350000", "104913.350000", "104915.350000", "104917.350000", "104919.350000", "104921.350000", "104923.350000", "104925.350000", "104927.350000", "104929.350000", "104931.350000", "104933.350000", "104935.350000", "104937.350000", "104939.350000", "104941.350000", "104943.350000"],
      "ContentTime": ["104435.905000", "104437.400000", "104439.400000", "104441.401000", "104443.399000", "104445.400000", "104447.399000", "104449.401000", "104451.401000", "104453.401000", "104455.401000", "104457.401000", "104459.401000", "104501.399000", "104503.400000", "104505.399000", "104507.401000", "104509.400000", "104511.400000", "104513.401000", "104515.400000", "104517.400000", "104519.400000", "104521.400000", "104523.400000", "104525.400000", "104527.401000", "104529.400000", "104531.400000", "104533.401000", "104535.400000", "104537.399000", "104539.400000", "104541.400000", "104543.401000", "104545.400000", "104547.400000", "104549.400000", "104551.401000", "104553.399000", "104555.400000", "104557.400000", "104559.400000", "104601.400000", "104603.401000", "104605.400000", "104607.400000", "104609.400000", "104611.400000", "104613.400000", "104615.399000", "104617.400000", "104619.401000", "104621.400000", "104623.402000", "104625.400000", "104627.401000", "104629.399000", "104631.400000", "104633.400000", "104635.401000", "104637.401000", "104639.400000", "104641.400000", "104643.400000", "104645.399000", "104647.399000", "104649.400000", "104651.401000", "104653.401000", "104655.400000", "104657.401000", "104659.401000", "104701.401000", "104703.400000", "104705.400000", "104707.399000", "104709.400000", "104711.401000", "104713.401000", "104715.401000", "104717.401000", "104719.401000", "104721.399000", "104723.399000", "104725.400000", "104727.400000", "104729.400000", "104731.401000", "104733.400000", "104735.401000", "104737.400000", "104739.399000", "104741.400000", "104743.401000", "104745.400000", "104747.400000", "104749.401000", "104751.401000", "104753.401000", "104755.399000", "104757.399000", "104759.400000", "104801.400000", "104803.400000", "104805.401000", "104807.401000", "104809.400000", "104811.400000", "104813.400000", "104815.400000", "104817.400000", "104819.400000", "104821.400000", "104823.401000", "104825.401000", "104827.400000", "104829.401000", "104831.399000", "104833.400000", "104835.400000", "104837.400000", "104839.401000", "104841.400000", "104843.401000", "104845.400000", "104847.400000", "104849.400000", "104851.400000", "104853.401000", "104855.400000", "104857.400000", "104859.401000", "104901.401000", "104903.400000", "104905.399000", "104907.399000", "104909.399000", "104911.401000", "104913.401000", "104915.401000", "104917.400000", "104919.401000", "104921.400000", "104923.400000", "104925.400000", "104927.399000", "104929.401000", "104931.401000", "104933.400000", "104935.401000", "104937.401000", "104939.401000", "104941.399000", "104943.400000", "104945.245000"],
      "InstanceCreationTime": ["104435.905000", "104437.400000", "104439.400000", "104441.401000", "104443.399000", "104445.400000", "104447.399000", "104449.401000", "104451.401000", "104453.401000", "104455.401000", "104457.401000", "104459.401000", "104501.399000", "104503.400000", "104505.399000", "104507.401000", "104509.400000", "104511.400000", "104513.401000", "104515.400000", "104517.400000", "104519.400000", "104521.400000", "104523.400000", "104525.400000", "104527.401000", "104529.400000", "104531.400000", "104533.401000", "104535.400000", "104537.399000", "104539.400000", "104541.400000", "104543.401000", "104545.400000", "104547.400000", "104549.400000", "104551.401000", "104553.399000", "104555.400000", "104557.400000", "104559.400000", "104601.400000", "104603.401000", "104605.400000", "104607.400000", "104609.400000", "104611.400000", "104613.400000", "104615.399000", "104617.400000", "104619.401000", "104621.400000", "104623.402000", "104625.400000", "104627.401000", "104629.399000", "104631.400000", "104633.400000", "104635.401000", "104637.401000", "104639.400000", "104641.400000", "104643.400000", "104645.399000", "104647.399000", "104649.400000", "104651.401000", "104653.401000", "104655.400000", "104657.401000", "104659.401000", "104701.401000", "104703.400000", "104705.400000", "104707.399000", "104709.400000", "104711.401000", "104713.401000", "104715.401000", "104717.401000", "104719.401000", "104721.399000", "104723.399000", "104725.400000", "104727.400000", "104729.400000", "104731.401000", "104733.400000", "104735.401000", "104737.400000", "104739.399000", "104741.400000", "104743.401000", "104745.400000", "104747.400000", "104749.401000", "104751.401000", "104753.401000", "104755.399000", "104757.399000", "104759.400000", "104801.400000", "104803.400000", "104805.401000", "104807.401000", "104809.400000", "104811.400000", "104813.400000", "104815.400000", "104817.400000", "104819.400000", "104821.400000", "104823.401000", "104825.401000", "104827.400000", "104829.401000", "104831.399000", "104833.400000", "104835.400000", "104837.400000", "104839.401000", "104841.400000", "104843.401000", "104845.400000", "104847.400000", "104849.400000", "104851.400000", "104853.401000", "104855.400000", "104857.400000", "104859.401000", "104901.401000", "104903.400000", "104905.399000", "104907.399000", "104909.399000", "104911.401000", "104913.401000", "104915.401000", "104917.400000", "104919.401000", "104921.400000", "104923.400000", "104925.400000", "104927.399000", "104929.401000", "104931.401000", "104933.400000", "104935.401000", "104937.401000", "104939.401000", "104941.399000", "104943.400000", "104945.245000"],
      "InstanceNumber": [1, 2, 3, 4, 5, 6, 7, 8, 9, 10, 11, 12, 13, 14, 15, 16, 17, 18, 19, 20, 21, 22, 23, 24, 25, 26, 27, 28, 29, 30, 31, 32, 33, 34, 35, 36, 37, 38, 39, 40, 41, 42, 43, 44, 45, 46, 47, 48, 49, 50, 51, 52, 53, 54, 55, 56, 57, 58, 59, 60, 61, 62, 63, 64, 65, 66, 67, 68, 69, 70, 71, 72, 73, 74, 75, 76, 77, 78, 79, 80, 81, 82, 83, 84, 85, 86, 87, 88, 89, 90, 91, 92, 93, 94, 95, 96, 97, 98, 99, 100, 101, 102, 103, 104, 105, 106, 107, 108, 109, 110, 111, 112, 113, 114, 115, 116, 117, 118, 119, 120, 121, 122, 123, 124, 125, 126, 127, 128, 129, 130, 131, 132, 133, 134, 135, 136, 137, 138, 139, 140, 141, 142, 143, 144, 145, 146, 147, 148, 149, 150, 151, 152, 153, 154, 155, 156],
      "LargestImagePixelValue": [3781, 3701, 3670, 3707, 3707, 3672, 3735, 3692, 3684, 3616, 3684, 3686, 3650, 3671, 3648, 3650, 3663, 3654, 3726, 3744, 3729, 3672, 3664, 3651, 3664, 3660, 3670, 3673, 3680, 3587, 3654, 3723, 3682, 3697, 3697, 3707, 3700, 3683, 3716, 3693, 3645, 3695, 3700, 3725, 3688, 3725, 3700, 3718, 3705, 3712, 3715, 3692, 3684, 3699, 3695, 3711, 3678, 3679, 3618, 3625, 3635, 3595, 3719, 3726, 3727, 3755, 3723, 3738, 3769, 3774, 3742, 3739, 3709, 3692, 3692, 3716, 3715, 3702, 3748, 3761, 3743, 3722, 3718, 3711, 3728, 3701, 3651, 3638, 3693, 3712, 3687, 3674, 3653, 3656, 3712, 3708, 3709, 3749, 3704, 3723, 3722, 3753, 3735, 3730, 3710, 3704, 3645, 3693, 3708, 3710, 3704, 3718, 3704, 3764, 3703, 3725, 3701, 3697, 3704, 3711, 3708, 3733, 3695, 3759, 3748, 3755, 3719, 3663, 3659, 3726, 3763, 3774, 3753, 3786, 3780, 3755, 3765, 3754, 3748, 3767, 3755, 3727, 3699, 3699, 3715, 3730, 3715, 3713, 3709, 3752, 3703, 3727, 3775, 3761, 3711, 3697],
      "WindowCenter": [779.0, 778.0, 779.0, 780.0, 780.0, 779.0, 778.0, 778.0, 779.0, 778.0, 779.0, 780.0, 780.0, 780.0, 779.0, 780.0, 781.0, 781.0, 780.0, 779.0, 779.0, 780.0, 780.0, 780.0, 780.0, 781.0, 780.0, 780.0, 779.0, 778.0, 778.0, 779.0, 780.0, 780.0, 779.0, 779.0, 779.0, 778.0, 778.0, 779.0, 779.0, 779.0, 778.0, 778.0, 778.0, 778.0, 778.0, 778.0, 779.0, 779.0, 779.0, 779.0, 779.0, 779.0, 778.0, 777.0, 777.0, 777.0, 777.0, 778.0, 778.0, 777.0, 780.0, 780.0, 779.0, 781.0, 780.0, 779.0, 778.0, 777.0, 778.0, 779.0, 779.0, 779.0, 779.0, 778.0, 778.0, 779.0, 780.0, 779.0, 779.0, 780.0, 780.0, 779.0, 779.0, 778.0, 779.0, 779.0, 780.0, 780.0, 780.0, 780.0, 779.0, 779.0, 779.0, 780.0, 780.0, 780.0, 779.0, 779.0, 778.0, 778.0, 777.0, 779.0, 779.0, 778.0, 777.0, 777.0, 779.0, 778.0, 778.0, 777.0, 777.0, 779.0, 779.0, 779.0, 779.0, 778.0, 778.0, 779.0, 780.0, 782.0, 782.0, 781.0, 780.0, 780.0, 781.0, 781.0, 781.0, 780.0, 778.0, 777.0, 777.0, 777.0, 778.0, 779.0, 781.0, 782.0, 780.0, 779.0, 779.0, 781.0, 782.0, 781.0, 781.0, 781.0, 781.0, 781.0, 781.0, 780.0, 779.0, 778.0, 777.0, 777.0, 778.0, 779.0],
      "WindowWidth": [1686.0, 1684.0, 1688.0, 1691.0, 1690.0, 1686.0, 1685.0, 1685.0, 1686.0, 1686.0, 1689.0, 1692.0, 1692.0, 1690.0, 1689.0, 1691.0, 1693.0, 1693.0, 1691.0, 1689.0, 1689.0, 1691.0, 1691.0, 1691.0, 1692.0, 1692.0, 1691.0, 1689.0, 1689.0, 1686.0, 1686.0, 1688.0, 1689.0, 1690.0, 1688.0, 1687.0, 1687.0, 1686.0, 1685.0, 1686.0, 1689.0, 1689.0, 1685.0, 1684.0, 1684.0, 1684.0, 1685.0, 1686.0, 1688.0, 1688.0, 1687.0, 1687.0, 1688.0, 1688.0, 1685.0, 1683.0, 1682.0, 1683.0, 1683.0, 1683.0, 1684.0, 1683.0, 1690.0, 1690.0, 1689.0, 1692.0, 1691.0, 1688.0, 1685.0, 1683.0, 1684.0, 1687.0, 1688.0, 1688.0, 1687.0, 1685.0, 1686.0, 1687.0, 1689.0, 1688.0, 1689.0, 1690.0, 1689.0, 1688.0, 1687.0, 1685.0, 1687.0, 1688.0, 1690.0, 1691.0, 1690.0, 1690.0, 1689.0, 1687.0, 1688.0, 1689.0, 1690.0, 1691.0, 1688.0, 1687.0, 1686.0, 1684.0, 1682.0, 1686.0, 1686.0, 1683.0, 1681.0, 1683.0, 1686.0, 1684.0, 1683.0, 1682.0, 1682.0, 1686.0, 1686.0, 1687.0, 1687.0, 1685.0, 1684.0, 1686.0, 1689.0, 1694.0, 1694.0, 1693.0, 1691.0, 1690.0, 1692.0, 1693.0, 1691.0, 1688.0, 1684.0, 1682.0, 1682.0, 1682.0, 1683.0, 1687.0, 1693.0, 1695.0, 1689.0, 1685.0, 1687.0, 1692.0, 1694.0, 1691.0, 1692.0, 1691.0, 1692.0, 1692.0, 1691.0, 1689.0, 1685.0, 1683.0, 1680.0, 1680.0, 1683.0, 1686.0]
    },
    "slices": {}
  }
}