{
  "AcquisitionMatrixPE": 100,
  "AcquisitionNumber": 1,
  "AcquisitionTime": "11:13:8.012500",
  "BandwidthPerPixelPhaseEncode": 18.519,
  "BaseResolution": 100,
  "BodyPartExamined": "BRAIN",
  "CoilCombinationMethod": "Sum of Squares",
  "ConsistencyInfo": "N4_VE11C_LATEST_20160120",
  "ConversionSoftware": "dcm2niix",
  "ConversionSoftwareVersion": "v1.0.20211006",
  "DerivedVendorReportedEchoSpacing": 0.000539986,
  "DeviceSerialNumber": "166078",
  "DwellTime": 2.1e-06,
  "EchoTime": 0.034,
  "EchoTrainLength": 100,
  "EffectiveEchoSpacing": 0.000539986,
  "FlipAngle": 90,
  "ImageOrientationPatientDICOM": [0.998812, -0.0174827, -0.0454954, -1.7849e-08, 0.933452, -0.358702],
  "ImageOrientationText": "Tra>Cor(-21.0)>Sag(-2.8)",
  "ImageType": [
    "ORIGINAL",
    "PRIMARY",
    "M",
    "ND",
    "MOSAIC"
],
  "ImagingFrequency": 123.258,
  "InPlanePhaseEncodingDirectionDICOM": "COL",
  "InstitutionAddress": "Street StreetNo,Bei Jing,District,CN,ZIP",
  "InstitutionName": "BeiJing Normal University",
  "InstitutionalDepartmentName": "Department",
  "MRAcquisitionType": "2D",
  "MagneticFieldStrength": 3,
  "Manufacturer": "Siemens",
  "ManufacturersModelName": "Prisma",
  "Modality": "MR",
  "MultibandAccelerationFactor": 3,
  "PartialFourier": 1,
  "PatientPosition": "HFS",
  "PercentPhaseFOV": 100,
  "PercentSampling": 100,
  "PhaseEncodingDirection": "j-",
  "PhaseEncodingSteps": 100,
  "PhaseResolution": 1,
  "PixelBandwidth": 2380,
  "ProcedureStepDescription": "BNU_P2018_64CH^Zhen.ZongLei",
  "ProtocolName": "bold_100x100_s3_2x2x2_static_156",
  "PulseSequenceDetails": "%SiemensSeq%\\ep2d_bold",
  "ReceiveCoilActiveElements": "HC1-7;NC1",
  "ReceiveCoilName": "HeadNeck_64",
  "ReconMatrixPE": 100,
  "RefLinesPE": 32,
  "RepetitionTime": 2,
  "SAR": 0.083031,
  "ScanOptions": "FS",
  "ScanningSequence": "EP",
  "SequenceName": "*epfid2d1_100",
  "SequenceVariant": "SK",
  "SeriesDescription": "bold_100x100_s3_2x2x2_static_156",
  "SeriesNumber": 11,
  "ShimSetting": [-5477, -11466, -1248, 391, -89, -423, -111, 50],
  "SliceThickness": 2,
  "SliceTiming": [1.485, 0, 0.99, 0.0825, 1.0725, 0.165, 1.155, 0.2475, 1.2375, 0.33, 1.32, 0.4125, 1.4025, 0.5775, 1.5675, 0.66, 1.65, 0.7425, 1.7325, 0.825, 1.815, 0.9075, 1.8975, 0.495, 1.485, 0, 0.99, 0.0825, 1.0725, 0.165, 1.155, 0.2475, 1.2375, 0.33, 1.32, 0.4125, 1.4025, 0.5775, 1.5675, 0.66, 1.65, 0.7425, 1.7325, 0.825, 1.815, 0.9075, 1.8975, 0.495, 1.485, 0, 0.99, 0.0825, 1.0725, 0.165, 1.155, 0.2475, 1.2375, 0.33, 1.32, 0.4125, 1.4025, 0.5775, 1.5675, 0.66, 1.65, 0.7425, 1.7325, 0.825, 1.815, 0.9075, 1.8975, 0.495],
  "SoftwareVersions": "syngo MR E11",
  "SpacingBetweenSlices": 2,
  "StationName": "AWP166078",
  "TaskName": "action",
  "TotalReadoutTime": 0.0534586,
  "TxRefAmp": 232.271,
  "dcmmeta_affine": [
    [-1.997623085975647, -3.569809337022889e-08, -0.0974777415394783, 105.37552642822266],
    [0.034965429455041885, 1.8669042587280273, -0.7165514230728149, -68.79307556152344],
    [-0.0909908190369606, 0.7174040675163269, 1.8646855354309082, -99.51190948486328],
    [0.0, 0.0, 0.0, 1.0]
],
  "dcmmeta_reorient_transform": [
    [0.0, -1.0, 0.0, 99.0],
    [1.0, 0.0, 0.0, 0.0],
    [0.0, 0.0, 1.0, 0.0],
    [0.0, 0.0, 0.0, 1.0]
],
  "dcmmeta_shape": [100, 100, 72, 156],
  "dcmmeta_slice_dim": 2,
  "dcmmeta_version": 0.6,
  "global": {
    "const": {
      "AcquisitionMatrix": [100, 0, 0, 100],
      "AngioFlag": "N",
      "BitsAllocated": 16,
      "BitsStored": 12,
      "BodyPartExamined": "BRAIN",
      "Columns": 900,
      "EchoNumbers": 1,
      "EchoTime": 34.0,
      "EchoTrainLength": 100,
      "FlipAngle": 90.0,
      "HighBit": 11,
      "ImageOrientationPatient": [0.99881155496543, -0.0174827153334, -0.0454954100115, -1.7849046e-08, 0.93345211989275, -0.3587020209976],
      "ImagePositionPatient": [-904.42475434209, -848.80597011541, 294.86903464888],
      "ImageType": [
        "ORIGINAL",
        "PRIMARY",
        "M",
        "ND",
        "MOSAIC"
],
      "ImagedNucleus": "1H",
      "ImagingFrequency": 123.257744,
      "InPlanePhaseEncodingDirection": "COL",
      "MRAcquisitionType": "2D",
      "MagneticFieldStrength": 3.0,
      "Manufacturer": "SIEMENS",
      "ManufacturerModelName": "Prisma",
      "Modality": "MR",
      "NumberOfAverages": 1.0,
      "NumberOfPhaseEncodingSteps": 100,
      "PercentPhaseFieldOfView": 100.0,
      "PercentSampling": 100.0,
      "PerformedProcedureStepStartTime": "102743.462000",
      "PhotometricInterpretation": "MONOCHROME2",
      "PixelBandwidth": 2380.0,
      "PixelRepresentation": 0,
      "PixelSpacing": [2.0, 2.0],
      "ProtocolName": "bold_100x100_s3_2x2x2_static_156",
      "RepetitionTime": 2000.0,
      "Rows": 900,
      "SAR": 0.08303095084429,
      "SamplesPerPixel": 1,
      "ScanOptions": "FS",
      "ScanningSequence": "EP",
      "SequenceName": "*epfid2d1_100",
      "SequenceVariant": "SK",
      "SeriesDescription": "bold_100x100_s3_2x2x2_static_156",
      "SeriesNumber": 11,
      "SeriesTime": "111309.949000",
      "SliceLocation": -73.268205681097,
      "SliceThickness": 2.0,
      "SmallestImagePixelValue": 0,
      "SoftwareVersions": "syngo MR E11",
      "SpacingBetweenSlices": 2.0000000040561,
      "SpecificCharacterSet": "ISO_IR 100",
      "StudyID": "1",
      "StudyTime": "102743.357000",
      "TransmitCoilName": "Body",
      "VariableFlipAngleFlag": "N",
      "WindowCenterWidthExplanation": "Algo1",
      "dBdt": 0.0},
    "slices": {}
  },
  "time": {
    "samples": {
      "AcquisitionNumber": [1, 2, 3, 4, 5, 6, 7, 8, 9, 10, 11, 12, 13, 14, 15, 16, 17, 18, 19, 20, 21, 22, 23, 24, 25, 26, 27, 28, 29, 30, 31, 32, 33, 34, 35, 36, 37, 38, 39, 40, 41, 42, 43, 44, 45, 46, 47, 48, 49, 50, 51, 52, 53, 54, 55, 56, 57, 58, 59, 60, 61, 62, 63, 64, 65, 66, 67, 68, 69, 70, 71, 72, 73, 74, 75, 76, 77, 78, 79, 80, 81, 82, 83, 84, 85, 86, 87, 88, 89, 90, 91, 92, 93, 94, 95, 96, 97, 98, 99, 100, 101, 102, 103, 104, 105, 106, 107, 108, 109, 110, 111, 112, 113, 114, 115, 116, 117, 118, 119, 120, 121, 122, 123, 124, 125, 126, 127, 128, 129, 130, 131, 132, 133, 134, 135, 136, 137, 138, 139, 140, 141, 142, 143, 144, 145, 146, 147, 148, 149, 150, 151, 152, 153, 154, 155, 156],
      "AcquisitionTime": ["111308.012500", "111310.012500", "111312.012500", "111314.012500", "111316.012500", "111318.012500", "111320.012500", "111322.012500", "111324.012500", "111326.012500", "111328.012500", "111330.012500", "111332.012500", "111334.012500", "111336.012500", "111338.012500", "111340.012500", "111342.012500", "111344.012500", "111346.012500", "111348.012500", "111350.012500", "111352.012500", "111354.012500", "111356.012500", "111358.012500", "111400.012500", "111402.012500", "111404.012500", "111406.012500", "111408.012500", "111410.012500", "111412.012500", "111414.012500", "111416.012500", "111418.012500", "111420.012500", "111422.012500", "111424.012500", "111426.012500", "111428.012500", "111430.012500", "111432.012500", "111434.012500", "111436.012500", "111438.012500", "111440.012500", "111442.012500", "111444.012500", "111446.012500", "111448.012500", "111450.012500", "111452.012500", "111454.012500", "111456.012500", "111458.012500", "111500.012500", "111502.012500", "111504.012500", "111506.012500", "111508.012500", "111510.012500", "111512.012500", "111514.012500", "111516.012500", "111518.012500", "111520.012500", "111522.012500", "111524.012500", "111526.012500", "111528.012500", "111530.012500", "111532.012500", "111534.012500", "111536.012500", "111538.012500", "111540.012500", "111542.012500", "111544.012500", "111546.012500", "111548.012500", "111550.012500", "111552.012500", "111554.012500", "111556.012500", "111558.012500", "111600.012500", "111602.012500", "111604.012500", "111606.012500", "111608.012500", "111610.012500", "111612.012500", "111614.012500", "111616.012500", "111618.012500", "111620.012500", "111622.012500", "111624.012500", "111626.012500", "111628.012500", "111630.012500", "111632.012500", "111634.012500", "111636.012500", "111638.012500", "111640.012500", "111642.012500", "111644.012500", "111646.012500", "111648.012500", "111650.012500", "111652.012500", "111654.012500", "111656.012500", "111658.012500", "111700.012500", "111702.012500", "111704.012500", "111706.012500", "111708.012500", "111710.012500", "111712.012500", "111714.012500", "111716.012500", "111718.012500", "111720.012500", "111722.012500", "111724.012500", "111726.012500", "111728.012500", "111730.012500", "111732.012500", "111734.012500", "111736.012500", "111738.012500", "111740.012500", "111742.012500", "111744.012500", "111746.012500", "111748.012500", "111750.012500", "111752.012500", "111754.012500", "111756.012500", "111758.012500", "111800.012500", "111802.012500", "111804.012500", "111806.012500", "111808.012500", "111810.012500", "111812.012500", "111814.012500", "111816.012500", "111818.012500"],
      "ContentTime": ["111309.953000", "111311.449000", "111313.949000", "111315.949000", "111317.449000", "111319.948000", "111321.950000", "111323.950000", "111325.449000", "111327.949000", "111329.448000", "111331.449000", "111333.449000", "111335.949000", "111337.949000", "111339.450000", "111341.950000", "111343.448000", "111345.949000", "111347.948000", "111349.449000", "111351.449000", "111353.448000", "111355.948000", "111357.950000", "111359.450000", "111401.949000", "111403.448000", "111405.449000", "111407.949000", "111409.948000", "111411.449000", "111413.448000", "111415.450000", "111417.450000", "111419.449000", "111421.949000", "111423.949000", "111425.448000", "111427.449000", "111429.448000", "111431.448000", "111433.449000", "111435.949000", "111437.949000", "111439.449000", "111441.449000", "111443.948000", "111445.448000", "111447.949000", "111449.950000", "111451.450000", "111453.949000", "111455.449000", "111457.449000", "111459.948000", "111501.448000", "111503.949000", "111505.448000", "111507.950000", "111509.450000", "111511.448000", "111513.449000", "111515.948000", "111517.949000", "111519.449000", "111521.948000", "111523.449000", "111525.449000", "111527.449000", "111529.949000", "111531.449000", "111533.448000", "111535.449000", "111537.949000", "111539.448000", "111541.448000", "111543.450000", "111545.949000", "111547.949000", "111549.949000", "111551.449000", "111553.449000", "111555.449000", "111557.949000", "111559.949000", "111601.450000", "111603.949000", "111605.448000", "111607.449000", "111609.449000", "111611.449000", "111613.448000", "111615.949000", "111617.449000", "111619.950000", "111621.949000", "111623.948000", "111625.948000", "111627.949000", "111629.949000", "111631.448000", "111633.950000", "111635.950000", "111637.950000", "111639.948000", "111641.949000", "111643.449000", "111645.948000", "111647.949000", "111649.948000", "111651.450000", "111653.449000", "111655.450000", "111657.949000", "111659.949000", "111701.948000", "111703.948000", "111705.949000", "111707.448000", "111709.449000", "111711.450000", "111713.448000", "111715.449000", "111717.949000", "111719.949000", "111721.949000", "111723.448000", "111725.448000", "111727.449000", "111729.450000", "111731.448000", "111733.949000", "111735.449000", "111737.449000", "111739.949000", "111741.449000", "111743.449000", "111745.450000", "111747.950000", "111749.949000", "111751.949000", "111753.949000", "111755.949000", "111757.448000", "111759.949000", "111801.950000", "111803.950000", "111805.450000", "111807.949000", "111809.448000", "111811.949000", "111813.449000", "111815.948000", "111817.949000", "111819.429000"],
      "InstanceCreationTime": ["111309.953000", "111311.449000", "111313.949000", "111315.949000", "111317.449000", "111319.948000", "111321.950000", "111323.950000", "111325.449000", "111327.949000", "111329.448000", "111331.449000", "111333.449000", "111335.949000", "111337.949000", "111339.450000", "111341.950000", "111343.448000", "111345.949000", "111347.948000", "111349.449000", "111351.449000", "111353.448000", "111355.948000", "111357.950000", "111359.450000", "111401.949000", "111403.448000", "111405.449000", "111407.949000", "111409.948000", "111411.449000", "111413.448000", "111415.450000", "111417.450000", "111419.449000", "111421.949000", "111423.949000", "111425.448000", "111427.449000", "111429.448000", "111431.448000", "111433.449000", "111435.949000", "111437.949000", "111439.449000", "111441.449000", "111443.948000", "111445.448000", "111447.949000", "111449.950000", "111451.450000", "111453.949000", "111455.449000", "111457.449000", "111459.948000", "111501.448000", "111503.949000", "111505.448000", "111507.950000", "111509.450000", "111511.448000", "111513.449000", "111515.948000", "111517.949000", "111519.449000", "111521.948000", "111523.449000", "111525.449000", "111527.449000", "111529.949000", "111531.449000", "111533.448000", "111535.449000", "111537.949000", "111539.448000", "111541.448000", "111543.450000", "111545.949000", "111547.949000", "111549.949000", "111551.449000", "111553.449000", "111555.449000", "111557.949000", "111559.949000", "111601.450000", "111603.949000", "111605.448000", "111607.449000", "111609.449000", "111611.449000", "111613.448000", "111615.949000", "111617.449000", "111619.950000", "111621.949000", "111623.948000", "111625.948000", "111627.949000", "111629.949000", "111631.448000", "111633.950000", "111635.950000", "111637.950000", "111639.948000", "111641.949000", "111643.449000", "111645.948000", "111647.949000", "111649.948000", "111651.450000", "111653.449000", "111655.450000", "111657.949000", "111659.949000", "111701.948000", "111703.948000", "111705.949000", "111707.448000", "111709.449000", "111711.450000", "111713.448000", "111715.449000", "111717.949000", "111719.949000", "111721.949000", "111723.448000", "111725.448000", "111727.449000", "111729.450000", "111731.448000", "111733.949000", "111735.449000", "111737.449000", "111739.949000", "111741.449000", "111743.449000", "111745.450000", "111747.950000", "111749.949000", "111751.949000", "111753.949000", "111755.949000", "111757.448000", "111759.949000", "111801.950000", "111803.950000", "111805.450000", "111807.949000", "111809.448000", "111811.949000", "111813.449000", "111815.948000", "111817.949000", "111819.429000"],
      "InstanceNumber": [1, 2, 3, 4, 5, 6, 7, 8, 9, 10, 11, 12, 13, 14, 15, 16, 17, 18, 19, 20, 21, 22, 23, 24, 25, 26, 27, 28, 29, 30, 31, 32, 33, 34, 35, 36, 37, 38, 39, 40, 41, 42, 43, 44, 45, 46, 47, 48, 49, 50, 51, 52, 53, 54, 55, 56, 57, 58, 59, 60, 61, 62, 63, 64, 65, 66, 67, 68, 69, 70, 71, 72, 73, 74, 75, 76, 77, 78, 79, 80, 81, 82, 83, 84, 85, 86, 87, 88, 89, 90, 91, 92, 93, 94, 95, 96, 97, 98, 99, 100, 101, 102, 103, 104, 105, 106, 107, 108, 109, 110, 111, 112, 113, 114, 115, 116, 117, 118, 119, 120, 121, 122, 123, 124, 125, 126, 127, 128, 129, 130, 131, 132, 133, 134, 135, 136, 137, 138, 139, 140, 141, 142, 143, 144, 145, 146, 147, 148, 149, 150, 151, 152, 153, 154, 155, 156],
      "LargestImagePixelValue": [3491, 3451, 3388, 3381, 3370, 3361, 3391, 3371, 3339, 3367, 3340, 3337, 3386, 3370, 3346, 3389, 3337, 3416, 3395, 3386, 3441, 3426, 3426, 3451, 3455, 3445, 3452, 3446, 3419, 3486, 3460, 3454, 3466, 3442, 3457, 3453, 3454, 3438, 3437, 3398, 3414, 3431, 3431, 3441, 3430, 3388, 3451, 3422, 3415, 3441, 3406, 3399, 3363, 3394, 3415, 3392, 3417, 3389, 3428, 3451, 3441, 3417, 3448, 3422, 3403, 3407, 3401, 3345, 3360, 3373, 3360, 3406, 3406, 3414, 3450, 3385, 3413, 3423, 3395, 3422, 3404, 3388, 3382, 3396, 3384, 3396, 3370, 3395, 3421, 3420, 3412, 3393, 3374, 3390, 3394, 3383, 3380, 3401, 3392, 3354, 3383, 3441, 3455, 3387, 3449, 3438, 3365, 3393, 3347, 3366, 3375, 3404, 3389, 3407, 3462, 3354, 3358, 3400, 3399, 3385, 3396, 3385, 3374, 3399, 3377, 3396, 3442, 3399, 3407, 3437, 3374, 3357, 3363, 3352, 3340, 3348, 3388, 3396, 3379, 3390, 3420, 3374, 3394, 3366, 3390, 3384, 3383, 3384, 3412, 3375, 3382, 3347, 3360, 3345, 3344, 3372],
      "WindowCenter": [763.0, 762.0, 762.0, 763.0, 764.0, 765.0, 766.0, 767.0, 767.0, 768.0, 769.0, 768.0, 769.0, 769.0, 769.0, 769.0, 767.0, 766.0, 765.0, 765.0, 766.0, 766.0, 765.0, 766.0, 764.0, 763.0, 764.0, 764.0, 764.0, 764.0, 764.0, 764.0, 765.0, 764.0, 765.0, 764.0, 765.0, 765.0, 766.0, 766.0, 767.0, 767.0, 766.0, 764.0, 765.0, 765.0, 766.0, 766.0, 766.0, 765.0, 766.0, 766.0, 765.0, 765.0, 764.0, 763.0, 764.0, 764.0, 765.0, 767.0, 767.0, 766.0, 766.0, 767.0, 767.0, 767.0, 766.0, 766.0, 767.0, 768.0, 769.0, 768.0, 767.0, 767.0, 767.0, 766.0, 767.0, 767.0, 766.0, 766.0, 766.0, 767.0, 767.0, 767.0, 767.0, 768.0, 769.0, 768.0, 767.0, 766.0, 766.0, 766.0, 766.0, 765.0, 765.0, 764.0, 765.0, 767.0, 768.0, 767.0, 767.0, 767.0, 766.0, 765.0, 765.0, 766.0, 767.0, 767.0, 766.0, 766.0, 767.0, 767.0, 767.0, 766.0, 767.0, 767.0, 768.0, 767.0, 766.0, 765.0, 766.0, 767.0, 768.0, 767.0, 766.0, 766.0, 766.0, 765.0, 764.0, 765.0, 767.0, 768.0, 769.0, 769.0, 768.0, 767.0, 767.0, 767.0, 767.0, 767.0, 768.0, 766.0, 767.0, 766.0, 766.0, 766.0, 766.0, 766.0, 767.0, 767.0, 767.0, 766.0, 766.0, 767.0, 767.0, 767.0],
      "WindowWidth": [1642.0, 1639.0, 1640.0, 1642.0, 1646.0, 1648.0, 1650.0, 1653.0, 1653.0, 1656.0, 1657.0, 1656.0, 1657.0, 1657.0, 1658.0, 1657.0, 1653.0, 1650.0, 1648.0, 1647.0, 1649.0, 1649.0, 1649.0, 1649.0, 1645.0, 1643.0, 1645.0, 1646.0, 1646.0, 1645.0, 1645.0, 1646.0, 1647.0, 1646.0, 1648.0, 1646.0, 1647.0, 1649.0, 1650.0, 1650.0, 1653.0, 1653.0, 1649.0, 1646.0, 1649.0, 1648.0, 1651.0, 1651.0, 1651.0, 1649.0, 1650.0, 1650.0, 1649.0, 1648.0, 1646.0, 1644.0, 1645.0, 1645.0, 1648.0, 1652.0, 1654.0, 1652.0, 1652.0, 1652.0, 1654.0, 1653.0, 1651.0, 1650.0, 1653.0, 1656.0, 1659.0, 1657.0, 1654.0, 1653.0, 1653.0, 1652.0, 1652.0, 1652.0, 1650.0, 1651.0, 1652.0, 1652.0, 1654.0, 1653.0, 1653.0, 1656.0, 1657.0, 1656.0, 1653.0, 1650.0, 1651.0, 1650.0, 1649.0, 1648.0, 1647.0, 1645.0, 1648.0, 1652.0, 1657.0, 1653.0, 1653.0, 1653.0, 1651.0, 1647.0, 1649.0, 1650.0, 1652.0, 1652.0, 1650.0, 1651.0, 1655.0, 1654.0, 1653.0, 1651.0, 1653.0, 1652.0, 1655.0, 1652.0, 1650.0, 1648.0, 1651.0, 1652.0, 1655.0, 1652.0, 1650.0, 1650.0, 1650.0, 1648.0, 1646.0, 1647.0, 1652.0, 1657.0, 1660.0, 1657.0, 1654.0, 1652.0, 1652.0, 1653.0, 1652.0, 1654.0, 1654.0, 1651.0, 1653.0, 1650.0, 1649.0, 1649.0, 1651.0, 1650.0, 1652.0, 1653.0, 1652.0, 1649.0, 1651.0, 1652.0, 1653.0, 1652.0]
    },
    "slices": {}
  }
}