{
  "AcquisitionMatrixPE": 100,
  "AcquisitionNumber": 1,
  "AcquisitionTime": "10:51:24.317500",
  "BandwidthPerPixelPhaseEncode": 18.519,
  "BaseResolution": 100,
  "BodyPartExamined": "BRAIN",
  "CoilCombinationMethod": "Sum of Squares",
  "ConsistencyInfo": "N4_VE11C_LATEST_20160120",
  "ConversionSoftware": "dcm2niix",
  "ConversionSoftwareVersion": "v1.0.20211006",
  "DerivedVendorReportedEchoSpacing": 0.000539986,
  "DeviceSerialNumber": "166078",
  "DwellTime": 2.1e-06,
  "EchoTime": 0.034,
  "EchoTrainLength": 100,
  "EffectiveEchoSpacing": 0.000539986,
  "FlipAngle": 90,
  "ImageOrientationPatientDICOM": [0.998812, -0.0174827, -0.0454954, -1.7849e-08, 0.933452, -0.358702],
  "ImageOrientationText": "Tra>Cor(-21.0)>Sag(-2.8)",
  "ImageType": [
    "ORIGINAL",
    "PRIMARY",
    "M",
    "ND",
    "MOSAIC"
],
  "ImagingFrequency": 123.258,
  "InPlanePhaseEncodingDirectionDICOM": "COL",
  "InstitutionAddress": "Street StreetNo,Bei Jing,District,CN,ZIP",
  "InstitutionName": "BeiJing Normal University",
  "InstitutionalDepartmentName": "Department",
  "MRAcquisitionType": "2D",
  "MagneticFieldStrength": 3,
  "Manufacturer": "Siemens",
  "ManufacturersModelName": "Prisma",
  "Modality": "MR",
  "MultibandAccelerationFactor": 3,
  "PartialFourier": 1,
  "PatientPosition": "HFS",
  "PercentPhaseFOV": 100,
  "PercentSampling": 100,
  "PhaseEncodingDirection": "j-",
  "PhaseEncodingSteps": 100,
  "PhaseResolution": 1,
  "PixelBandwidth": 2380,
  "ProcedureStepDescription": "BNU_P2018_64CH^Zhen.ZongLei",
  "ProtocolName": "bold_100x100_s3_2x2x2_static_156",
  "PulseSequenceDetails": "%SiemensSeq%\\ep2d_bold",
  "ReceiveCoilActiveElements": "HC1-7;NC1",
  "ReceiveCoilName": "HeadNeck_64",
  "ReconMatrixPE": 100,
  "RefLinesPE": 32,
  "RepetitionTime": 2,
  "SAR": 0.083031,
  "ScanOptions": "FS",
  "ScanningSequence": "EP",
  "SequenceName": "*epfid2d1_100",
  "SequenceVariant": "SK",
  "SeriesDescription": "bold_100x100_s3_2x2x2_static_156",
  "SeriesNumber": 6,
  "ShimSetting": [-5477, -11466, -1248, 391, -89, -423, -111, 50],
  "SliceThickness": 2,
  "SliceTiming": [1.485, 0, 0.99, 0.0825, 1.0725, 0.165, 1.155, 0.2475, 1.2375, 0.33, 1.32, 0.4125, 1.4025, 0.5775, 1.5675, 0.66, 1.65, 0.7425, 1.7325, 0.825, 1.815, 0.9075, 1.8975, 0.495, 1.485, 0, 0.99, 0.0825, 1.0725, 0.165, 1.155, 0.2475, 1.2375, 0.33, 1.32, 0.4125, 1.4025, 0.5775, 1.5675, 0.66, 1.65, 0.7425, 1.7325, 0.825, 1.815, 0.9075, 1.8975, 0.495, 1.485, 0, 0.99, 0.0825, 1.0725, 0.165, 1.155, 0.2475, 1.2375, 0.33, 1.32, 0.4125, 1.4025, 0.5775, 1.5675, 0.66, 1.65, 0.7425, 1.7325, 0.825, 1.815, 0.9075, 1.8975, 0.495],
  "SoftwareVersions": "syngo MR E11",
  "SpacingBetweenSlices": 2,
  "StationName": "AWP166078",
  "TaskName": "action",
  "TotalReadoutTime": 0.0534586,
  "TxRefAmp": 232.271,
  "dcmmeta_affine": [
    [-1.997623085975647, -3.569809337022889e-08, -0.0974777415394783, 105.37552642822266],
    [0.034965429455041885, 1.8669042587280273, -0.7165514230728149, -68.79307556152344],
    [-0.0909908190369606, 0.7174040675163269, 1.8646855354309082, -99.51190948486328],
    [0.0, 0.0, 0.0, 1.0]
],
  "dcmmeta_reorient_transform": [
    [0.0, -1.0, 0.0, 99.0],
    [1.0, 0.0, 0.0, 0.0],
    [0.0, 0.0, 1.0, 0.0],
    [0.0, 0.0, 0.0, 1.0]
],
  "dcmmeta_shape": [100, 100, 72, 156],
  "dcmmeta_slice_dim": 2,
  "dcmmeta_version": 0.6,
  "global": {
    "const": {
      "AcquisitionMatrix": [100, 0, 0, 100],
      "AngioFlag": "N",
      "BitsAllocated": 16,
      "BitsStored": 12,
      "BodyPartExamined": "BRAIN",
      "Columns": 900,
      "EchoNumbers": 1,
      "EchoTime": 34.0,
      "EchoTrainLength": 100,
      "FlipAngle": 90.0,
      "HighBit": 11,
      "ImageOrientationPatient": [0.99881155496543, -0.0174827153334, -0.0454954100115, -1.7849046e-08, 0.93345211989275, -0.3587020209976],
      "ImagePositionPatient": [-904.42475434209, -848.80597011541, 294.86903464888],
      "ImageType": [
        "ORIGINAL",
        "PRIMARY",
        "M",
        "ND",
        "MOSAIC"
],
      "ImagedNucleus": "1H",
      "ImagingFrequency": 123.257742,
      "InPlanePhaseEncodingDirection": "COL",
      "MRAcquisitionType": "2D",
      "MagneticFieldStrength": 3.0,
      "Manufacturer": "SIEMENS",
      "ManufacturerModelName": "Prisma",
      "Modality": "MR",
      "NumberOfAverages": 1.0,
      "NumberOfPhaseEncodingSteps": 100,
      "PercentPhaseFieldOfView": 100.0,
      "PercentSampling": 100.0,
      "PerformedProcedureStepStartTime": "102743.462000",
      "PhotometricInterpretation": "MONOCHROME2",
      "PixelBandwidth": 2380.0,
      "PixelRepresentation": 0,
      "PixelSpacing": [2.0, 2.0],
      "ProtocolName": "bold_100x100_s3_2x2x2_static_156",
      "RepetitionTime": 2000.0,
      "Rows": 900,
      "SAR": 0.08303095084429,
      "SamplesPerPixel": 1,
      "ScanOptions": "FS",
      "ScanningSequence": "EP",
      "SequenceName": "*epfid2d1_100",
      "SequenceVariant": "SK",
      "SeriesDescription": "bold_100x100_s3_2x2x2_static_156",
      "SeriesNumber": 6,
      "SeriesTime": "105126.645000",
      "SliceLocation": -73.268205681097,
      "SliceThickness": 2.0,
      "SmallestImagePixelValue": 0,
      "SoftwareVersions": "syngo MR E11",
      "SpacingBetweenSlices": 2.0000000040561,
      "SpecificCharacterSet": "ISO_IR 100",
      "StudyID": "1",
      "StudyTime": "102743.357000",
      "TransmitCoilName": "Body",
      "VariableFlipAngleFlag": "N",
      "WindowCenterWidthExplanation": "Algo1",
      "dBdt": 0.0},
    "slices": {}
  },
  "time": {
    "samples": {
      "AcquisitionNumber": [1, 2, 3, 4, 5, 6, 7, 8, 9, 10, 11, 12, 13, 14, 15, 16, 17, 18, 19, 20, 21, 22, 23, 24, 25, 26, 27, 28, 29, 30, 31, 32, 33, 34, 35, 36, 37, 38, 39, 40, 41, 42, 43, 44, 45, 46, 47, 48, 49, 50, 51, 52, 53, 54, 55, 56, 57, 58, 59, 60, 61, 62, 63, 64, 65, 66, 67, 68, 69, 70, 71, 72, 73, 74, 75, 76, 77, 78, 79, 80, 81, 82, 83, 84, 85, 86, 87, 88, 89, 90, 91, 92, 93, 94, 95, 96, 97, 98, 99, 100, 101, 102, 103, 104, 105, 106, 107, 108, 109, 110, 111, 112, 113, 114, 115, 116, 117, 118, 119, 120, 121, 122, 123, 124, 125, 126, 127, 128, 129, 130, 131, 132, 133, 134, 135, 136, 137, 138, 139, 140, 141, 142, 143, 144, 145, 146, 147, 148, 149, 150, 151, 152, 153, 154, 155, 156],
      "AcquisitionTime": ["105124.317500", "105126.317500", "105128.317500", "105130.317500", "105132.317500", "105134.317500", "105136.317500", "105138.317500", "105140.317500", "105142.317500", "105144.317500", "105146.317500", "105148.317500", "105150.317500", "105152.317500", "105154.317500", "105156.317500", "105158.317500", "105200.317500", "105202.317500", "105204.317500", "105206.317500", "105208.317500", "105210.317500", "105212.317500", "105214.317500", "105216.317500", "105218.317500", "105220.317500", "105222.317500", "105224.317500", "105226.317500", "105228.317500", "105230.317500", "105232.317500", "105234.317500", "105236.317500", "105238.317500", "105240.317500", "105242.317500", "105244.317500", "105246.317500", "105248.317500", "105250.317500", "105252.317500", "105254.317500", "105256.317500", "105258.317500", "105300.317500", "105302.317500", "105304.317500", "105306.317500", "105308.317500", "105310.317500", "105312.317500", "105314.317500", "105316.317500", "105318.317500", "105320.317500", "105322.317500", "105324.317500", "105326.317500", "105328.317500", "105330.317500", "105332.317500", "105334.317500", "105336.317500", "105338.317500", "105340.317500", "105342.317500", "105344.317500", "105346.317500", "105348.317500", "105350.317500", "105352.317500", "105354.317500", "105356.317500", "105358.317500", "105400.317500", "105402.317500", "105404.317500", "105406.317500", "105408.317500", "105410.317500", "105412.317500", "105414.317500", "105416.317500", "105418.317500", "105420.317500", "105422.317500", "105424.317500", "105426.317500", "105428.317500", "105430.317500", "105432.317500", "105434.317500", "105436.317500", "105438.317500", "105440.317500", "105442.317500", "105444.317500", "105446.317500", "105448.317500", "105450.317500", "105452.317500", "105454.317500", "105456.317500", "105458.317500", "105500.317500", "105502.317500", "105504.317500", "105506.317500", "105508.317500", "105510.317500", "105512.317500", "105514.317500", "105516.317500", "105518.317500", "105520.317500", "105522.317500", "105524.317500", "105526.317500", "105528.317500", "105530.317500", "105532.317500", "105534.317500", "105536.317500", "105538.317500", "105540.317500", "105542.317500", "105544.317500", "105546.317500", "105548.317500", "105550.317500", "105552.317500", "105554.317500", "105556.317500", "105558.317500", "105600.317500", "105602.317500", "105604.317500", "105606.317500", "105608.317500", "105610.317500", "105612.317500", "105614.317500", "105616.317500", "105618.317500", "105620.317500", "105622.317500", "105624.317500", "105626.317500", "105628.317500", "105630.317500", "105632.317500", "105634.317500"],
      "ContentTime": ["105126.649000", "105128.144000", "105130.145000", "105132.145000", "105134.144000", "105136.144000", "105138.144000", "105140.145000", "105142.144000", "105144.145000", "105146.145000", "105148.145000", "105150.144000", "105152.144000", "105154.144000", "105156.144000", "105158.145000", "105200.145000", "105202.145000", "105204.145000", "105206.146000", "105208.144000", "105210.144000", "105212.144000", "105214.145000", "105216.145000", "105218.145000", "105220.144000", "105222.145000", "105224.145000", "105226.144000", "105228.145000", "105230.145000", "105232.144000", "105234.145000", "105236.144000", "105238.145000", "105240.144000", "105242.144000", "105244.144000", "105246.144000", "105248.145000", "105250.145000", "105252.144000", "105254.144000", "105256.144000", "105258.147000", "105300.144000", "105302.144000", "105304.144000", "105306.144000", "105308.145000", "105310.144000", "105312.144000", "105314.144000", "105316.146000", "105318.145000", "105320.144000", "105322.145000", "105324.145000", "105326.144000", "105328.145000", "105330.144000", "105332.145000", "105334.145000", "105336.144000", "105338.144000", "105340.145000", "105342.144000", "105344.145000", "105346.145000", "105348.144000", "105350.144000", "105352.145000", "105354.145000", "105356.144000", "105358.145000", "105400.145000", "105402.144000", "105404.144000", "105406.144000", "105408.146000", "105410.144000", "105412.145000", "105414.145000", "105416.144000", "105418.145000", "105420.144000", "105422.144000", "105424.144000", "105426.145000", "105428.145000", "105430.145000", "105432.144000", "105434.144000", "105436.144000", "105438.145000", "105440.144000", "105442.145000", "105444.144000", "105446.145000", "105448.144000", "105450.145000", "105452.144000", "105454.144000", "105456.144000", "105458.144000", "105500.145000", "105502.145000", "105504.144000", "105506.145000", "105508.145000", "105510.145000", "105512.145000", "105514.145000", "105516.144000", "105518.146000", "105520.144000", "105522.144000", "105524.144000", "105526.145000", "105528.159000", "105530.144000", "105532.145000", "105534.145000", "105536.145000", "105538.145000", "105540.144000", "105542.144000", "105544.145000", "105546.145000", "105548.145000", "105550.145000", "105552.144000", "105554.144000", "105556.145000", "105558.145000", "105600.145000", "105602.144000", "105604.145000", "105606.144000", "105608.144000", "105610.145000", "105612.144000", "105614.144000", "105616.145000", "105618.144000", "105620.145000", "105622.145000", "105624.145000", "105626.145000", "105628.166000", "105630.144000", "105632.144000", "105634.144000", "105635.973000"],
      "InstanceCreationTime": ["105126.649000", "105128.144000", "105130.145000", "105132.145000", "105134.144000", "105136.144000", "105138.144000", "105140.145000", "105142.144000", "105144.145000", "105146.145000", "105148.145000", "105150.144000", "105152.144000", "105154.144000", "105156.144000", "105158.145000", "105200.145000", "105202.145000", "105204.145000", "105206.146000", "105208.144000", "105210.144000", "105212.144000", "105214.145000", "105216.145000", "105218.145000", "105220.144000", "105222.145000", "105224.145000", "105226.144000", "105228.145000", "105230.145000", "105232.144000", "105234.145000", "105236.144000", "105238.145000", "105240.144000", "105242.144000", "105244.144000", "105246.144000", "105248.145000", "105250.145000", "105252.144000", "105254.144000", "105256.144000", "105258.147000", "105300.144000", "105302.144000", "105304.144000", "105306.144000", "105308.145000", "105310.144000", "105312.144000", "105314.144000", "105316.146000", "105318.145000", "105320.144000", "105322.145000", "105324.145000", "105326.144000", "105328.145000", "105330.144000", "105332.145000", "105334.145000", "105336.144000", "105338.144000", "105340.145000", "105342.144000", "105344.145000", "105346.145000", "105348.144000", "105350.144000", "105352.145000", "105354.145000", "105356.144000", "105358.145000", "105400.145000", "105402.144000", "105404.144000", "105406.144000", "105408.146000", "105410.144000", "105412.145000", "105414.145000", "105416.144000", "105418.145000", "105420.144000", "105422.144000", "105424.144000", "105426.145000", "105428.145000", "105430.145000", "105432.144000", "105434.144000", "105436.144000", "105438.145000", "105440.144000", "105442.145000", "105444.144000", "105446.145000", "105448.144000", "105450.145000", "105452.144000", "105454.144000", "105456.144000", "105458.144000", "105500.145000", "105502.145000", "105504.144000", "105506.145000", "105508.145000", "105510.145000", "105512.145000", "105514.145000", "105516.144000", "105518.146000", "105520.144000", "105522.144000", "105524.144000", "105526.145000", "105528.159000", "105530.144000", "105532.145000", "105534.145000", "105536.145000", "105538.145000", "105540.144000", "105542.144000", "105544.145000", "105546.145000", "105548.145000", "105550.145000", "105552.144000", "105554.144000", "105556.145000", "105558.145000", "105600.145000", "105602.144000", "105604.145000", "105606.144000", "105608.144000", "105610.145000", "105612.144000", "105614.144000", "105616.145000", "105618.144000", "105620.145000", "105622.145000", "105624.145000", "105626.145000", "105628.166000", "105630.144000", "105632.144000", "105634.144000", "105635.973000"],
      "InstanceNumber": [1, 2, 3, 4, 5, 6, 7, 8, 9, 10, 11, 12, 13, 14, 15, 16, 17, 18, 19, 20, 21, 22, 23, 24, 25, 26, 27, 28, 29, 30, 31, 32, 33, 34, 35, 36, 37, 38, 39, 40, 41, 42, 43, 44, 45, 46, 47, 48, 49, 50, 51, 52, 53, 54, 55, 56, 57, 58, 59, 60, 61, 62, 63, 64, 65, 66, 67, 68, 69, 70, 71, 72, 73, 74, 75, 76, 77, 78, 79, 80, 81, 82, 83, 84, 85, 86, 87, 88, 89, 90, 91, 92, 93, 94, 95, 96, 97, 98, 99, 100, 101, 102, 103, 104, 105, 106, 107, 108, 109, 110, 111, 112, 113, 114, 115, 116, 117, 118, 119, 120, 121, 122, 123, 124, 125, 126, 127, 128, 129, 130, 131, 132, 133, 134, 135, 136, 137, 138, 139, 140, 141, 142, 143, 144, 145, 146, 147, 148, 149, 150, 151, 152, 153, 154, 155, 156],
      "LargestImagePixelValue": [3664, 3598, 3528, 3491, 3509, 3470, 3422, 3522, 3491, 3538, 3480, 3507, 3512, 3454, 3498, 3450, 3477, 3494, 3487, 3533, 3490, 3531, 3520, 3535, 3547, 3507, 3518, 3563, 3498, 3559, 3541, 3554, 3576, 3528, 3536, 3548, 3517, 3531, 3557, 3579, 3541, 3541, 3531, 3500, 3523, 3478, 3566, 3512, 3505, 3565, 3496, 3556, 3612, 3515, 3505, 3539, 3537, 3531, 3530, 3490, 3505, 3531, 3554, 3520, 3547, 3554, 3433, 3480, 3489, 3498, 3490, 3474, 3486, 3508, 3450, 3496, 3497, 3434, 3508, 3496, 3481, 3439, 3434, 3441, 3460, 3440, 3429, 3454, 3477, 3418, 3508, 3416, 3441, 3461, 3427, 3449, 3421, 3433, 3403, 3413, 3450, 3430, 3406, 3424, 3458, 3481, 3477, 3438, 3431, 3465, 3484, 3469, 3489, 3462, 3445, 3457, 3463, 3449, 3445, 3504, 3485, 3477, 3532, 3461, 3430, 3468, 3458, 3447, 3437, 3426, 3426, 3418, 3419, 3460, 3418, 3458, 3432, 3428, 3461, 3544, 3526, 3491, 3498, 3485, 3463, 3450, 3467, 3490, 3472, 3515, 3476, 3469, 3441, 3419, 3468, 3435],
      "WindowCenter": [769.0, 768.0, 768.0, 769.0, 769.0, 770.0, 769.0, 770.0, 769.0, 769.0, 769.0, 770.0, 770.0, 769.0, 770.0, 769.0, 769.0, 768.0, 767.0, 767.0, 767.0, 767.0, 766.0, 767.0, 767.0, 766.0, 767.0, 768.0, 767.0, 766.0, 765.0, 765.0, 765.0, 766.0, 767.0, 766.0, 766.0, 766.0, 766.0, 767.0, 768.0, 769.0, 770.0, 770.0, 769.0, 768.0, 769.0, 769.0, 769.0, 769.0, 768.0, 768.0, 769.0, 769.0, 769.0, 768.0, 768.0, 768.0, 767.0, 767.0, 768.0, 768.0, 768.0, 767.0, 768.0, 768.0, 768.0, 768.0, 768.0, 768.0, 768.0, 768.0, 769.0, 770.0, 769.0, 770.0, 769.0, 768.0, 768.0, 769.0, 771.0, 770.0, 770.0, 770.0, 770.0, 769.0, 768.0, 769.0, 769.0, 768.0, 769.0, 769.0, 769.0, 768.0, 768.0, 769.0, 768.0, 768.0, 768.0, 769.0, 770.0, 769.0, 768.0, 768.0, 769.0, 770.0, 769.0, 769.0, 769.0, 769.0, 769.0, 770.0, 771.0, 771.0, 771.0, 771.0, 771.0, 771.0, 772.0, 772.0, 772.0, 772.0, 773.0, 771.0, 770.0, 770.0, 771.0, 770.0, 770.0, 769.0, 768.0, 767.0, 767.0, 770.0, 771.0, 771.0, 770.0, 770.0, 771.0, 772.0, 772.0, 772.0, 772.0, 771.0, 771.0, 771.0, 770.0, 770.0, 771.0, 772.0, 772.0, 771.0, 771.0, 771.0, 771.0, 771.0],
      "WindowWidth": [1658.0, 1656.0, 1656.0, 1657.0, 1658.0, 1660.0, 1659.0, 1660.0, 1659.0, 1659.0, 1659.0, 1662.0, 1662.0, 1660.0, 1660.0, 1659.0, 1658.0, 1654.0, 1653.0, 1654.0, 1653.0, 1653.0, 1651.0, 1653.0, 1653.0, 1652.0, 1653.0, 1655.0, 1653.0, 1650.0, 1648.0, 1647.0, 1649.0, 1651.0, 1653.0, 1651.0, 1650.0, 1650.0, 1652.0, 1654.0, 1656.0, 1660.0, 1661.0, 1661.0, 1660.0, 1656.0, 1658.0, 1659.0, 1659.0, 1658.0, 1655.0, 1655.0, 1660.0, 1660.0, 1659.0, 1657.0, 1656.0, 1656.0, 1654.0, 1653.0, 1656.0, 1656.0, 1656.0, 1655.0, 1657.0, 1657.0, 1655.0, 1656.0, 1656.0, 1656.0, 1655.0, 1655.0, 1659.0, 1661.0, 1660.0, 1662.0, 1660.0, 1656.0, 1657.0, 1659.0, 1664.0, 1663.0, 1663.0, 1662.0, 1663.0, 1660.0, 1657.0, 1659.0, 1657.0, 1656.0, 1659.0, 1658.0, 1658.0, 1657.0, 1656.0, 1657.0, 1657.0, 1656.0, 1656.0, 1658.0, 1661.0, 1659.0, 1656.0, 1657.0, 1660.0, 1661.0, 1660.0, 1657.0, 1658.0, 1659.0, 1660.0, 1661.0, 1663.0, 1664.0, 1663.0, 1663.0, 1665.0, 1665.0, 1667.0, 1668.0, 1667.0, 1668.0, 1670.0, 1665.0, 1661.0, 1662.0, 1663.0, 1661.0, 1661.0, 1658.0, 1655.0, 1653.0, 1654.0, 1660.0, 1664.0, 1663.0, 1661.0, 1661.0, 1663.0, 1666.0, 1668.0, 1667.0, 1665.0, 1664.0, 1665.0, 1664.0, 1662.0, 1661.0, 1663.0, 1667.0, 1667.0, 1665.0, 1664.0, 1663.0, 1664.0, 1664.0]
    },
    "slices": {}
  }
}