{"AcquisitionMatrixPE": 100, "AcquisitionNumber": 1, "AcquisitionTime": "13:42:42.297500", "BaseResolution": 100, "BodyPartExamined": "BRAIN", "CoilCombinationMethod": "Sum of Squares", "ConsistencyInfo": "N4_VE11C_LATEST_20160120", "ConversionSoftware": "dcm2niix", "ConversionSoftwareVersion": "v1.0.20211006", "DeviceSerialNumber": "166078", "DwellTime": 8.8e-06, "EchoNumber": 2, "EchoTime": 0.00738, "EchoTime1": 0.00492, "EchoTime2": 0.00738, "FlipAngle": 60, "ImageOrientationPatientDICOM": [0.999507, -0.00523833, -0.0309709, 4.4285e-11, 0.985996, -0.166769], "ImageOrientationText": "Tra>Cor(-9.6)>Sag(-1.8)", "ImageType": ["ORIGINAL", "PRIMARY", "P", "ND", "PHASE"], "ImagingFrequency": 123.258, "InPlanePhaseEncodingDirectionDICOM": "ROW", "InstitutionAddress": "Street StreetNo,Bei Jing,District,CN,ZIP", "InstitutionName": "BeiJing Normal University", "InstitutionalDepartmentName": "Department", "MRAcquisitionType": "2D", "MagneticFieldStrength": 3, "Manufacturer": "Siemens", "ManufacturersModelName": "Prisma", "MatrixCoilMode": "SENSE", "Modality": "MR", "PartialFourier": 1, "PatientPosition": "HFS", "PercentPhaseFOV": 100, "PercentSampling": 100, "PhaseEncodingDirection": "i", "PhaseEncodingSteps": 100, "PhaseResolution": 1, "PixelBandwidth": 570, "ProcedureStepDescription": "BNU_P2018_64CH^Zhen.ZongLei", "ProtocolName": "field_mapping_2x2x2", "PulseSequenceDetails": "%SiemensSeq%\\gre_field_mapping", "ReceiveCoilActiveElements": "HC1-7;NC1", "ReceiveCoilName": "HeadNeck_64", "ReconMatrixPE": 100, "RepetitionTime": 0.72, "SAR": 0.10974, "ScanningSequence": "GR", "SequenceName": "*fm2d2r", "SequenceVariant": "SP", "SeriesDescription": "field_mapping_2x2x2", "SeriesNumber": 10, "ShimSetting": [-5457, -11489, -1258, 333, -5, -153, -189, 57], "SliceThickness": 2, "SliceTiming": [0.35938, 0, 0.375, 0.01562, 0.375, 0.01562, 0.39062, 0.03125, 0.40625, 0.04688, 0.40625, 0.04688, 0.42188, 0.0625, 0.4375, 0.0625, 0.4375, 0.07812, 0.45312, 0.09375, 0.45312, 0.09375, 0.46875, 0.10938, 0.48438, 0.125, 0.48438, 0.125, 0.5, 0.14062, 0.51562, 0.15625, 0.51562, 0.15625, 0.53125, 0.17188, 0.54688, 0.1875, 0.54688, 0.1875, 0.5625, 0.20312, 0.5625, 0.20312, 0.57812, 0.21875, 0.59375, 0.23438, 0.59375, 0.23438, 0.60938, 0.25, 0.625, 0.26562, 0.625, 0.26562, 0.64062, 0.28125, 0.65625, 0.29688, 0.65625, 0.29688, 0.67188, 0.3125, 0.6875, 0.3125, 0.6875, 0.32812, 0.70312, 0.34375, 0.70312, 0.34375], "SoftwareVersions": "syngo MR E11", "SpacingBetweenSlices": 2, "StationName": "AWP166078", "TxRefAmp": 213.373, "dcmmeta_affine": [[-1.999013066291809, 8.856999855755276e-11, -0.0628213882446289, 102.1808090209961], [0.010476666502654552, 1.971992015838623, -0.3333721160888672, -83.1475830078125], [-0.06194177269935608, 0.3335374891757965, 1.9710159301757812, -78.25717163085938], [0.0, 0.0, 0.0, 1.0]], "dcmmeta_reorient_transform": [[0.0, -1.0, 0.0, 99.0], [1.0, 0.0, 0.0, 0.0], [0.0, 0.0, -1.0, 71.0], [0.0, 0.0, 0.0, 1.0]], "dcmmeta_shape": [100, 100, 72], "dcmmeta_slice_dim": 2, "dcmmeta_version": 0.6, "global": {"const": {"AcquisitionMatrix": [0, 100, 100, 0], "AcquisitionNumber": 1, "AngioFlag": "N", "BitsAllocated": 16, "BitsStored": 12, "BodyPartExamined": "BRAIN", "Columns": 100, "EchoNumbers": 2, "EchoTime": 7.38, "EchoTrainLength": 0, "FlipAngle": 60.0, "HighBit": 11, "ImageOrientationPatient": [0.99950656031015, -0.0052383331829, -0.0309708857226, 4.4285e-11, 0.98599603750456, -0.1667687441498], "ImageType": ["ORIGINAL", "PRIMARY", "P", "ND"], "ImagedNucleus": "1H", "ImagingFrequency": 123.257688, "InPlanePhaseEncodingDirection": "ROW", "MRAcquisitionType": "2D", "MagneticFieldStrength": 3.0, "Manufacturer": "SIEMENS", "ManufacturerModelName": "Prisma", "Modality": "MR", "NumberOfAverages": 1.0, "NumberOfPhaseEncodingSteps": 100, "PercentPhaseFieldOfView": 100.0, "PercentSampling": 100.0, "PerformedProcedureStepStartTime": "125015.696000", "PhotometricInterpretation": "MONOCHROME2", "PixelBandwidth": 570.0, "PixelRepresentation": 0, "PixelSpacing": [2.0, 2.0], "ProtocolName": "field_mapping_2x2x2", "RepetitionTime": 720.0, "RescaleIntercept": -4096.0, "RescaleSlope": 2.0, "RescaleType": "US", "Rows": 100, "SAR": 0.10973996948014, "SamplesPerPixel": 1, "ScanningSequence": "GR", "SequenceName": "*fm2d2r", "SequenceVariant": "SP", "SeriesDescription": "field_mapping_2x2x2", "SeriesNumber": 10, "SeriesTime": "134507.215000", "SliceThickness": 2.0, "SoftwareVersions": "syngo MR E11", "SpacingBetweenSlices": 2.0, "SpecificCharacterSet": "ISO_IR 100", "StudyID": "1", "StudyTime": "125015.602000", "TransmitCoilName": "Body", "VariableFlipAngleFlag": "N", "WindowCenterWidthExplanation": "Algo1", "dBdt": 0.0}, "slices": {"AcquisitionTime": ["134242.297500", "134241.937500", "134242.307500", "134241.947500", "134242.317500", "134241.957500", "134242.327500", "134241.967500", "134242.337500", "134241.977500", "134242.347500", "134241.987500", "134242.357500", "134241.997500", "134242.367500", "134242.007500", "134242.377500", "134242.017500", "134242.387500", "134242.027500", "134242.397500", "134242.037500", "134242.407500", "134242.047500", "134242.417500", "134242.057500", "134242.427500", "134242.067500", "134242.437500", "134242.077500", "134242.447500", "134242.087500", "134242.457500", "134242.097500", "134242.467500", "134242.107500", "134242.477500", "134242.117500", "134242.487500", "134242.127500", "134242.497500", "134242.137500", "134242.507500", "134242.147500", "134242.517500", "134242.157500", "134242.527500", "134242.167500", "134242.537500", "134242.177500", "134242.547500", "134242.187500", "134242.557500", "134242.197500", "134242.567500", "134242.207500", "134242.577500", "134242.217500", "134242.587500", "134242.227500", "134242.597500", "134242.237500", "134242.607500", "134242.247500", "134242.617500", "134242.257500", "134242.627500", "134242.267500", "134242.637500", "134242.277500", "134242.647500", "134242.287500"], "ContentTime": ["134507.331000", "134507.224000", "134507.333000", "134507.256000", "134507.334000", "134507.258000", "134507.336000", "134507.260000", "134507.338000", "134507.262000", "134507.340000", "134507.265000", "134507.342000", "134507.267000", "134507.344000", "134507.269000", "134507.346000", "134507.271000", "134507.348000", "134507.274000", "134507.350000", "134507.275000", "134507.352000", "134507.277000", "134507.353000", "134507.279000", "134507.355000", "134507.281000", "134507.357000", "134507.283000", "134507.359000", "134507.285000", "134507.362000", "134507.287000", "134507.364000", "134507.289000", "134507.366000", "134507.291000", "134507.368000", "134507.293000", "134507.370000", "134507.296000", "134507.371000", "134507.298000", "134507.373000", "134507.300000", "134507.375000", "134507.301000", "134507.377000", "134507.304000", "134507.379000", "134507.306000", "134507.381000", "134507.308000", "134507.383000", "134507.310000", "134507.384000", "134507.312000", "134507.386000", "134507.314000", "134507.388000", "134507.317000", "134507.390000", "134507.319000", "134507.392000", "134507.321000", "134507.394000", "134507.325000", "134507.396000", "134507.327000", "134507.397000", "134507.329000"], "CsaImage.GSWDDataType": ["measured", "predicted", "measured", "predicted", "measured", "predicted", "measured", "predicted", "measured", "predicted", "measured", "predicted", "measured", "predicted", "measured", "predicted", "measured", "predicted", "measured", "predicted", "measured", "predicted", "measured", "predicted", "measured", "predicted", "measured", "predicted", "measured", "predicted", "measured", "predicted", "measured", "predicted", "measured", "predicted", "measured", "predicted", "measured", "predicted", "measured", "predicted", "measured", "predicted", "measured", "predicted", "measured", "predicted", "measured", "predicted", "measured", "predicted", "measured", "predicted", "measured", "predicted", "measured", "predicted", "measured", "predicted", "measured", "predicted", "measured", "predicted", "measured", "predicted", "measured", "predicted", "measured", "measured", "measured", "measured"], "CsaImage.ICE_Dims": ["X_2_1_1_1_1_1_37_1_1_1_1_140", "X_2_1_1_1_1_1_1_1_1_2_1_140", "X_2_1_1_1_1_1_38_1_1_3_1_140", "X_2_1_1_1_1_1_2_1_1_4_1_140", "X_2_1_1_1_1_1_39_1_1_5_1_140", "X_2_1_1_1_1_1_3_1_1_6_1_140", "X_2_1_1_1_1_1_40_1_1_7_1_140", "X_2_1_1_1_1_1_4_1_1_8_1_140", "X_2_1_1_1_1_1_41_1_1_9_1_140", "X_2_1_1_1_1_1_5_1_1_10_1_140", "X_2_1_1_1_1_1_42_1_1_11_1_140", "X_2_1_1_1_1_1_6_1_1_12_1_140", "X_2_1_1_1_1_1_43_1_1_13_1_140", "X_2_1_1_1_1_1_7_1_1_14_1_140", "X_2_1_1_1_1_1_44_1_1_15_1_140", "X_2_1_1_1_1_1_8_1_1_16_1_140", "X_2_1_1_1_1_1_45_1_1_17_1_140", "X_2_1_1_1_1_1_9_1_1_18_1_140", "X_2_1_1_1_1_1_46_1_1_19_1_140", "X_2_1_1_1_1_1_10_1_1_20_1_140", "X_2_1_1_1_1_1_47_1_1_21_1_140", "X_2_1_1_1_1_1_11_1_1_22_1_140", "X_2_1_1_1_1_1_48_1_1_23_1_140", "X_2_1_1_1_1_1_12_1_1_24_1_140", "X_2_1_1_1_1_1_49_1_1_25_1_140", "X_2_1_1_1_1_1_13_1_1_26_1_140", "X_2_1_1_1_1_1_50_1_1_27_1_140", "X_2_1_1_1_1_1_14_1_1_28_1_140", "X_2_1_1_1_1_1_51_1_1_29_1_140", "X_2_1_1_1_1_1_15_1_1_30_1_140", "X_2_1_1_1_1_1_52_1_1_31_1_140", "X_2_1_1_1_1_1_16_1_1_32_1_140", "X_2_1_1_1_1_1_53_1_1_33_1_140", "X_2_1_1_1_1_1_17_1_1_34_1_140", "X_2_1_1_1_1_1_54_1_1_35_1_140", "X_2_1_1_1_1_1_18_1_1_36_1_140", "X_2_1_1_1_1_1_55_1_1_37_1_140", "X_2_1_1_1_1_1_19_1_1_38_1_140", "X_2_1_1_1_1_1_56_1_1_39_1_140", "X_2_1_1_1_1_1_20_1_1_40_1_140", "X_2_1_1_1_1_1_57_1_1_41_1_140", "X_2_1_1_1_1_1_21_1_1_42_1_140", "X_2_1_1_1_1_1_58_1_1_43_1_140", "X_2_1_1_1_1_1_22_1_1_44_1_140", "X_2_1_1_1_1_1_59_1_1_45_1_140", "X_2_1_1_1_1_1_23_1_1_46_1_140", "X_2_1_1_1_1_1_60_1_1_47_1_140", "X_2_1_1_1_1_1_24_1_1_48_1_140", "X_2_1_1_1_1_1_61_1_1_49_1_140", "X_2_1_1_1_1_1_25_1_1_50_1_140", "X_2_1_1_1_1_1_62_1_1_51_1_140", "X_2_1_1_1_1_1_26_1_1_52_1_140", "X_2_1_1_1_1_1_63_1_1_53_1_140", "X_2_1_1_1_1_1_27_1_1_54_1_140", "X_2_1_1_1_1_1_64_1_1_55_1_140", "X_2_1_1_1_1_1_28_1_1_56_1_140", "X_2_1_1_1_1_1_65_1_1_57_1_140", "X_2_1_1_1_1_1_29_1_1_58_1_140", "X_2_1_1_1_1_1_66_1_1_59_1_140", "X_2_1_1_1_1_1_30_1_1_60_1_140", "X_2_1_1_1_1_1_67_1_1_61_1_140", "X_2_1_1_1_1_1_31_1_1_62_1_140", "X_2_1_1_1_1_1_68_1_1_63_1_140", "X_2_1_1_1_1_1_32_1_1_64_1_140", "X_2_1_1_1_1_1_69_1_1_65_1_140", "X_2_1_1_1_1_1_33_1_1_66_1_140", "X_2_1_1_1_1_1_70_1_1_67_1_140", "X_2_1_1_1_1_1_34_1_1_68_1_140", "X_2_1_1_1_1_1_71_1_1_69_1_140", "X_2_1_1_1_1_1_35_1_1_70_1_140", "X_2_1_1_1_1_1_72_1_1_71_1_140", "X_2_1_1_1_1_1_36_1_1_72_1_140"], "CsaImage.ProtocolSliceNumber": [0, 1, 2, 3, 4, 5, 6, 7, 8, 9, 10, 11, 12, 13, 14, 15, 16, 17, 18, 19, 20, 21, 22, 23, 24, 25, 26, 27, 28, 29, 30, 31, 32, 33, 34, 35, 36, 37, 38, 39, 40, 41, 42, 43, 44, 45, 46, 47, 48, 49, 50, 51, 52, 53, 54, 55, 56, 57, 58, 59, 60, 61, 62, 63, 64, 65, 66, 67, 68, 69, 70, 71], "CsaImage.RFSWDDataType": ["measured", "predicted", "measured", "predicted", "measured", "predicted", "measured", "predicted", "measured", "predicted", "measured", "predicted", "measured", "predicted", "measured", "predicted", "measured", "predicted", "measured", "predicted", "measured", "predicted", "measured", "predicted", "measured", "predicted", "measured", "predicted", "measured", "predicted", "measured", "predicted", "measured", "predicted", "measured", "predicted", "measured", "predicted", "measured", "predicted", "measured", "predicted", "measured", "predicted", "measured", "predicted", "measured", "predicted", "measured", "predicted", "measured", "predicted", "measured", "predicted", "measured", "predicted", "measured", "predicted", "measured", "predicted", "measured", "predicted", "measured", "predicted", "measured", "measured", "measured", "measured", "measured", "measured", "measured", "measured"], "CsaImage.SlicePosition_PCS": [[-102.18081985, -112.07968527, -45.23718356], [-102.11799846, -111.7463122, -43.26616], [-102.05517683, -111.41293913, -41.29514407], [-101.99235544, -111.07956606, -39.32412432], [-101.92953382, -110.74619394, -37.35310458], [-101.86671231, -110.41282087, -35.38208483], [-101.8038908, -110.0794478, -33.41106509], [-101.7410693, -109.74607473, -31.44004916], [-101.67824779, -109.41270166, -29.46902941], [-101.61542628, -109.07932859, -27.49800967], [-101.55260477, -108.74595647, -25.52698992], [-101.48978327, -108.41258341, -23.55597018], [-101.42696176, -108.07921034, -21.58495425], [-101.36414025, -107.74583727, -19.6139345], [-101.30131862, -107.4124642, -17.64291476], [-101.23849712, -107.07909113, -15.67189501], [-101.17567561, -106.74571901, -13.70087527], [-101.1128541, -106.41234594, -11.72985743], [-101.05003259, -106.07897287, -9.75883769], [-100.98721109, -105.7455998, -7.78781985], [-100.92438958, -105.41222673, -5.8168001], [-100.86156807, -105.07885414, -3.84578227], [-100.79874651, -104.74548107, -1.87476252], [-100.735925, -104.412108, 0.09625722], [-100.67310349, -104.07873541, 2.06727506], [-100.61028198, -103.74536234, 4.0382948], [-100.54746048, -103.41198927, 6.0093136], [-100.48463897, -103.07861667, 7.98033239], [-100.42181743, -102.7452436, 9.95135118], [-100.35899589, -102.41187053, 11.92237045], [-100.29617439, -102.07849794, 13.89338971], [-100.23335288, -101.74512487, 15.86440874], [-100.17053136, -101.41175204, 17.83542765], [-100.10770983, -101.07837897, 19.80644669], [-100.04488831, -100.74500614, 21.77746559], [-99.98206679, -100.41163331, 23.74848462], [-99.91924528, -100.07826024, 25.71950389], [-99.85642376, -99.74488741, 27.69052268], [-99.79360224, -99.41151446, 29.66154195], [-99.73078071, -99.07814162, 31.63256074], [-99.66795919, -98.74476867, 33.60357953], [-99.60513768, -98.41139575, 35.57459928], [-99.54231618, -98.07802284, 37.54561712], [-99.47949464, -97.74464994, 39.51663686], [-99.4166731, -97.41127699, 41.48765661], [-99.3538516, -97.0779041, 43.45867444], [-99.29103009, -96.74453121, 45.42969419], [-99.22820858, -96.41115826, 47.40071203], [-99.16538707, -96.07778531, 49.37173177], [-99.10256557, -95.74441248, 51.34275152], [-99.039744, -95.41103964, 53.31376935], [-98.97692249, -95.07766658, 55.2847891], [-98.91410098, -94.74429374, 57.25580884], [-98.85127948, -94.41092091, 59.22682859], [-98.78845797, -94.07754784, 61.19784452], [-98.72563646, -93.74417501, 63.16886426], [-98.66281495, -93.41080194, 65.13988401], [-98.59999345, -93.07742935, 67.11090375], [-98.53717182, -92.74405628, 69.0819235], [-98.47435031, -92.41068321, 71.05293943], [-98.4115288, -92.07731062, 73.02395917], [-98.3487073, -91.74393755, 74.99497892], [-98.28588579, -91.41056448, 76.96599866], [-98.22306428, -91.07719188, 78.93701841], [-98.16024277, -90.74381881, 80.90803434], [-98.09742127, -90.41044574, 82.87905408], [-98.03459976, -90.07707315, 84.85007383], [-97.97177825, -89.74370008, 86.82108976], [-97.90895663, -89.41032701, 88.79211332], [-97.84613524, -89.07695394, 90.76312925], [-97.78331361, -88.74358087, 92.73415281], [-97.72049222, -88.41020876, 94.70516874]], "CsaImage.TimeAfterStart": [1.0825, 0.7225, 1.0925, 0.7325, 1.1025, 0.7425, 1.1125, 0.7525, 1.1225, 0.7625, 1.1325, 0.7725, 1.1425, 0.7825, 1.1525, 0.7925, 1.1625, 0.8025, 1.1725, 0.8125, 1.1825, 0.8225, 1.1925, 0.8325, 1.2025, 0.8425, 1.2125, 0.8525, 1.2225, 0.8625, 1.2325, 0.8725, 1.2425, 0.8825, 1.2525, 0.8925, 1.2625, 0.9025, 1.2725, 0.9125, 1.2825, 0.9225, 1.2925, 0.9325, 1.3025, 0.9425, 1.3125, 0.9525, 1.3225, 0.9625, 1.3325, 0.9725, 1.3425, 0.9825, 1.3525, 0.9925, 1.3625, 1.0025, 1.3725, 1.0125, 1.3825, 1.0225, 1.3925, 1.0325, 1.4025, 1.0425, 1.4125, 1.0525, 1.4225, 1.0625, 1.4325, 1.0725], "ImagePositionPatient": [[-102.18081984808, -112.07968526524, -45.237183558172], [-102.11799845984, -111.74631219548, -43.266159998602], [-102.05517683317, -111.41293912571, -41.295144068426], [-101.99235544493, -111.07956605595, -39.324124323553], [-101.92953381827, -110.74619393986, -37.35310457868], [-101.86671231081, -110.4128208701, -35.382084833807], [-101.80389080336, -110.07944780033, -33.411065088934], [-101.7410692959, -109.74607473057, -31.440049158758], [-101.67824778845, -109.41270166081, -29.469029413885], [-101.615426281, -109.07932859105, -27.498009669012], [-101.55260477354, -108.74595647496, -25.526989924139], [-101.48978326609, -108.41258340519, -23.555970179266], [-101.42696175863, -108.07921033543, -21.58495424909], [-101.36414025118, -107.74583726567, -19.613934504217], [-101.30131862452, -107.4124641959, -17.642914759344], [-101.23849711706, -107.07909112614, -15.671895014471], [-101.17567560961, -106.74571901005, -13.700875269598], [-101.11285410215, -106.41234594029, -11.729857432074], [-101.0500325947, -106.07897287053, -9.7588376872008], [-100.98721108725, -105.74559980076, -7.7878198496764], [-100.92438957979, -105.412226731, -5.8168001048033], [-100.86156807234, -105.07885413807, -3.8457822672789], [-100.79874650528, -104.74548106831, -1.8747625224059], [-100.73592499783, -104.41210799855, 0.09625722246719], [-100.67310349037, -104.07873540562, 2.0672750599916], [-100.61028198292, -103.74536233586, 4.0382948048647], [-100.54746047547, -103.41198926609, 6.0093135960634], [-100.48463896801, -103.07861667317, 7.9803323872621], [-100.42181743075, -102.7452436034, 9.9513511784608], [-100.3589958935, -102.41187053364, 11.922370446497], [-100.29617438604, -102.07849794072, 13.893389714533], [-100.23335287859, -101.74512487095, 15.86440874415], [-100.17053135624, -101.41175203961, 17.835427654558], [-100.10770983388, -101.07837896984, 19.806446691626], [-100.04488831153, -100.7450061385, 21.777465594583], [-99.982066792896, -100.41163330716, 23.748484624201], [-99.919245277991, -100.07826023739, 25.719503892236], [-99.856423759361, -99.744887406048, 27.690522683435], [-99.793602237006, -99.411514455494, 29.661541951471], [-99.730780714651, -99.078141624149, 31.63256074267], [-99.667959192296, -98.744768673595, 33.603579533869], [-99.605137684842, -98.411395752844, 35.574599278742], [-99.542316177388, -98.078022841405, 37.545617116266], [-99.479494640132, -97.744649941143, 39.516636861139], [-99.416673102876, -97.411276990589, 41.487656606012], [-99.353851595422, -97.07790409964, 43.458674443537], [-99.291030087968, -96.74453120869, 45.42969418841], [-99.228208580514, -96.411158258136, 47.400712025934], [-99.16538707306, -96.077785307583, 49.371731770807], [-99.102565565606, -95.744412476238, 51.34275151568], [-99.039743998548, -95.411039644893, 53.313769353204], [-98.976922491094, -95.07766657513, 55.284789098078], [-98.91410098364, -94.744293743786, 57.255808842951], [-98.851279476186, -94.410920912441, 59.226828587824], [-98.788457968732, -94.077547842678, 61.197844517999], [-98.725636461278, -93.744175011333, 63.168864262872], [-98.662814953824, -93.41080194157, 65.139884007746], [-98.59999344637, -93.077429348644, 67.110903752619], [-98.537171819707, -92.744056278881, 69.081923497492], [-98.474350312253, -92.410683209118, 71.052939427667], [-98.411528804799, -92.077310616192, 73.02395917254], [-98.348707297345, -91.743937546428, 74.994978917413], [-98.285885789891, -91.410564476665, 76.965998662287], [-98.223064282438, -91.077191883739, 78.93701840716], [-98.160242774984, -90.743818813976, 80.908034337335], [-98.09742126753, -90.410445744213, 82.879054082208], [-98.034599760076, -90.077073151287, 84.850073827081], [-97.971778252622, -89.743700081524, 86.821089757257], [-97.908956625959, -89.41032701176, 88.792113316828], [-97.846135237714, -89.076953941997, 90.763129247003], [-97.783313611051, -88.743580872234, 92.734152806574], [-97.720492222806, -88.410208756145, 94.705168736749]], "InstanceCreationTime": ["134507.331000", "134507.224000", "134507.333000", "134507.256000", "134507.334000", "134507.258000", "134507.336000", "134507.260000", "134507.338000", "134507.262000", "134507.340000", "134507.265000", "134507.342000", "134507.267000", "134507.344000", "134507.269000", "134507.346000", "134507.271000", "134507.348000", "134507.274000", "134507.350000", "134507.275000", "134507.352000", "134507.277000", "134507.353000", "134507.279000", "134507.355000", "134507.281000", "134507.357000", "134507.283000", "134507.359000", "134507.285000", "134507.362000", "134507.287000", "134507.364000", "134507.289000", "134507.366000", "134507.291000", "134507.368000", "134507.293000", "134507.370000", "134507.296000", "134507.371000", "134507.298000", "134507.373000", "134507.300000", "134507.375000", "134507.301000", "134507.377000", "134507.304000", "134507.379000", "134507.306000", "134507.381000", "134507.308000", "134507.383000", "134507.310000", "134507.384000", "134507.312000", "134507.386000", "134507.314000", "134507.388000", "134507.317000", "134507.390000", "134507.319000", "134507.392000", "134507.321000", "134507.394000", "134507.325000", "134507.396000", "134507.327000", "134507.397000", "134507.329000"], "InstanceNumber": [1, 2, 3, 4, 5, 6, 7, 8, 9, 10, 11, 12, 13, 14, 15, 16, 17, 18, 19, 20, 21, 22, 23, 24, 25, 26, 27, 28, 29, 30, 31, 32, 33, 34, 35, 36, 37, 38, 39, 40, 41, 42, 43, 44, 45, 46, 47, 48, 49, 50, 51, 52, 53, 54, 55, 56, 57, 58, 59, 60, 61, 62, 63, 64, 65, 66, 67, 68, 69, 70, 71, 72], "LargestImagePixelValue": [4093, 4090, 4095, 4094, 4095, 4094, 4095, 4095, 4093, 4094, 4092, 4092, 4094, 4095, 4094, 4086, 4092, 4093, 4094, 4093, 4092, 4093, 4090, 4088, 4090, 4090, 4087, 4094, 4093, 4095, 4093, 4093, 4094, 4093, 4094, 4094, 4092, 4086, 4092, 4094, 4095, 4092, 4089, 4087, 4088, 4090, 4094, 4091, 4093, 4094, 4085, 4091, 4094, 4094, 4095, 4095, 4094, 4094, 4094, 4093, 4095, 4095, 4095, 4094, 4095, 4094, 4093, 4094, 4094, 4094, 4093, 4094], "SliceLocation": [-66.473417087107, -64.473412586401, -62.473415597046, -60.473414855761, -58.47341426595, -56.47341352092, -54.47341277589, -52.47341579028, -50.47341504525, -48.47341430022, -46.473413714154, -44.473412969124, -42.473415983514, -40.473415238484, -38.473414489709, -36.473413744679, -34.473413158613, -32.473414293293, -30.473413548263, -28.473414682943, -26.473413937913, -24.473415152075, -22.473414405172, -20.473413660142, -18.473414874304, -16.473414129274, -14.473414324099, -12.473414598406, -10.473414792295, -8.4734145162561, -6.4734143206357, -4.4734142804968, -2.4734143971129, -0.4734143491633, 1.526585526878, 3.5265855276268, 5.5265858029635, 7.5265855687486, 9.5265858244487, 11.526585590351, 13.526585376123, 15.526586096315, 17.526584935245, 19.526585652958, 21.526586379053, 23.526585214568, 25.526585929792, 27.526584775241, 29.526585500401, 31.52658620569, 33.526585033141, 35.526585778172, 37.526586483461, 39.52658718875, 41.52658417436, 43.526584879649, 45.526585624679, 47.526586290227, 49.526587039002, 51.526584024611, 53.526584690159, 55.52658543519, 57.52658618022, 59.526586845768, 61.526583831378, 63.526584576408, 65.526585241956, 67.526582227566, 69.526586735761, 71.526583717626, 73.526588225821, 75.526585048722], "SmallestImagePixelValue": [0, 1, 0, 4, 0, 0, 0, 2, 1, 0, 0, 0, 0, 2, 0, 0, 0, 3, 1, 0, 3, 1, 4, 6, 3, 0, 1, 4, 2, 0, 2, 0, 0, 19, 2, 1, 0, 3, 4, 0, 11, 1, 0, 0, 2, 4, 4, 4, 0, 10, 1, 0, 0, 6, 6, 0, 0, 0, 1, 0, 1, 0, 0, 0, 0, 0, 0, 0, 0, 0, 0, 0], "WindowCenter": [-232.0, -228.0, -264.0, -248.0, -206.0, -164.0, -210.0, -250.0, -232.0, -240.0, -226.0, -246.0, -236.0, -272.0, -244.0, -238.0, -246.0, -224.0, -182.0, -152.0, -126.0, -142.0, -200.0, -168.0, -186.0, -184.0, -192.0, -236.0, -238.0, -256.0, -224.0, -180.0, -172.0, -166.0, -122.0, -134.0, -146.0, -108.0, -108.0, -78.0, -42.0, -36.0, 0.0, -18.0, -36.0, -26.0, -32.0, -16.0, -6.0, -78.0, -178.0, -62.0, -72.0, -202.0, -74.0, -60.0, -80.0, -110.0, -122.0, -106.0, -104.0, -130.0, -112.0, -164.0, -180.0, -190.0, -206.0, -216.0, -222.0, -232.0, -296.0, -368.0], "WindowWidth": [6136.0, 6184.0, 6114.0, 6108.0, 6142.0, 6134.0, 6112.0, 6050.0, 6076.0, 6076.0, 6108.0, 6070.0, 6086.0, 6018.0, 6018.0, 5866.0, 5750.0, 5632.0, 5668.0, 5594.0, 5526.0, 5540.0, 5540.0, 5654.0, 5624.0, 5590.0, 5550.0, 5408.0, 5334.0, 5084.0, 5042.0, 5234.0, 5316.0, 5280.0, 5390.0, 5296.0, 5162.0, 5320.0, 5230.0, 5290.0, 5274.0, 5108.0, 5224.0, 5190.0, 5116.0, 5184.0, 5106.0, 5178.0, 5270.0, 4940.0, 4580.0, 5200.0, 5186.0, 4620.0, 5362.0, 5492.0, 5440.0, 5486.0, 5498.0, 5578.0, 5654.0, 5612.0, 5712.0, 5692.0, 5814.0, 5874.0, 5980.0, 6116.0, 6104.0, 6172.0, 6286.0, 6310.0]}}, "IntendedFor": ["ses-action01/func/sub-23_ses-action01_task-action_run-10_bold.nii.gz", "ses-action01/func/sub-23_ses-action01_task-action_run-02_bold.nii.gz", "ses-action01/func/sub-23_ses-action01_task-action_run-12_bold.nii.gz", "ses-action01/func/sub-23_ses-action01_task-action_run-04_bold.nii.gz", "ses-action01/func/sub-23_ses-action01_task-action_run-06_bold.nii.gz", "ses-action01/func/sub-23_ses-action01_task-action_run-09_bold.nii.gz", "ses-action01/func/sub-23_ses-action01_task-action_run-05_bold.nii.gz", "ses-action01/func/sub-23_ses-action01_task-action_run-08_bold.nii.gz", "ses-action01/func/sub-23_ses-action01_task-action_run-07_bold.nii.gz", "ses-action01/func/sub-23_ses-action01_task-action_run-01_bold.nii.gz", "ses-action01/func/sub-23_ses-action01_task-action_run-11_bold.nii.gz", "ses-action01/func/sub-23_ses-action01_task-action_run-03_bold.nii.gz"]}