{
  "AcquisitionMatrixPE": 100,
  "AcquisitionNumber": 1,
  "AcquisitionTime": "11:07:1.345000",
  "BandwidthPerPixelPhaseEncode": 18.519,
  "BaseResolution": 100,
  "BodyPartExamined": "BRAIN",
  "CoilCombinationMethod": "Sum of Squares",
  "ConsistencyInfo": "N4_VE11C_LATEST_20160120",
  "ConversionSoftware": "dcm2niix",
  "ConversionSoftwareVersion": "v1.0.20211006",
  "DerivedVendorReportedEchoSpacing": 0.000539986,
  "DeviceSerialNumber": "166078",
  "DwellTime": 2.1e-06,
  "EchoTime": 0.034,
  "EchoTrainLength": 100,
  "EffectiveEchoSpacing": 0.000539986,
  "FlipAngle": 90,
  "ImageOrientationPatientDICOM": [0.999194, 0.00710676, 0.0394975, -2.98692e-08, 0.984196, -0.177085],
  "ImageOrientationText": "Tra>Cor(-10.2)>Sag(2.3)",
  "ImageType": [
    "ORIGINAL",
    "PRIMARY",
    "M",
    "ND",
    "MOSAIC"
],
  "ImagingFrequency": 123.258,
  "InPlanePhaseEncodingDirectionDICOM": "COL",
  "InstitutionAddress": "Street StreetNo,Bei Jing,District,CN,ZIP",
  "InstitutionName": "BeiJing Normal University",
  "InstitutionalDepartmentName": "Department",
  "MRAcquisitionType": "2D",
  "MagneticFieldStrength": 3,
  "Manufacturer": "Siemens",
  "ManufacturersModelName": "Prisma",
  "Modality": "MR",
  "MultibandAccelerationFactor": 3,
  "PartialFourier": 1,
  "PatientPosition": "HFS",
  "PercentPhaseFOV": 100,
  "PercentSampling": 100,
  "PhaseEncodingDirection": "j-",
  "PhaseEncodingSteps": 100,
  "PhaseResolution": 1,
  "PixelBandwidth": 2380,
  "ProcedureStepDescription": "BNU_P2018_64CH^Zhen.ZongLei",
  "ProtocolName": "bold_100x100_s3_2x2x2_static_156",
  "PulseSequenceDetails": "%SiemensSeq%\\ep2d_bold",
  "ReceiveCoilActiveElements": "HC1-7;NC1",
  "ReceiveCoilName": "HeadNeck_64",
  "ReconMatrixPE": 100,
  "RefLinesPE": 32,
  "RepetitionTime": 2,
  "SAR": 0.0742036,
  "ScanOptions": "FS",
  "ScanningSequence": "EP",
  "SequenceName": "*epfid2d1_100",
  "SequenceVariant": "SK",
  "SeriesDescription": "bold_100x100_s3_2x2x2_static_156",
  "SeriesNumber": 3,
  "ShimSetting": [-5435, -11499, -1211, 492, 25, -200, -138, 21],
  "SliceThickness": 2,
  "SliceTiming": [1.485, 0, 0.99, 0.0825, 1.0725, 0.165, 1.155, 0.2475, 1.2375, 0.33, 1.32, 0.4125, 1.4025, 0.5775, 1.5675, 0.66, 1.65, 0.7425, 1.7325, 0.825, 1.815, 0.9075, 1.8975, 0.495, 1.485, 0, 0.99, 0.0825, 1.0725, 0.165, 1.155, 0.2475, 1.2375, 0.33, 1.32, 0.4125, 1.4025, 0.5775, 1.5675, 0.66, 1.65, 0.7425, 1.7325, 0.825, 1.815, 0.9075, 1.8975, 0.495, 1.485, 0, 0.99, 0.0825, 1.0725, 0.165, 1.155, 0.2475, 1.2375, 0.33, 1.32, 0.4125, 1.4025, 0.5775, 1.5675, 0.66, 1.65, 0.7425, 1.7325, 0.825, 1.815, 0.9075, 1.8975, 0.495],
  "SoftwareVersions": "syngo MR E11",
  "SpacingBetweenSlices": 2,
  "StationName": "AWP166078",
  "TaskName": "action",
  "TotalReadoutTime": 0.0534586,
  "TxRefAmp": 239.774,
  "dcmmeta_affine": [
    [-1.9983887672424316, -5.973833339112389e-08, 0.08026359230279922, 99.78195190429688],
    [-0.014213516376912594, 1.9683911800384521, -0.35388416051864624, -81.57473754882812],
    [0.07899506390094757, 0.35416948795318604, 1.9668054580688477, -79.05699920654297],
    [0.0, 0.0, 0.0, 1.0]
],
  "dcmmeta_reorient_transform": [
    [0.0, -1.0, 0.0, 99.0],
    [1.0, 0.0, 0.0, 0.0],
    [0.0, 0.0, 1.0, 0.0],
    [0.0, 0.0, 0.0, 1.0]
],
  "dcmmeta_shape": [100, 100, 72, 156],
  "dcmmeta_slice_dim": 2,
  "dcmmeta_version": 0.6,
  "global": {
    "const": {
      "AcquisitionMatrix": [100, 0, 0, 100],
      "AngioFlag": "N",
      "BitsAllocated": 16,
      "BitsStored": 12,
      "BodyPartExamined": "BRAIN",
      "Columns": 900,
      "EchoNumbers": 1,
      "EchoTime": 34.0,
      "EchoTrainLength": 100,
      "FlipAngle": 90.0,
      "HighBit": 11,
      "ImageOrientationPatient": [0.99919439493165, 0.00710675833587, 0.03949753312715, -2.9869168e-08, 0.98419560753296, -0.1770847427443],
      "ImagePositionPatient": [-899.13743569091, -906.33788169284, 66.075551338567],
      "ImageType": [
        "ORIGINAL",
        "PRIMARY",
        "M",
        "ND",
        "MOSAIC"
],
      "ImagedNucleus": "1H",
      "ImagingFrequency": 123.257689,
      "InPlanePhaseEncodingDirection": "COL",
      "MRAcquisitionType": "2D",
      "MagneticFieldStrength": 3.0,
      "Manufacturer": "SIEMENS",
      "ManufacturerModelName": "Prisma",
      "Modality": "MR",
      "NumberOfAverages": 1.0,
      "NumberOfPhaseEncodingSteps": 100,
      "PercentPhaseFieldOfView": 100.0,
      "PercentSampling": 100.0,
      "PerformedProcedureStepStartTime": "105552.209000",
      "PhotometricInterpretation": "MONOCHROME2",
      "PixelBandwidth": 2380.0,
      "PixelRepresentation": 0,
      "PixelSpacing": [2.0, 2.0],
      "ProtocolName": "bold_100x100_s3_2x2x2_static_156",
      "RepetitionTime": 2000.0,
      "Rows": 900,
      "SAR": 0.07420357964624,
      "SamplesPerPixel": 1,
      "ScanOptions": "FS",
      "ScanningSequence": "EP",
      "SequenceName": "*epfid2d1_100",
      "SequenceVariant": "SK",
      "SeriesDescription": "bold_100x100_s3_2x2x2_static_156",
      "SeriesNumber": 3,
      "SeriesTime": "110703.762000",
      "SliceLocation": -59.306432047849,
      "SliceThickness": 2.0,
      "SmallestImagePixelValue": 0,
      "SoftwareVersions": "syngo MR E11",
      "SpacingBetweenSlices": 2.000000001029,
      "SpecificCharacterSet": "ISO_IR 100",
      "StudyID": "1",
      "StudyTime": "105552.099000",
      "TransmitCoilName": "Body",
      "VariableFlipAngleFlag": "N",
      "WindowCenterWidthExplanation": "Algo1",
      "dBdt": 0.0},
    "slices": {}
  },
  "time": {
    "samples": {
      "AcquisitionNumber": [1, 2, 3, 4, 5, 6, 7, 8, 9, 10, 11, 12, 13, 14, 15, 16, 17, 18, 19, 20, 21, 22, 23, 24, 25, 26, 27, 28, 29, 30, 31, 32, 33, 34, 35, 36, 37, 38, 39, 40, 41, 42, 43, 44, 45, 46, 47, 48, 49, 50, 51, 52, 53, 54, 55, 56, 57, 58, 59, 60, 61, 62, 63, 64, 65, 66, 67, 68, 69, 70, 71, 72, 73, 74, 75, 76, 77, 78, 79, 80, 81, 82, 83, 84, 85, 86, 87, 88, 89, 90, 91, 92, 93, 94, 95, 96, 97, 98, 99, 100, 101, 102, 103, 104, 105, 106, 107, 108, 109, 110, 111, 112, 113, 114, 115, 116, 117, 118, 119, 120, 121, 122, 123, 124, 125, 126, 127, 128, 129, 130, 131, 132, 133, 134, 135, 136, 137, 138, 139, 140, 141, 142, 143, 144, 145, 146, 147, 148, 149, 150, 151, 152, 153, 154, 155, 156],
      "AcquisitionTime": ["110701.345000", "110703.345000", "110705.345000", "110707.345000", "110709.345000", "110711.345000", "110713.345000", "110715.345000", "110717.345000", "110719.345000", "110721.345000", "110723.345000", "110725.345000", "110727.345000", "110729.345000", "110731.345000", "110733.345000", "110735.345000", "110737.345000", "110739.345000", "110741.345000", "110743.345000", "110745.345000", "110747.345000", "110749.345000", "110751.345000", "110753.345000", "110755.345000", "110757.345000", "110759.345000", "110801.345000", "110803.345000", "110805.345000", "110807.345000", "110809.345000", "110811.345000", "110813.345000", "110815.345000", "110817.345000", "110819.345000", "110821.345000", "110823.345000", "110825.345000", "110827.345000", "110829.345000", "110831.345000", "110833.345000", "110835.345000", "110837.345000", "110839.345000", "110841.345000", "110843.345000", "110845.345000", "110847.345000", "110849.345000", "110851.345000", "110853.345000", "110855.345000", "110857.345000", "110859.345000", "110901.345000", "110903.345000", "110905.345000", "110907.345000", "110909.345000", "110911.345000", "110913.345000", "110915.345000", "110917.345000", "110919.345000", "110921.345000", "110923.345000", "110925.345000", "110927.345000", "110929.345000", "110931.345000", "110933.345000", "110935.345000", "110937.345000", "110939.345000", "110941.345000", "110943.345000", "110945.345000", "110947.345000", "110949.345000", "110951.345000", "110953.345000", "110955.345000", "110957.345000", "110959.345000", "111001.345000", "111003.345000", "111005.345000", "111007.345000", "111009.345000", "111011.345000", "111013.345000", "111015.345000", "111017.345000", "111019.345000", "111021.345000", "111023.345000", "111025.345000", "111027.345000", "111029.345000", "111031.345000", "111033.345000", "111035.345000", "111037.345000", "111039.345000", "111041.345000", "111043.345000", "111045.345000", "111047.345000", "111049.345000", "111051.345000", "111053.345000", "111055.345000", "111057.345000", "111059.345000", "111101.345000", "111103.345000", "111105.345000", "111107.345000", "111109.345000", "111111.345000", "111113.345000", "111115.345000", "111117.345000", "111119.345000", "111121.345000", "111123.345000", "111125.345000", "111127.345000", "111129.345000", "111131.345000", "111133.345000", "111135.345000", "111137.345000", "111139.345000", "111141.345000", "111143.345000", "111145.345000", "111147.345000", "111149.345000", "111151.345000", "111153.345000", "111155.345000", "111157.345000", "111159.345000", "111201.345000", "111203.345000", "111205.345000", "111207.345000", "111209.345000", "111211.345000"],
      "ContentTime": ["110703.766000", "110705.262000", "110707.261000", "110709.261000", "110711.260000", "110713.260000", "110715.261000", "110717.261000", "110719.261000", "110721.261000", "110723.261000", "110725.261000", "110727.262000", "110729.261000", "110731.280000", "110733.261000", "110735.261000", "110737.260000", "110739.261000", "110741.261000", "110743.261000", "110745.261000", "110747.260000", "110749.260000", "110751.260000", "110753.260000", "110755.261000", "110757.262000", "110759.261000", "110801.262000", "110803.260000", "110805.260000", "110807.260000", "110809.260000", "110811.260000", "110813.263000", "110815.262000", "110817.261000", "110819.262000", "110821.261000", "110823.260000", "110825.260000", "110827.260000", "110829.260000", "110831.261000", "110833.262000", "110835.262000", "110837.261000", "110839.260000", "110841.260000", "110843.260000", "110845.262000", "110847.260000", "110849.261000", "110851.261000", "110853.261000", "110855.262000", "110857.261000", "110859.260000", "110901.261000", "110903.260000", "110905.261000", "110907.261000", "110909.262000", "110911.262000", "110913.260000", "110915.261000", "110917.261000", "110919.260000", "110921.260000", "110923.261000", "110925.261000", "110927.262000", "110929.261000", "110931.261000", "110933.261000", "110935.260000", "110937.260000", "110939.261000", "110941.261000", "110943.261000", "110945.261000", "110947.262000", "110949.261000", "110951.260000", "110953.261000", "110955.260000", "110957.260000", "110959.262000", "111001.261000", "111003.261000", "111005.262000", "111007.260000", "111009.260000", "111011.260000", "111013.261000", "111015.261000", "111017.261000", "111019.262000", "111021.261000", "111023.261000", "111025.260000", "111027.260000", "111029.260000", "111031.260000", "111033.262000", "111035.261000", "111037.262000", "111039.262000", "111041.260000", "111043.261000", "111045.260000", "111047.260000", "111049.260000", "111051.262000", "111053.261000", "111055.262000", "111057.262000", "111059.261000", "111101.260000", "111103.260000", "111105.261000", "111107.261000", "111109.262000", "111111.261000", "111113.262000", "111115.261000", "111117.260000", "111119.260000", "111121.263000", "111123.261000", "111125.262000", "111127.262000", "111129.261000", "111131.261000", "111133.261000", "111135.261000", "111137.260000", "111139.261000", "111141.260000", "111143.261000", "111145.262000", "111147.261000", "111149.261000", "111151.261000", "111153.261000", "111155.260000", "111157.261000", "111159.260000", "111201.262000", "111203.262000", "111205.261000", "111207.261000", "111209.260000", "111211.261000", "111213.047000"],
      "InstanceCreationTime": ["110703.766000", "110705.262000", "110707.261000", "110709.261000", "110711.260000", "110713.260000", "110715.261000", "110717.261000", "110719.261000", "110721.261000", "110723.261000", "110725.261000", "110727.262000", "110729.261000", "110731.280000", "110733.261000", "110735.261000", "110737.260000", "110739.261000", "110741.261000", "110743.261000", "110745.261000", "110747.260000", "110749.260000", "110751.260000", "110753.260000", "110755.261000", "110757.262000", "110759.261000", "110801.262000", "110803.260000", "110805.260000", "110807.260000", "110809.260000", "110811.260000", "110813.263000", "110815.262000", "110817.261000", "110819.262000", "110821.261000", "110823.260000", "110825.260000", "110827.260000", "110829.260000", "110831.261000", "110833.262000", "110835.262000", "110837.261000", "110839.260000", "110841.260000", "110843.260000", "110845.262000", "110847.260000", "110849.261000", "110851.261000", "110853.261000", "110855.262000", "110857.261000", "110859.260000", "110901.261000", "110903.260000", "110905.261000", "110907.261000", "110909.262000", "110911.262000", "110913.260000", "110915.261000", "110917.261000", "110919.260000", "110921.260000", "110923.261000", "110925.261000", "110927.262000", "110929.261000", "110931.261000", "110933.261000", "110935.260000", "110937.260000", "110939.261000", "110941.261000", "110943.261000", "110945.261000", "110947.262000", "110949.261000", "110951.260000", "110953.261000", "110955.260000", "110957.260000", "110959.262000", "111001.261000", "111003.261000", "111005.262000", "111007.260000", "111009.260000", "111011.260000", "111013.261000", "111015.261000", "111017.261000", "111019.262000", "111021.261000", "111023.261000", "111025.260000", "111027.260000", "111029.260000", "111031.260000", "111033.262000", "111035.261000", "111037.262000", "111039.262000", "111041.260000", "111043.261000", "111045.260000", "111047.260000", "111049.260000", "111051.262000", "111053.261000", "111055.262000", "111057.262000", "111059.261000", "111101.260000", "111103.260000", "111105.261000", "111107.261000", "111109.262000", "111111.261000", "111113.262000", "111115.261000", "111117.260000", "111119.260000", "111121.263000", "111123.261000", "111125.262000", "111127.262000", "111129.261000", "111131.261000", "111133.261000", "111135.261000", "111137.260000", "111139.261000", "111141.260000", "111143.261000", "111145.262000", "111147.261000", "111149.261000", "111151.261000", "111153.261000", "111155.260000", "111157.261000", "111159.260000", "111201.262000", "111203.262000", "111205.261000", "111207.261000", "111209.260000", "111211.261000", "111213.047000"],
      "InstanceNumber": [1, 2, 3, 4, 5, 6, 7, 8, 9, 10, 11, 12, 13, 14, 15, 16, 17, 18, 19, 20, 21, 22, 23, 24, 25, 26, 27, 28, 29, 30, 31, 32, 33, 34, 35, 36, 37, 38, 39, 40, 41, 42, 43, 44, 45, 46, 47, 48, 49, 50, 51, 52, 53, 54, 55, 56, 57, 58, 59, 60, 61, 62, 63, 64, 65, 66, 67, 68, 69, 70, 71, 72, 73, 74, 75, 76, 77, 78, 79, 80, 81, 82, 83, 84, 85, 86, 87, 88, 89, 90, 91, 92, 93, 94, 95, 96, 97, 98, 99, 100, 101, 102, 103, 104, 105, 106, 107, 108, 109, 110, 111, 112, 113, 114, 115, 116, 117, 118, 119, 120, 121, 122, 123, 124, 125, 126, 127, 128, 129, 130, 131, 132, 133, 134, 135, 136, 137, 138, 139, 140, 141, 142, 143, 144, 145, 146, 147, 148, 149, 150, 151, 152, 153, 154, 155, 156],
      "LargestImagePixelValue": [3735, 3664, 3762, 3660, 3691, 3671, 3730, 3667, 3710, 3697, 3673, 3697, 3682, 3687, 3730, 3569, 3681, 3698, 3739, 3705, 3633, 3655, 3733, 3722, 3668, 3712, 3725, 3684, 3721, 3741, 3766, 3716, 3675, 3696, 3712, 3712, 3738, 3729, 3752, 3719, 3683, 3658, 3734, 3683, 3722, 3727, 3696, 3721, 3727, 3699, 3693, 3693, 3682, 3684, 3744, 3757, 3728, 3690, 3651, 3688, 3730, 3676, 3755, 3694, 3713, 3719, 3728, 3767, 3744, 3690, 3750, 3702, 3698, 3692, 3708, 3693, 3716, 3767, 3746, 3710, 3707, 3732, 3689, 3718, 3725, 3701, 3710, 3752, 3715, 3687, 3696, 3681, 3697, 3689, 3649, 3686, 3658, 3715, 3683, 3689, 3735, 3716, 3715, 3671, 3690, 3668, 3699, 3705, 3722, 3657, 3699, 3669, 3659, 3674, 3721, 3686, 3716, 3717, 3713, 3707, 3705, 3688, 3699, 3722, 3668, 3683, 3684, 3707, 3685, 3693, 3700, 3703, 3708, 3706, 3690, 3703, 3709, 3707, 3728, 3750, 3736, 3698, 3698, 3684, 3786, 3681, 3708, 3740, 3717, 3782, 3746, 3725, 3755, 3758, 3762, 3738],
      "WindowCenter": [865.0, 861.0, 861.0, 860.0, 860.0, 860.0, 860.0, 859.0, 859.0, 860.0, 859.0, 859.0, 860.0, 859.0, 860.0, 858.0, 861.0, 859.0, 858.0, 856.0, 858.0, 859.0, 859.0, 859.0, 857.0, 860.0, 860.0, 858.0, 858.0, 859.0, 860.0, 862.0, 862.0, 861.0, 861.0, 860.0, 859.0, 859.0, 858.0, 859.0, 860.0, 861.0, 862.0, 861.0, 860.0, 859.0, 860.0, 860.0, 861.0, 861.0, 861.0, 862.0, 862.0, 862.0, 862.0, 861.0, 862.0, 861.0, 860.0, 860.0, 861.0, 860.0, 860.0, 861.0, 863.0, 862.0, 862.0, 863.0, 864.0, 864.0, 863.0, 863.0, 863.0, 864.0, 865.0, 865.0, 865.0, 867.0, 867.0, 866.0, 865.0, 865.0, 864.0, 863.0, 863.0, 863.0, 864.0, 865.0, 866.0, 866.0, 866.0, 864.0, 864.0, 864.0, 862.0, 862.0, 863.0, 865.0, 865.0, 864.0, 865.0, 866.0, 866.0, 865.0, 865.0, 864.0, 865.0, 865.0, 865.0, 864.0, 864.0, 864.0, 864.0, 864.0, 864.0, 863.0, 864.0, 863.0, 863.0, 863.0, 863.0, 863.0, 863.0, 864.0, 864.0, 865.0, 864.0, 864.0, 864.0, 862.0, 863.0, 864.0, 865.0, 864.0, 865.0, 867.0, 868.0, 867.0, 866.0, 865.0, 865.0, 866.0, 865.0, 865.0, 866.0, 865.0, 863.0, 862.0, 862.0, 863.0, 862.0, 861.0, 860.0, 863.0, 864.0, 863.0],
      "WindowWidth": [1883.0, 1870.0, 1869.0, 1866.0, 1867.0, 1868.0, 1868.0, 1863.0, 1866.0, 1867.0, 1865.0, 1863.0, 1866.0, 1863.0, 1868.0, 1861.0, 1869.0, 1864.0, 1861.0, 1856.0, 1862.0, 1864.0, 1865.0, 1865.0, 1860.0, 1866.0, 1867.0, 1861.0, 1863.0, 1865.0, 1868.0, 1872.0, 1873.0, 1870.0, 1868.0, 1867.0, 1866.0, 1864.0, 1863.0, 1865.0, 1867.0, 1869.0, 1872.0, 1868.0, 1866.0, 1865.0, 1866.0, 1868.0, 1870.0, 1870.0, 1869.0, 1871.0, 1873.0, 1872.0, 1871.0, 1871.0, 1871.0, 1869.0, 1868.0, 1868.0, 1870.0, 1866.0, 1867.0, 1870.0, 1874.0, 1873.0, 1872.0, 1874.0, 1877.0, 1876.0, 1876.0, 1874.0, 1875.0, 1878.0, 1880.0, 1878.0, 1880.0, 1885.0, 1884.0, 1881.0, 1881.0, 1881.0, 1878.0, 1874.0, 1874.0, 1875.0, 1878.0, 1881.0, 1882.0, 1882.0, 1881.0, 1876.0, 1877.0, 1875.0, 1870.0, 1871.0, 1873.0, 1878.0, 1878.0, 1877.0, 1880.0, 1882.0, 1882.0, 1878.0, 1878.0, 1877.0, 1878.0, 1879.0, 1880.0, 1876.0, 1877.0, 1876.0, 1875.0, 1875.0, 1875.0, 1873.0, 1875.0, 1874.0, 1872.0, 1873.0, 1873.0, 1872.0, 1874.0, 1875.0, 1875.0, 1879.0, 1876.0, 1875.0, 1874.0, 1870.0, 1873.0, 1876.0, 1879.0, 1876.0, 1877.0, 1884.0, 1886.0, 1883.0, 1880.0, 1878.0, 1879.0, 1880.0, 1879.0, 1877.0, 1881.0, 1877.0, 1872.0, 1871.0, 1870.0, 1873.0, 1871.0, 1866.0, 1865.0, 1873.0, 1875.0, 1872.0]
    },
    "slices": {}
  }
}