{
  "AcquisitionMatrixPE": 100,
  "AcquisitionNumber": 1,
  "AcquisitionTime": "11:18:47.072500",
  "BandwidthPerPixelPhaseEncode": 18.519,
  "BaseResolution": 100,
  "BodyPartExamined": "BRAIN",
  "CoilCombinationMethod": "Sum of Squares",
  "ConsistencyInfo": "N4_VE11C_LATEST_20160120",
  "ConversionSoftware": "dcm2niix",
  "ConversionSoftwareVersion": "v1.0.20211006",
  "DerivedVendorReportedEchoSpacing": 0.000539986,
  "DeviceSerialNumber": "166078",
  "DwellTime": 2.1e-06,
  "EchoTime": 0.034,
  "EchoTrainLength": 100,
  "EffectiveEchoSpacing": 0.000539986,
  "FlipAngle": 90,
  "ImageOrientationPatientDICOM": [0.999194, 0.00710676, 0.0394975, -2.98692e-08, 0.984196, -0.177085],
  "ImageOrientationText": "Tra>Cor(-10.2)>Sag(2.3)",
  "ImageType": [
    "ORIGINAL",
    "PRIMARY",
    "M",
    "ND",
    "MOSAIC"
],
  "ImagingFrequency": 123.258,
  "InPlanePhaseEncodingDirectionDICOM": "COL",
  "InstitutionAddress": "Street StreetNo,Bei Jing,District,CN,ZIP",
  "InstitutionName": "BeiJing Normal University",
  "InstitutionalDepartmentName": "Department",
  "MRAcquisitionType": "2D",
  "MagneticFieldStrength": 3,
  "Manufacturer": "Siemens",
  "ManufacturersModelName": "Prisma",
  "Modality": "MR",
  "MultibandAccelerationFactor": 3,
  "PartialFourier": 1,
  "PatientPosition": "HFS",
  "PercentPhaseFOV": 100,
  "PercentSampling": 100,
  "PhaseEncodingDirection": "j-",
  "PhaseEncodingSteps": 100,
  "PhaseResolution": 1,
  "PixelBandwidth": 2380,
  "ProcedureStepDescription": "BNU_P2018_64CH^Zhen.ZongLei",
  "ProtocolName": "bold_100x100_s3_2x2x2_static_156",
  "PulseSequenceDetails": "%SiemensSeq%\\ep2d_bold",
  "ReceiveCoilActiveElements": "HC1-7;NC1",
  "ReceiveCoilName": "HeadNeck_64",
  "ReconMatrixPE": 100,
  "RefLinesPE": 32,
  "RepetitionTime": 2,
  "SAR": 0.0742036,
  "ScanOptions": "FS",
  "ScanningSequence": "EP",
  "SequenceName": "*epfid2d1_100",
  "SequenceVariant": "SK",
  "SeriesDescription": "bold_100x100_s3_2x2x2_static_156",
  "SeriesNumber": 5,
  "ShimSetting": [-5435, -11499, -1211, 492, 25, -200, -138, 21],
  "SliceThickness": 2,
  "SliceTiming": [1.485, 0, 0.99, 0.0825, 1.0725, 0.165, 1.155, 0.2475, 1.2375, 0.33, 1.32, 0.4125, 1.4025, 0.5775, 1.5675, 0.66, 1.65, 0.7425, 1.7325, 0.825, 1.815, 0.9075, 1.8975, 0.495, 1.485, 0, 0.99, 0.0825, 1.0725, 0.165, 1.155, 0.2475, 1.2375, 0.33, 1.32, 0.4125, 1.4025, 0.5775, 1.5675, 0.66, 1.65, 0.7425, 1.7325, 0.825, 1.815, 0.9075, 1.8975, 0.495, 1.485, 0, 0.99, 0.0825, 1.0725, 0.165, 1.155, 0.2475, 1.2375, 0.33, 1.32, 0.4125, 1.4025, 0.5775, 1.5675, 0.66, 1.65, 0.7425, 1.7325, 0.825, 1.815, 0.9075, 1.8975, 0.495],
  "SoftwareVersions": "syngo MR E11",
  "SpacingBetweenSlices": 2,
  "StationName": "AWP166078",
  "TaskName": "action",
  "TotalReadoutTime": 0.0534586,
  "TxRefAmp": 239.774,
  "dcmmeta_affine": [
    [-1.9983887672424316, -5.973833339112389e-08, 0.08026359230279922, 99.78195190429688],
    [-0.014213516376912594, 1.9683911800384521, -0.35388416051864624, -81.57473754882812],
    [0.07899506390094757, 0.35416948795318604, 1.9668054580688477, -79.05699920654297],
    [0.0, 0.0, 0.0, 1.0]
],
  "dcmmeta_reorient_transform": [
    [0.0, -1.0, 0.0, 99.0],
    [1.0, 0.0, 0.0, 0.0],
    [0.0, 0.0, 1.0, 0.0],
    [0.0, 0.0, 0.0, 1.0]
],
  "dcmmeta_shape": [100, 100, 72, 156],
  "dcmmeta_slice_dim": 2,
  "dcmmeta_version": 0.6,
  "global": {
    "const": {
      "AcquisitionMatrix": [100, 0, 0, 100],
      "AngioFlag": "N",
      "BitsAllocated": 16,
      "BitsStored": 12,
      "BodyPartExamined": "BRAIN",
      "Columns": 900,
      "EchoNumbers": 1,
      "EchoTime": 34.0,
      "EchoTrainLength": 100,
      "FlipAngle": 90.0,
      "HighBit": 11,
      "ImageOrientationPatient": [0.99919439493165, 0.00710675833587, 0.03949753312715, -2.9869168e-08, 0.98419560753296, -0.1770847427443],
      "ImagePositionPatient": [-899.13743569091, -906.33788169284, 66.075551338567],
      "ImageType": [
        "ORIGINAL",
        "PRIMARY",
        "M",
        "ND",
        "MOSAIC"
],
      "ImagedNucleus": "1H",
      "ImagingFrequency": 123.257699,
      "InPlanePhaseEncodingDirection": "COL",
      "MRAcquisitionType": "2D",
      "MagneticFieldStrength": 3.0,
      "Manufacturer": "SIEMENS",
      "ManufacturerModelName": "Prisma",
      "Modality": "MR",
      "NumberOfAverages": 1.0,
      "NumberOfPhaseEncodingSteps": 100,
      "PercentPhaseFieldOfView": 100.0,
      "PercentSampling": 100.0,
      "PerformedProcedureStepStartTime": "105552.209000",
      "PhotometricInterpretation": "MONOCHROME2",
      "PixelBandwidth": 2380.0,
      "PixelRepresentation": 0,
      "PixelSpacing": [2.0, 2.0],
      "ProtocolName": "bold_100x100_s3_2x2x2_static_156",
      "RepetitionTime": 2000.0,
      "Rows": 900,
      "SAR": 0.07420357964624,
      "SamplesPerPixel": 1,
      "ScanOptions": "FS",
      "ScanningSequence": "EP",
      "SequenceName": "*epfid2d1_100",
      "SequenceVariant": "SK",
      "SeriesDescription": "bold_100x100_s3_2x2x2_static_156",
      "SeriesNumber": 5,
      "SeriesTime": "111849.331000",
      "SliceLocation": -59.306432047849,
      "SliceThickness": 2.0,
      "SmallestImagePixelValue": 0,
      "SoftwareVersions": "syngo MR E11",
      "SpacingBetweenSlices": 2.000000001029,
      "SpecificCharacterSet": "ISO_IR 100",
      "StudyID": "1",
      "StudyTime": "105552.099000",
      "TransmitCoilName": "Body",
      "VariableFlipAngleFlag": "N",
      "WindowCenterWidthExplanation": "Algo1",
      "dBdt": 0.0},
    "slices": {}
  },
  "time": {
    "samples": {
      "AcquisitionNumber": [1, 2, 3, 4, 5, 6, 7, 8, 9, 10, 11, 12, 13, 14, 15, 16, 17, 18, 19, 20, 21, 22, 23, 24, 25, 26, 27, 28, 29, 30, 31, 32, 33, 34, 35, 36, 37, 38, 39, 40, 41, 42, 43, 44, 45, 46, 47, 48, 49, 50, 51, 52, 53, 54, 55, 56, 57, 58, 59, 60, 61, 62, 63, 64, 65, 66, 67, 68, 69, 70, 71, 72, 73, 74, 75, 76, 77, 78, 79, 80, 81, 82, 83, 84, 85, 86, 87, 88, 89, 90, 91, 92, 93, 94, 95, 96, 97, 98, 99, 100, 101, 102, 103, 104, 105, 106, 107, 108, 109, 110, 111, 112, 113, 114, 115, 116, 117, 118, 119, 120, 121, 122, 123, 124, 125, 126, 127, 128, 129, 130, 131, 132, 133, 134, 135, 136, 137, 138, 139, 140, 141, 142, 143, 144, 145, 146, 147, 148, 149, 150, 151, 152, 153, 154, 155, 156],
      "AcquisitionTime": ["111847.072500", "111849.072500", "111851.072500", "111853.072500", "111855.072500", "111857.072500", "111859.072500", "111901.072500", "111903.072500", "111905.072500", "111907.072500", "111909.072500", "111911.072500", "111913.072500", "111915.072500", "111917.072500", "111919.072500", "111921.072500", "111923.072500", "111925.072500", "111927.072500", "111929.072500", "111931.072500", "111933.072500", "111935.072500", "111937.072500", "111939.072500", "111941.072500", "111943.072500", "111945.072500", "111947.072500", "111949.072500", "111951.072500", "111953.072500", "111955.072500", "111957.072500", "111959.072500", "112001.072500", "112003.072500", "112005.072500", "112007.072500", "112009.072500", "112011.072500", "112013.072500", "112015.072500", "112017.072500", "112019.072500", "112021.072500", "112023.072500", "112025.072500", "112027.072500", "112029.072500", "112031.072500", "112033.072500", "112035.072500", "112037.072500", "112039.072500", "112041.072500", "112043.072500", "112045.072500", "112047.072500", "112049.072500", "112051.072500", "112053.072500", "112055.072500", "112057.072500", "112059.072500", "112101.072500", "112103.072500", "112105.072500", "112107.072500", "112109.072500", "112111.072500", "112113.072500", "112115.072500", "112117.072500", "112119.072500", "112121.072500", "112123.072500", "112125.072500", "112127.072500", "112129.072500", "112131.072500", "112133.072500", "112135.072500", "112137.072500", "112139.072500", "112141.072500", "112143.072500", "112145.072500", "112147.072500", "112149.072500", "112151.072500", "112153.072500", "112155.072500", "112157.072500", "112159.072500", "112201.072500", "112203.072500", "112205.072500", "112207.072500", "112209.072500", "112211.072500", "112213.072500", "112215.072500", "112217.072500", "112219.072500", "112221.072500", "112223.072500", "112225.072500", "112227.072500", "112229.072500", "112231.072500", "112233.072500", "112235.072500", "112237.072500", "112239.072500", "112241.072500", "112243.072500", "112245.072500", "112247.072500", "112249.072500", "112251.072500", "112253.072500", "112255.072500", "112257.072500", "112259.072500", "112301.072500", "112303.072500", "112305.072500", "112307.072500", "112309.072500", "112311.072500", "112313.072500", "112315.072500", "112317.072500", "112319.072500", "112321.072500", "112323.072500", "112325.072500", "112327.072500", "112329.072500", "112331.072500", "112333.072500", "112335.072500", "112337.072500", "112339.072500", "112341.072500", "112343.072500", "112345.072500", "112347.072500", "112349.072500", "112351.072500", "112353.072500", "112355.072500", "112357.072500"],
      "ContentTime": ["111849.335000", "111850.831000", "111852.831000", "111854.830000", "111856.830000", "111858.829000", "111900.830000", "111902.850000", "111904.831000", "111906.831000", "111908.831000", "111910.831000", "111912.830000", "111914.831000", "111916.830000", "111918.831000", "111920.830000", "111922.830000", "111924.830000", "111926.831000", "111928.330000", "111930.831000", "111932.829000", "111934.831000", "111936.831000", "111938.830000", "111940.830000", "111942.830000", "111944.830000", "111946.831000", "111948.831000", "111950.830000", "111952.830000", "111954.830000", "111956.831000", "111958.834000", "112000.830000", "112002.831000", "112004.831000", "112006.831000", "112008.830000", "112010.830000", "112012.831000", "112014.830000", "112016.830000", "112018.830000", "112020.831000", "112022.830000", "112024.830000", "112026.829000", "112028.830000", "112030.831000", "112032.830000", "112034.830000", "112036.831000", "112038.830000", "112040.831000", "112042.830000", "112044.831000", "112046.830000", "112048.830000", "112050.831000", "112052.831000", "112054.831000", "112056.831000", "112058.831000", "112100.829000", "112102.831000", "112104.830000", "112106.830000", "112108.830000", "112110.830000", "112112.830000", "112114.830000", "112116.830000", "112118.830000", "112120.831000", "112122.831000", "112124.831000", "112126.830000", "112128.831000", "112130.831000", "112132.830000", "112134.831000", "112136.830000", "112138.831000", "112140.831000", "112142.830000", "112144.831000", "112146.831000", "112148.830000", "112150.830000", "112152.829000", "112154.830000", "112156.830000", "112158.830000", "112200.830000", "112202.830000", "112204.830000", "112206.830000", "112208.830000", "112210.830000", "112212.831000", "112214.831000", "112216.831000", "112218.830000", "112220.830000", "112222.831000", "112224.830000", "112226.831000", "112228.830000", "112230.830000", "112232.831000", "112234.830000", "112236.830000", "112238.830000", "112240.831000", "112242.831000", "112244.831000", "112246.831000", "112248.831000", "112250.831000", "112252.831000", "112254.830000", "112256.831000", "112258.830000", "112300.831000", "112302.829000", "112304.330000", "112306.830000", "112308.831000", "112310.830000", "112312.830000", "112314.830000", "112316.830000", "112318.830000", "112320.830000", "112322.831000", "112324.831000", "112326.830000", "112328.830000", "112330.830000", "112332.831000", "112334.831000", "112336.830000", "112338.830000", "112340.831000", "112342.831000", "112344.830000", "112346.830000", "112348.831000", "112350.831000", "112352.831000", "112354.831000", "112356.831000", "112358.383000"],
      "InstanceCreationTime": ["111849.335000", "111850.831000", "111852.831000", "111854.830000", "111856.830000", "111858.829000", "111900.830000", "111902.850000", "111904.831000", "111906.831000", "111908.831000", "111910.831000", "111912.830000", "111914.831000", "111916.830000", "111918.831000", "111920.830000", "111922.830000", "111924.830000", "111926.831000", "111928.330000", "111930.831000", "111932.829000", "111934.831000", "111936.831000", "111938.830000", "111940.830000", "111942.830000", "111944.830000", "111946.831000", "111948.831000", "111950.830000", "111952.830000", "111954.830000", "111956.831000", "111958.834000", "112000.830000", "112002.831000", "112004.831000", "112006.831000", "112008.830000", "112010.830000", "112012.831000", "112014.830000", "112016.830000", "112018.830000", "112020.831000", "112022.830000", "112024.830000", "112026.829000", "112028.830000", "112030.831000", "112032.830000", "112034.830000", "112036.831000", "112038.830000", "112040.831000", "112042.830000", "112044.831000", "112046.830000", "112048.830000", "112050.831000", "112052.831000", "112054.831000", "112056.831000", "112058.831000", "112100.829000", "112102.831000", "112104.830000", "112106.830000", "112108.830000", "112110.830000", "112112.830000", "112114.830000", "112116.830000", "112118.830000", "112120.831000", "112122.831000", "112124.831000", "112126.830000", "112128.831000", "112130.831000", "112132.830000", "112134.831000", "112136.830000", "112138.831000", "112140.831000", "112142.830000", "112144.831000", "112146.831000", "112148.830000", "112150.830000", "112152.829000", "112154.830000", "112156.830000", "112158.830000", "112200.830000", "112202.830000", "112204.830000", "112206.830000", "112208.830000", "112210.830000", "112212.831000", "112214.831000", "112216.831000", "112218.830000", "112220.830000", "112222.831000", "112224.830000", "112226.831000", "112228.830000", "112230.830000", "112232.831000", "112234.830000", "112236.830000", "112238.830000", "112240.831000", "112242.831000", "112244.831000", "112246.831000", "112248.831000", "112250.831000", "112252.831000", "112254.830000", "112256.831000", "112258.830000", "112300.831000", "112302.829000", "112304.330000", "112306.830000", "112308.831000", "112310.830000", "112312.830000", "112314.830000", "112316.830000", "112318.830000", "112320.830000", "112322.831000", "112324.831000", "112326.830000", "112328.830000", "112330.830000", "112332.831000", "112334.831000", "112336.830000", "112338.830000", "112340.831000", "112342.831000", "112344.830000", "112346.830000", "112348.831000", "112350.831000", "112352.831000", "112354.831000", "112356.831000", "112358.383000"],
      "InstanceNumber": [1, 2, 3, 4, 5, 6, 7, 8, 9, 10, 11, 12, 13, 14, 15, 16, 17, 18, 19, 20, 21, 22, 23, 24, 25, 26, 27, 28, 29, 30, 31, 32, 33, 34, 35, 36, 37, 38, 39, 40, 41, 42, 43, 44, 45, 46, 47, 48, 49, 50, 51, 52, 53, 54, 55, 56, 57, 58, 59, 60, 61, 62, 63, 64, 65, 66, 67, 68, 69, 70, 71, 72, 73, 74, 75, 76, 77, 78, 79, 80, 81, 82, 83, 84, 85, 86, 87, 88, 89, 90, 91, 92, 93, 94, 95, 96, 97, 98, 99, 100, 101, 102, 103, 104, 105, 106, 107, 108, 109, 110, 111, 112, 113, 114, 115, 116, 117, 118, 119, 120, 121, 122, 123, 124, 125, 126, 127, 128, 129, 130, 131, 132, 133, 134, 135, 136, 137, 138, 139, 140, 141, 142, 143, 144, 145, 146, 147, 148, 149, 150, 151, 152, 153, 154, 155, 156],
      "LargestImagePixelValue": [3851, 3781, 3706, 3666, 3667, 3677, 3672, 3677, 3662, 3746, 3748, 3705, 3664, 3715, 3722, 3755, 3751, 3793, 3772, 3693, 3715, 3727, 3712, 3745, 3728, 3709, 3710, 3710, 3680, 3676, 3707, 3685, 3713, 3720, 3714, 3752, 3669, 3670, 3679, 3682, 3678, 3643, 3636, 3640, 3631, 3648, 3678, 3705, 3670, 3651, 3694, 3709, 3702, 3710, 3699, 3669, 3664, 3704, 3702, 3727, 3704, 3696, 3701, 3685, 3709, 3748, 3699, 3638, 3649, 3666, 3714, 3667, 3653, 3671, 3650, 3665, 3699, 3685, 3634, 3687, 3709, 3678, 3655, 3652, 3666, 3675, 3671, 3649, 3655, 3662, 3715, 3661, 3669, 3697, 3681, 3683, 3657, 3670, 3690, 3710, 3715, 3682, 3670, 3658, 3689, 3692, 3652, 3682, 3678, 3672, 3670, 3722, 3683, 3683, 3670, 3693, 3697, 3709, 3729, 3706, 3646, 3668, 3684, 3685, 3653, 3663, 3656, 3664, 3646, 3656, 3691, 3686, 3698, 3663, 3647, 3646, 3648, 3677, 3694, 3705, 3690, 3713, 3654, 3643, 3682, 3652, 3666, 3636, 3640, 3648, 3664, 3684, 3665, 3650, 3623, 3660],
      "WindowCenter": [870.0, 865.0, 862.0, 861.0, 860.0, 860.0, 861.0, 861.0, 863.0, 863.0, 863.0, 863.0, 864.0, 864.0, 865.0, 866.0, 867.0, 868.0, 868.0, 868.0, 868.0, 868.0, 869.0, 869.0, 869.0, 868.0, 868.0, 867.0, 868.0, 868.0, 869.0, 869.0, 869.0, 869.0, 868.0, 868.0, 869.0, 868.0, 868.0, 868.0, 868.0, 867.0, 866.0, 866.0, 866.0, 866.0, 866.0, 867.0, 868.0, 868.0, 869.0, 868.0, 868.0, 867.0, 867.0, 867.0, 868.0, 868.0, 869.0, 869.0, 869.0, 869.0, 869.0, 869.0, 869.0, 870.0, 869.0, 869.0, 869.0, 870.0, 869.0, 868.0, 867.0, 867.0, 867.0, 867.0, 867.0, 867.0, 866.0, 867.0, 869.0, 868.0, 867.0, 866.0, 867.0, 867.0, 867.0, 866.0, 866.0, 865.0, 866.0, 865.0, 866.0, 867.0, 868.0, 867.0, 867.0, 867.0, 868.0, 869.0, 870.0, 869.0, 869.0, 868.0, 868.0, 868.0, 867.0, 867.0, 868.0, 868.0, 868.0, 868.0, 868.0, 868.0, 867.0, 868.0, 869.0, 869.0, 868.0, 867.0, 867.0, 867.0, 868.0, 867.0, 867.0, 866.0, 866.0, 865.0, 864.0, 864.0, 866.0, 866.0, 868.0, 867.0, 865.0, 864.0, 865.0, 866.0, 869.0, 871.0, 870.0, 868.0, 867.0, 866.0, 867.0, 867.0, 867.0, 866.0, 866.0, 865.0, 865.0, 865.0, 866.0, 865.0, 865.0, 864.0],
      "WindowWidth": [1893.0, 1881.0, 1872.0, 1867.0, 1866.0, 1867.0, 1868.0, 1870.0, 1873.0, 1875.0, 1875.0, 1874.0, 1875.0, 1878.0, 1881.0, 1883.0, 1887.0, 1889.0, 1890.0, 1887.0, 1888.0, 1889.0, 1890.0, 1891.0, 1890.0, 1889.0, 1888.0, 1886.0, 1887.0, 1889.0, 1890.0, 1890.0, 1892.0, 1890.0, 1889.0, 1890.0, 1889.0, 1889.0, 1889.0, 1888.0, 1888.0, 1885.0, 1883.0, 1882.0, 1882.0, 1881.0, 1884.0, 1885.0, 1887.0, 1888.0, 1891.0, 1888.0, 1887.0, 1885.0, 1884.0, 1884.0, 1886.0, 1888.0, 1890.0, 1890.0, 1890.0, 1891.0, 1891.0, 1890.0, 1891.0, 1893.0, 1891.0, 1890.0, 1891.0, 1892.0, 1891.0, 1886.0, 1886.0, 1886.0, 1885.0, 1883.0, 1884.0, 1884.0, 1882.0, 1884.0, 1889.0, 1887.0, 1885.0, 1883.0, 1884.0, 1885.0, 1885.0, 1882.0, 1881.0, 1880.0, 1881.0, 1879.0, 1882.0, 1885.0, 1887.0, 1886.0, 1884.0, 1885.0, 1888.0, 1892.0, 1893.0, 1891.0, 1889.0, 1888.0, 1888.0, 1886.0, 1885.0, 1885.0, 1887.0, 1886.0, 1887.0, 1887.0, 1887.0, 1887.0, 1885.0, 1887.0, 1890.0, 1889.0, 1889.0, 1886.0, 1885.0, 1885.0, 1886.0, 1885.0, 1884.0, 1883.0, 1882.0, 1879.0, 1877.0, 1877.0, 1881.0, 1883.0, 1888.0, 1884.0, 1880.0, 1877.0, 1878.0, 1881.0, 1890.0, 1894.0, 1892.0, 1888.0, 1884.0, 1882.0, 1884.0, 1883.0, 1883.0, 1881.0, 1881.0, 1879.0, 1879.0, 1880.0, 1881.0, 1880.0, 1877.0, 1876.0]
    },
    "slices": {}
  }
}