{
  "AcquisitionMatrixPE": 100,
  "AcquisitionNumber": 1,
  "AcquisitionTime": "11:57:1.515000",
  "BandwidthPerPixelPhaseEncode": 18.519,
  "BaseResolution": 100,
  "BodyPartExamined": "BRAIN",
  "CoilCombinationMethod": "Sum of Squares",
  "ConsistencyInfo": "N4_VE11C_LATEST_20160120",
  "ConversionSoftware": "dcm2niix",
  "ConversionSoftwareVersion": "v1.0.20211006",
  "DerivedVendorReportedEchoSpacing": 0.000539986,
  "DeviceSerialNumber": "166078",
  "DwellTime": 2.1e-06,
  "EchoTime": 0.034,
  "EchoTrainLength": 100,
  "EffectiveEchoSpacing": 0.000539986,
  "FlipAngle": 90,
  "ImageOrientationPatientDICOM": [0.999194, 0.00710676, 0.0394975, -2.98692e-08, 0.984196, -0.177085],
  "ImageOrientationText": "Tra>Cor(-10.2)>Sag(2.3)",
  "ImageType": [
    "ORIGINAL",
    "PRIMARY",
    "M",
    "ND",
    "MOSAIC"
],
  "ImagingFrequency": 123.258,
  "InPlanePhaseEncodingDirectionDICOM": "COL",
  "InstitutionAddress": "Street StreetNo,Bei Jing,District,CN,ZIP",
  "InstitutionName": "BeiJing Normal University",
  "InstitutionalDepartmentName": "Department",
  "MRAcquisitionType": "2D",
  "MagneticFieldStrength": 3,
  "Manufacturer": "Siemens",
  "ManufacturersModelName": "Prisma",
  "Modality": "MR",
  "MultibandAccelerationFactor": 3,
  "PartialFourier": 1,
  "PatientPosition": "HFS",
  "PercentPhaseFOV": 100,
  "PercentSampling": 100,
  "PhaseEncodingDirection": "j-",
  "PhaseEncodingSteps": 100,
  "PhaseResolution": 1,
  "PixelBandwidth": 2380,
  "ProcedureStepDescription": "BNU_P2018_64CH^Zhen.ZongLei",
  "ProtocolName": "bold_100x100_s3_2x2x2_static_156",
  "PulseSequenceDetails": "%SiemensSeq%\\ep2d_bold",
  "ReceiveCoilActiveElements": "HC1-7;NC1",
  "ReceiveCoilName": "HeadNeck_64",
  "ReconMatrixPE": 100,
  "RefLinesPE": 32,
  "RepetitionTime": 2,
  "SAR": 0.0742036,
  "ScanOptions": "FS",
  "ScanningSequence": "EP",
  "SequenceName": "*epfid2d1_100",
  "SequenceVariant": "SK",
  "SeriesDescription": "bold_100x100_s3_2x2x2_static_156",
  "SeriesNumber": 13,
  "ShimSetting": [-5435, -11499, -1211, 492, 25, -200, -138, 21],
  "SliceThickness": 2,
  "SliceTiming": [1.485, 0, 0.99, 0.0825, 1.0725, 0.165, 1.155, 0.2475, 1.2375, 0.33, 1.32, 0.4125, 1.4025, 0.5775, 1.5675, 0.66, 1.65, 0.7425, 1.7325, 0.825, 1.815, 0.9075, 1.8975, 0.495, 1.485, 0, 0.99, 0.0825, 1.0725, 0.165, 1.155, 0.2475, 1.2375, 0.33, 1.32, 0.4125, 1.4025, 0.5775, 1.5675, 0.66, 1.65, 0.7425, 1.7325, 0.825, 1.815, 0.9075, 1.8975, 0.495, 1.485, 0, 0.99, 0.0825, 1.0725, 0.165, 1.155, 0.2475, 1.2375, 0.33, 1.32, 0.4125, 1.4025, 0.5775, 1.5675, 0.66, 1.65, 0.7425, 1.7325, 0.825, 1.815, 0.9075, 1.8975, 0.495],
  "SoftwareVersions": "syngo MR E11",
  "SpacingBetweenSlices": 2,
  "StationName": "AWP166078",
  "TaskName": "action",
  "TotalReadoutTime": 0.0534586,
  "TxRefAmp": 239.774,
  "dcmmeta_affine": [
    [-1.9983887672424316, -5.973833339112389e-08, 0.08026359230279922, 99.78195190429688],
    [-0.014213516376912594, 1.9683911800384521, -0.35388416051864624, -81.57473754882812],
    [0.07899506390094757, 0.35416948795318604, 1.9668054580688477, -79.05699920654297],
    [0.0, 0.0, 0.0, 1.0]
],
  "dcmmeta_reorient_transform": [
    [0.0, -1.0, 0.0, 99.0],
    [1.0, 0.0, 0.0, 0.0],
    [0.0, 0.0, 1.0, 0.0],
    [0.0, 0.0, 0.0, 1.0]
],
  "dcmmeta_shape": [100, 100, 72, 156],
  "dcmmeta_slice_dim": 2,
  "dcmmeta_version": 0.6,
  "global": {
    "const": {
      "AcquisitionMatrix": [100, 0, 0, 100],
      "AngioFlag": "N",
      "BitsAllocated": 16,
      "BitsStored": 12,
      "BodyPartExamined": "BRAIN",
      "Columns": 900,
      "EchoNumbers": 1,
      "EchoTime": 34.0,
      "EchoTrainLength": 100,
      "FlipAngle": 90.0,
      "HighBit": 11,
      "ImageOrientationPatient": [0.99919439493165, 0.00710675833587, 0.03949753312715, -2.9869168e-08, 0.98419560753296, -0.1770847427443],
      "ImagePositionPatient": [-899.13743569091, -906.33788169284, 66.075551338567],
      "ImageType": [
        "ORIGINAL",
        "PRIMARY",
        "M",
        "ND",
        "MOSAIC"
],
      "ImagedNucleus": "1H",
      "ImagingFrequency": 123.257707,
      "InPlanePhaseEncodingDirection": "COL",
      "MRAcquisitionType": "2D",
      "MagneticFieldStrength": 3.0,
      "Manufacturer": "SIEMENS",
      "ManufacturerModelName": "Prisma",
      "Modality": "MR",
      "NumberOfAverages": 1.0,
      "NumberOfPhaseEncodingSteps": 100,
      "PercentPhaseFieldOfView": 100.0,
      "PercentSampling": 100.0,
      "PerformedProcedureStepStartTime": "105552.209000",
      "PhotometricInterpretation": "MONOCHROME2",
      "PixelBandwidth": 2380.0,
      "PixelRepresentation": 0,
      "PixelSpacing": [2.0, 2.0],
      "ProtocolName": "bold_100x100_s3_2x2x2_static_156",
      "RepetitionTime": 2000.0,
      "Rows": 900,
      "SAR": 0.07420357964624,
      "SamplesPerPixel": 1,
      "ScanOptions": "FS",
      "ScanningSequence": "EP",
      "SequenceName": "*epfid2d1_100",
      "SequenceVariant": "SK",
      "SeriesDescription": "bold_100x100_s3_2x2x2_static_156",
      "SeriesNumber": 13,
      "SeriesTime": "115704.054000",
      "SliceLocation": -59.306432047849,
      "SliceThickness": 2.0,
      "SmallestImagePixelValue": 0,
      "SoftwareVersions": "syngo MR E11",
      "SpacingBetweenSlices": 2.000000001029,
      "SpecificCharacterSet": "ISO_IR 100",
      "StudyID": "1",
      "StudyTime": "105552.099000",
      "TransmitCoilName": "Body",
      "VariableFlipAngleFlag": "N",
      "WindowCenterWidthExplanation": "Algo1",
      "dBdt": 0.0},
    "slices": {}
  },
  "time": {
    "samples": {
      "AcquisitionNumber": [1, 2, 3, 4, 5, 6, 7, 8, 9, 10, 11, 12, 13, 14, 15, 16, 17, 18, 19, 20, 21, 22, 23, 24, 25, 26, 27, 28, 29, 30, 31, 32, 33, 34, 35, 36, 37, 38, 39, 40, 41, 42, 43, 44, 45, 46, 47, 48, 49, 50, 51, 52, 53, 54, 55, 56, 57, 58, 59, 60, 61, 62, 63, 64, 65, 66, 67, 68, 69, 70, 71, 72, 73, 74, 75, 76, 77, 78, 79, 80, 81, 82, 83, 84, 85, 86, 87, 88, 89, 90, 91, 92, 93, 94, 95, 96, 97, 98, 99, 100, 101, 102, 103, 104, 105, 106, 107, 108, 109, 110, 111, 112, 113, 114, 115, 116, 117, 118, 119, 120, 121, 122, 123, 124, 125, 126, 127, 128, 129, 130, 131, 132, 133, 134, 135, 136, 137, 138, 139, 140, 141, 142, 143, 144, 145, 146, 147, 148, 149, 150, 151, 152, 153, 154, 155, 156],
      "AcquisitionTime": ["115701.515000", "115703.515000", "115705.515000", "115707.515000", "115709.515000", "115711.515000", "115713.515000", "115715.515000", "115717.515000", "115719.515000", "115721.515000", "115723.515000", "115725.515000", "115727.515000", "115729.515000", "115731.515000", "115733.515000", "115735.515000", "115737.515000", "115739.515000", "115741.515000", "115743.515000", "115745.515000", "115747.515000", "115749.515000", "115751.515000", "115753.515000", "115755.515000", "115757.515000", "115759.515000", "115801.515000", "115803.515000", "115805.515000", "115807.515000", "115809.515000", "115811.515000", "115813.515000", "115815.515000", "115817.515000", "115819.515000", "115821.515000", "115823.515000", "115825.515000", "115827.515000", "115829.515000", "115831.515000", "115833.515000", "115835.515000", "115837.515000", "115839.515000", "115841.515000", "115843.515000", "115845.515000", "115847.515000", "115849.515000", "115851.515000", "115853.515000", "115855.515000", "115857.515000", "115859.515000", "115901.515000", "115903.515000", "115905.515000", "115907.515000", "115909.515000", "115911.515000", "115913.515000", "115915.515000", "115917.515000", "115919.515000", "115921.515000", "115923.515000", "115925.515000", "115927.515000", "115929.515000", "115931.515000", "115933.515000", "115935.515000", "115937.515000", "115939.515000", "115941.515000", "115943.515000", "115945.515000", "115947.515000", "115949.515000", "115951.515000", "115953.515000", "115955.515000", "115957.515000", "115959.515000", "120001.515000", "120003.515000", "120005.515000", "120007.515000", "120009.515000", "120011.515000", "120013.515000", "120015.515000", "120017.515000", "120019.515000", "120021.515000", "120023.515000", "120025.515000", "120027.515000", "120029.515000", "120031.515000", "120033.515000", "120035.515000", "120037.515000", "120039.515000", "120041.515000", "120043.515000", "120045.515000", "120047.515000", "120049.515000", "120051.515000", "120053.515000", "120055.515000", "120057.515000", "120059.515000", "120101.515000", "120103.515000", "120105.515000", "120107.515000", "120109.515000", "120111.515000", "120113.515000", "120115.515000", "120117.515000", "120119.515000", "120121.515000", "120123.515000", "120125.515000", "120127.515000", "120129.515000", "120131.515000", "120133.515000", "120135.515000", "120137.515000", "120139.515000", "120141.515000", "120143.515000", "120145.515000", "120147.515000", "120149.515000", "120151.515000", "120153.515000", "120155.515000", "120157.515000", "120159.515000", "120201.515000", "120203.515000", "120205.515000", "120207.515000", "120209.515000", "120211.515000"],
      "ContentTime": ["115704.058000", "115706.053000", "115707.554000", "115710.055000", "115712.054000", "115713.555000", "115715.554000", "115717.553000", "115720.054000", "115721.553000", "115724.053000", "115725.553000", "115727.555000", "115729.554000", "115732.055000", "115733.554000", "115736.054000", "115738.053000", "115739.554000", "115741.554000", "115743.554000", "115745.555000", "115747.554000", "115749.554000", "115752.054000", "115754.054000", "115756.054000", "115757.554000", "115800.053000", "115801.553000", "115803.554000", "115805.554000", "115807.555000", "115809.555000", "115812.053000", "115814.054000", "115816.054000", "115818.053000", "115819.553000", "115821.554000", "115824.054000", "115826.054000", "115828.053000", "115830.053000", "115831.554000", "115833.554000", "115835.553000", "115837.554000", "115839.555000", "115841.554000", "115843.554000", "115845.553000", "115848.053000", "115849.554000", "115851.553000", "115853.553000", "115855.554000", "115857.554000", "115859.554000", "115901.554000", "115904.054000", "115906.053000", "115907.554000", "115909.553000", "115911.554000", "115914.055000", "115915.554000", "115918.054000", "115920.054000", "115922.053000", "115924.053000", "115925.553000", "115928.053000", "115929.553000", "115931.554000", "115933.554000", "115936.054000", "115937.554000", "115940.053000", "115942.053000", "115943.554000", "115945.553000", "115948.054000", "115950.055000", "115952.054000", "115953.554000", "115955.554000", "115957.554000", "115959.553000", "120002.054000", "120003.554000", "120006.055000", "120008.054000", "120010.054000", "120011.554000", "120014.053000", "120015.553000", "120017.554000", "120019.553000", "120021.553000", "120024.055000", "120025.554000", "120027.554000", "120030.054000", "120031.553000", "120034.054000", "120036.054000", "120038.054000", "120040.054000", "120041.554000", "120043.555000", "120045.555000", "120048.053000", "120050.053000", "120052.054000", "120054.054000", "120056.054000", "120058.055000", "120100.054000", "120102.055000", "120104.055000", "120105.554000", "120107.554000", "120110.053000", "120112.054000", "120114.054000", "120115.555000", "120118.055000", "120119.554000", "120121.554000", "120124.053000", "120126.053000", "120127.554000", "120129.553000", "120132.054000", "120134.055000", "120135.555000", "120137.555000", "120139.555000", "120142.054000", "120143.554000", "120145.554000", "120147.554000", "120149.555000", "120152.054000", "120153.555000", "120156.055000", "120157.554000", "120159.553000", "120202.054000", "120203.554000", "120205.553000", "120207.554000", "120209.554000", "120211.555000", "120213.512000"],
      "InstanceCreationTime": ["115704.058000", "115706.053000", "115707.554000", "115710.055000", "115712.054000", "115713.555000", "115715.554000", "115717.553000", "115720.054000", "115721.553000", "115724.053000", "115725.553000", "115727.555000", "115729.554000", "115732.055000", "115733.554000", "115736.054000", "115738.053000", "115739.554000", "115741.554000", "115743.554000", "115745.555000", "115747.554000", "115749.554000", "115752.054000", "115754.054000", "115756.054000", "115757.554000", "115800.053000", "115801.553000", "115803.554000", "115805.554000", "115807.555000", "115809.555000", "115812.053000", "115814.054000", "115816.054000", "115818.053000", "115819.553000", "115821.554000", "115824.054000", "115826.054000", "115828.053000", "115830.053000", "115831.554000", "115833.554000", "115835.553000", "115837.554000", "115839.555000", "115841.554000", "115843.554000", "115845.553000", "115848.053000", "115849.554000", "115851.553000", "115853.553000", "115855.554000", "115857.554000", "115859.554000", "115901.554000", "115904.054000", "115906.053000", "115907.554000", "115909.553000", "115911.554000", "115914.055000", "115915.554000", "115918.054000", "115920.054000", "115922.053000", "115924.053000", "115925.553000", "115928.053000", "115929.553000", "115931.554000", "115933.554000", "115936.054000", "115937.554000", "115940.053000", "115942.053000", "115943.554000", "115945.553000", "115948.054000", "115950.055000", "115952.054000", "115953.554000", "115955.554000", "115957.554000", "115959.553000", "120002.054000", "120003.554000", "120006.055000", "120008.054000", "120010.054000", "120011.554000", "120014.053000", "120015.553000", "120017.554000", "120019.553000", "120021.553000", "120024.055000", "120025.554000", "120027.554000", "120030.054000", "120031.553000", "120034.054000", "120036.054000", "120038.054000", "120040.054000", "120041.554000", "120043.555000", "120045.555000", "120048.053000", "120050.053000", "120052.054000", "120054.054000", "120056.054000", "120058.055000", "120100.054000", "120102.055000", "120104.055000", "120105.554000", "120107.554000", "120110.053000", "120112.054000", "120114.054000", "120115.555000", "120118.055000", "120119.554000", "120121.554000", "120124.053000", "120126.053000", "120127.554000", "120129.553000", "120132.054000", "120134.055000", "120135.555000", "120137.555000", "120139.555000", "120142.054000", "120143.554000", "120145.554000", "120147.554000", "120149.555000", "120152.054000", "120153.555000", "120156.055000", "120157.554000", "120159.553000", "120202.054000", "120203.554000", "120205.553000", "120207.554000", "120209.554000", "120211.555000", "120213.512000"],
      "InstanceNumber": [1, 2, 3, 4, 5, 6, 7, 8, 9, 10, 11, 12, 13, 14, 15, 16, 17, 18, 19, 20, 21, 22, 23, 24, 25, 26, 27, 28, 29, 30, 31, 32, 33, 34, 35, 36, 37, 38, 39, 40, 41, 42, 43, 44, 45, 46, 47, 48, 49, 50, 51, 52, 53, 54, 55, 56, 57, 58, 59, 60, 61, 62, 63, 64, 65, 66, 67, 68, 69, 70, 71, 72, 73, 74, 75, 76, 77, 78, 79, 80, 81, 82, 83, 84, 85, 86, 87, 88, 89, 90, 91, 92, 93, 94, 95, 96, 97, 98, 99, 100, 101, 102, 103, 104, 105, 106, 107, 108, 109, 110, 111, 112, 113, 114, 115, 116, 117, 118, 119, 120, 121, 122, 123, 124, 125, 126, 127, 128, 129, 130, 131, 132, 133, 134, 135, 136, 137, 138, 139, 140, 141, 142, 143, 144, 145, 146, 147, 148, 149, 150, 151, 152, 153, 154, 155, 156],
      "LargestImagePixelValue": [3954, 3866, 3872, 3846, 3862, 3842, 3857, 3860, 3872, 3854, 3866, 3887, 3865, 3844, 3872, 3885, 3881, 3893, 3915, 3868, 3833, 3873, 3837, 3861, 3836, 3837, 3872, 3832, 3898, 3881, 3852, 3857, 3820, 3836, 3864, 3831, 3800, 3855, 3819, 3827, 3798, 3851, 3833, 3844, 3861, 3879, 3831, 3856, 3867, 3861, 3866, 3863, 3846, 3846, 3845, 3849, 3849, 3856, 3866, 3855, 3849, 3864, 3889, 3871, 3828, 3898, 3890, 3864, 3808, 3873, 3856, 3835, 3818, 3821, 3849, 3854, 3873, 3870, 3848, 3826, 3856, 3864, 3840, 3825, 3835, 3846, 3847, 3822, 3839, 3887, 3859, 3875, 3806, 3832, 3860, 3850, 3840, 3805, 3812, 3832, 3800, 3808, 3818, 3860, 3890, 3844, 3842, 3848, 3804, 3825, 3798, 3812, 3826, 3823, 3834, 3852, 3831, 3843, 3817, 3839, 3847, 3849, 3819, 3821, 3875, 3885, 3852, 3839, 3831, 3847, 3819, 3845, 3830, 3816, 3868, 3826, 3818, 3851, 3832, 3829, 3812, 3824, 3825, 3843, 3858, 3819, 3842, 3798, 3825, 3863, 3813, 3860, 3860, 3827, 3844, 3901],
      "WindowCenter": [877.0, 873.0, 873.0, 873.0, 873.0, 873.0, 874.0, 874.0, 874.0, 875.0, 875.0, 875.0, 875.0, 874.0, 875.0, 875.0, 875.0, 875.0, 875.0, 875.0, 876.0, 877.0, 878.0, 877.0, 877.0, 877.0, 878.0, 878.0, 878.0, 878.0, 878.0, 879.0, 880.0, 879.0, 878.0, 876.0, 875.0, 875.0, 874.0, 874.0, 875.0, 876.0, 875.0, 876.0, 876.0, 876.0, 875.0, 875.0, 874.0, 874.0, 874.0, 874.0, 875.0, 876.0, 876.0, 876.0, 876.0, 876.0, 876.0, 876.0, 876.0, 876.0, 877.0, 878.0, 879.0, 878.0, 877.0, 876.0, 875.0, 874.0, 874.0, 874.0, 873.0, 873.0, 873.0, 873.0, 873.0, 873.0, 873.0, 874.0, 875.0, 876.0, 875.0, 874.0, 873.0, 872.0, 872.0, 872.0, 872.0, 873.0, 874.0, 876.0, 877.0, 877.0, 876.0, 876.0, 876.0, 876.0, 877.0, 878.0, 878.0, 879.0, 879.0, 879.0, 879.0, 878.0, 877.0, 877.0, 877.0, 877.0, 876.0, 876.0, 875.0, 875.0, 874.0, 874.0, 875.0, 875.0, 875.0, 876.0, 876.0, 876.0, 876.0, 877.0, 878.0, 878.0, 878.0, 878.0, 878.0, 878.0, 878.0, 878.0, 878.0, 877.0, 877.0, 877.0, 877.0, 877.0, 877.0, 877.0, 878.0, 877.0, 875.0, 875.0, 875.0, 874.0, 875.0, 875.0, 876.0, 876.0, 876.0, 877.0, 877.0, 877.0, 877.0, 876.0],
      "WindowWidth": [1910.0, 1900.0, 1899.0, 1900.0, 1899.0, 1899.0, 1902.0, 1902.0, 1903.0, 1903.0, 1904.0, 1904.0, 1903.0, 1902.0, 1904.0, 1904.0, 1905.0, 1904.0, 1904.0, 1904.0, 1908.0, 1911.0, 1911.0, 1911.0, 1911.0, 1910.0, 1914.0, 1913.0, 1914.0, 1914.0, 1913.0, 1917.0, 1918.0, 1914.0, 1912.0, 1908.0, 1904.0, 1904.0, 1902.0, 1902.0, 1903.0, 1906.0, 1906.0, 1906.0, 1908.0, 1907.0, 1905.0, 1904.0, 1902.0, 1902.0, 1902.0, 1903.0, 1905.0, 1909.0, 1909.0, 1908.0, 1908.0, 1907.0, 1907.0, 1907.0, 1906.0, 1908.0, 1909.0, 1913.0, 1915.0, 1914.0, 1910.0, 1907.0, 1904.0, 1903.0, 1903.0, 1902.0, 1899.0, 1897.0, 1898.0, 1898.0, 1898.0, 1898.0, 1899.0, 1902.0, 1905.0, 1907.0, 1905.0, 1901.0, 1899.0, 1897.0, 1897.0, 1897.0, 1898.0, 1900.0, 1903.0, 1907.0, 1909.0, 1909.0, 1908.0, 1907.0, 1908.0, 1908.0, 1910.0, 1912.0, 1914.0, 1915.0, 1915.0, 1915.0, 1915.0, 1912.0, 1911.0, 1910.0, 1910.0, 1910.0, 1908.0, 1906.0, 1905.0, 1903.0, 1902.0, 1903.0, 1905.0, 1906.0, 1905.0, 1906.0, 1906.0, 1907.0, 1907.0, 1909.0, 1913.0, 1914.0, 1912.0, 1912.0, 1912.0, 1912.0, 1912.0, 1913.0, 1913.0, 1910.0, 1910.0, 1909.0, 1911.0, 1911.0, 1910.0, 1910.0, 1912.0, 1909.0, 1905.0, 1904.0, 1904.0, 1903.0, 1904.0, 1904.0, 1907.0, 1909.0, 1907.0, 1910.0, 1910.0, 1910.0, 1909.0, 1908.0]
    },
    "slices": {}
  }
}