{
  "AcquisitionMatrixPE": 100,
  "AcquisitionNumber": 1,
  "AcquisitionTime": "11:51:12.290000",
  "BandwidthPerPixelPhaseEncode": 18.519,
  "BaseResolution": 100,
  "BodyPartExamined": "BRAIN",
  "CoilCombinationMethod": "Sum of Squares",
  "ConsistencyInfo": "N4_VE11C_LATEST_20160120",
  "ConversionSoftware": "dcm2niix",
  "ConversionSoftwareVersion": "v1.0.20211006",
  "DerivedVendorReportedEchoSpacing": 0.000539986,
  "DeviceSerialNumber": "166078",
  "DwellTime": 2.1e-06,
  "EchoTime": 0.034,
  "EchoTrainLength": 100,
  "EffectiveEchoSpacing": 0.000539986,
  "FlipAngle": 90,
  "ImageOrientationPatientDICOM": [0.999194, 0.00710676, 0.0394975, -2.98692e-08, 0.984196, -0.177085],
  "ImageOrientationText": "Tra>Cor(-10.2)>Sag(2.3)",
  "ImageType": [
    "ORIGINAL",
    "PRIMARY",
    "M",
    "ND",
    "MOSAIC"
],
  "ImagingFrequency": 123.258,
  "InPlanePhaseEncodingDirectionDICOM": "COL",
  "InstitutionAddress": "Street StreetNo,Bei Jing,District,CN,ZIP",
  "InstitutionName": "BeiJing Normal University",
  "InstitutionalDepartmentName": "Department",
  "MRAcquisitionType": "2D",
  "MagneticFieldStrength": 3,
  "Manufacturer": "Siemens",
  "ManufacturersModelName": "Prisma",
  "Modality": "MR",
  "MultibandAccelerationFactor": 3,
  "PartialFourier": 1,
  "PatientPosition": "HFS",
  "PercentPhaseFOV": 100,
  "PercentSampling": 100,
  "PhaseEncodingDirection": "j-",
  "PhaseEncodingSteps": 100,
  "PhaseResolution": 1,
  "PixelBandwidth": 2380,
  "ProcedureStepDescription": "BNU_P2018_64CH^Zhen.ZongLei",
  "ProtocolName": "bold_100x100_s3_2x2x2_static_156",
  "PulseSequenceDetails": "%SiemensSeq%\\ep2d_bold",
  "ReceiveCoilActiveElements": "HC1-7;NC1",
  "ReceiveCoilName": "HeadNeck_64",
  "ReconMatrixPE": 100,
  "RefLinesPE": 32,
  "RepetitionTime": 2,
  "SAR": 0.0742036,
  "ScanOptions": "FS",
  "ScanningSequence": "EP",
  "SequenceName": "*epfid2d1_100",
  "SequenceVariant": "SK",
  "SeriesDescription": "bold_100x100_s3_2x2x2_static_156",
  "SeriesNumber": 12,
  "ShimSetting": [-5435, -11499, -1211, 492, 25, -200, -138, 21],
  "SliceThickness": 2,
  "SliceTiming": [1.485, 0, 0.99, 0.0825, 1.0725, 0.165, 1.155, 0.2475, 1.2375, 0.33, 1.32, 0.4125, 1.4025, 0.5775, 1.5675, 0.66, 1.65, 0.7425, 1.7325, 0.825, 1.815, 0.9075, 1.8975, 0.495, 1.485, 0, 0.99, 0.0825, 1.0725, 0.165, 1.155, 0.2475, 1.2375, 0.33, 1.32, 0.4125, 1.4025, 0.5775, 1.5675, 0.66, 1.65, 0.7425, 1.7325, 0.825, 1.815, 0.9075, 1.8975, 0.495, 1.485, 0, 0.99, 0.0825, 1.0725, 0.165, 1.155, 0.2475, 1.2375, 0.33, 1.32, 0.4125, 1.4025, 0.5775, 1.5675, 0.66, 1.65, 0.7425, 1.7325, 0.825, 1.815, 0.9075, 1.8975, 0.495],
  "SoftwareVersions": "syngo MR E11",
  "SpacingBetweenSlices": 2,
  "StationName": "AWP166078",
  "TaskName": "action",
  "TotalReadoutTime": 0.0534586,
  "TxRefAmp": 239.774,
  "dcmmeta_affine": [
    [-1.9983887672424316, -5.973833339112389e-08, 0.08026359230279922, 99.78195190429688],
    [-0.014213516376912594, 1.9683911800384521, -0.35388416051864624, -81.57473754882812],
    [0.07899506390094757, 0.35416948795318604, 1.9668054580688477, -79.05699920654297],
    [0.0, 0.0, 0.0, 1.0]
],
  "dcmmeta_reorient_transform": [
    [0.0, -1.0, 0.0, 99.0],
    [1.0, 0.0, 0.0, 0.0],
    [0.0, 0.0, 1.0, 0.0],
    [0.0, 0.0, 0.0, 1.0]
],
  "dcmmeta_shape": [100, 100, 72, 156],
  "dcmmeta_slice_dim": 2,
  "dcmmeta_version": 0.6,
  "global": {
    "const": {
      "AcquisitionMatrix": [100, 0, 0, 100],
      "AngioFlag": "N",
      "BitsAllocated": 16,
      "BitsStored": 12,
      "BodyPartExamined": "BRAIN",
      "Columns": 900,
      "EchoNumbers": 1,
      "EchoTime": 34.0,
      "EchoTrainLength": 100,
      "FlipAngle": 90.0,
      "HighBit": 11,
      "ImageOrientationPatient": [0.99919439493165, 0.00710675833587, 0.03949753312715, -2.9869168e-08, 0.98419560753296, -0.1770847427443],
      "ImagePositionPatient": [-899.13743569091, -906.33788169284, 66.075551338567],
      "ImageType": [
        "ORIGINAL",
        "PRIMARY",
        "M",
        "ND",
        "MOSAIC"
],
      "ImagedNucleus": "1H",
      "ImagingFrequency": 123.257705,
      "InPlanePhaseEncodingDirection": "COL",
      "MRAcquisitionType": "2D",
      "MagneticFieldStrength": 3.0,
      "Manufacturer": "SIEMENS",
      "ManufacturerModelName": "Prisma",
      "Modality": "MR",
      "NumberOfAverages": 1.0,
      "NumberOfPhaseEncodingSteps": 100,
      "PercentPhaseFieldOfView": 100.0,
      "PercentSampling": 100.0,
      "PerformedProcedureStepStartTime": "105552.209000",
      "PhotometricInterpretation": "MONOCHROME2",
      "PixelBandwidth": 2380.0,
      "PixelRepresentation": 0,
      "PixelSpacing": [2.0, 2.0],
      "ProtocolName": "bold_100x100_s3_2x2x2_static_156",
      "RepetitionTime": 2000.0,
      "Rows": 900,
      "SAR": 0.07420357964624,
      "SamplesPerPixel": 1,
      "ScanOptions": "FS",
      "ScanningSequence": "EP",
      "SequenceName": "*epfid2d1_100",
      "SequenceVariant": "SK",
      "SeriesDescription": "bold_100x100_s3_2x2x2_static_156",
      "SeriesNumber": 12,
      "SeriesTime": "115114.440000",
      "SliceLocation": -59.306432047849,
      "SliceThickness": 2.0,
      "SmallestImagePixelValue": 0,
      "SoftwareVersions": "syngo MR E11",
      "SpacingBetweenSlices": 2.000000001029,
      "SpecificCharacterSet": "ISO_IR 100",
      "StudyID": "1",
      "StudyTime": "105552.099000",
      "TransmitCoilName": "Body",
      "VariableFlipAngleFlag": "N",
      "WindowCenterWidthExplanation": "Algo1",
      "dBdt": 0.0},
    "slices": {}
  },
  "time": {
    "samples": {
      "AcquisitionNumber": [1, 2, 3, 4, 5, 6, 7, 8, 9, 10, 11, 12, 13, 14, 15, 16, 17, 18, 19, 20, 21, 22, 23, 24, 25, 26, 27, 28, 29, 30, 31, 32, 33, 34, 35, 36, 37, 38, 39, 40, 41, 42, 43, 44, 45, 46, 47, 48, 49, 50, 51, 52, 53, 54, 55, 56, 57, 58, 59, 60, 61, 62, 63, 64, 65, 66, 67, 68, 69, 70, 71, 72, 73, 74, 75, 76, 77, 78, 79, 80, 81, 82, 83, 84, 85, 86, 87, 88, 89, 90, 91, 92, 93, 94, 95, 96, 97, 98, 99, 100, 101, 102, 103, 104, 105, 106, 107, 108, 109, 110, 111, 112, 113, 114, 115, 116, 117, 118, 119, 120, 121, 122, 123, 124, 125, 126, 127, 128, 129, 130, 131, 132, 133, 134, 135, 136, 137, 138, 139, 140, 141, 142, 143, 144, 145, 146, 147, 148, 149, 150, 151, 152, 153, 154, 155, 156],
      "AcquisitionTime": ["115112.290000", "115114.290000", "115116.290000", "115118.290000", "115120.290000", "115122.290000", "115124.290000", "115126.290000", "115128.290000", "115130.290000", "115132.290000", "115134.290000", "115136.290000", "115138.290000", "115140.290000", "115142.290000", "115144.290000", "115146.290000", "115148.290000", "115150.290000", "115152.290000", "115154.290000", "115156.290000", "115158.290000", "115200.290000", "115202.290000", "115204.290000", "115206.290000", "115208.290000", "115210.290000", "115212.290000", "115214.290000", "115216.290000", "115218.290000", "115220.290000", "115222.290000", "115224.290000", "115226.290000", "115228.290000", "115230.290000", "115232.290000", "115234.290000", "115236.290000", "115238.290000", "115240.290000", "115242.290000", "115244.290000", "115246.290000", "115248.290000", "115250.290000", "115252.290000", "115254.290000", "115256.290000", "115258.290000", "115300.290000", "115302.290000", "115304.290000", "115306.290000", "115308.290000", "115310.290000", "115312.290000", "115314.290000", "115316.290000", "115318.290000", "115320.290000", "115322.290000", "115324.290000", "115326.290000", "115328.290000", "115330.290000", "115332.290000", "115334.290000", "115336.290000", "115338.290000", "115340.290000", "115342.290000", "115344.290000", "115346.290000", "115348.290000", "115350.290000", "115352.290000", "115354.290000", "115356.290000", "115358.290000", "115400.290000", "115402.290000", "115404.290000", "115406.290000", "115408.290000", "115410.290000", "115412.290000", "115414.290000", "115416.290000", "115418.290000", "115420.290000", "115422.290000", "115424.290000", "115426.290000", "115428.290000", "115430.290000", "115432.290000", "115434.290000", "115436.290000", "115438.290000", "115440.290000", "115442.290000", "115444.290000", "115446.290000", "115448.290000", "115450.290000", "115452.290000", "115454.290000", "115456.290000", "115458.290000", "115500.290000", "115502.290000", "115504.290000", "115506.290000", "115508.290000", "115510.290000", "115512.290000", "115514.290000", "115516.290000", "115518.290000", "115520.290000", "115522.290000", "115524.290000", "115526.290000", "115528.290000", "115530.290000", "115532.290000", "115534.290000", "115536.290000", "115538.290000", "115540.290000", "115542.290000", "115544.290000", "115546.290000", "115548.290000", "115550.290000", "115552.290000", "115554.290000", "115556.290000", "115558.290000", "115600.290000", "115602.290000", "115604.290000", "115606.290000", "115608.290000", "115610.290000", "115612.290000", "115614.290000", "115616.290000", "115618.290000", "115620.290000", "115622.290000"],
      "ContentTime": ["115114.444000", "115115.940000", "115117.940000", "115119.940000", "115121.940000", "115123.941000", "115125.940000", "115127.940000", "115129.940000", "115131.939000", "115133.939000", "115135.940000", "115137.941000", "115139.941000", "115141.941000", "115143.941000", "115145.940000", "115147.940000", "115149.939000", "115151.939000", "115153.940000", "115155.940000", "115157.941000", "115159.940000", "115201.941000", "115203.939000", "115205.940000", "115207.939000", "115209.939000", "115211.939000", "115213.941000", "115215.940000", "115217.941000", "115219.940000", "115221.940000", "115223.940000", "115225.940000", "115227.939000", "115229.940000", "115231.940000", "115233.940000", "115235.940000", "115237.941000", "115239.940000", "115241.939000", "115243.940000", "115245.939000", "115247.941000", "115249.941000", "115251.941000", "115253.940000", "115255.941000", "115257.939000", "115259.939000", "115301.939000", "115303.940000", "115305.941000", "115307.940000", "115309.940000", "115311.941000", "115313.940000", "115315.940000", "115317.940000", "115319.940000", "115321.939000", "115323.940000", "115325.941000", "115327.941000", "115329.940000", "115331.939000", "115333.940000", "115335.939000", "115337.940000", "115339.940000", "115341.940000", "115343.940000", "115345.941000", "115347.941000", "115349.940000", "115351.939000", "115353.939000", "115355.939000", "115357.941000", "115359.940000", "115401.940000", "115403.940000", "115405.940000", "115407.939000", "115409.940000", "115411.940000", "115413.939000", "115415.940000", "115417.941000", "115419.940000", "115421.940000", "115423.939000", "115425.940000", "115427.939000", "115429.940000", "115431.940000", "115433.940000", "115435.941000", "115437.940000", "115439.941000", "115441.939000", "115443.939000", "115445.939000", "115447.939000", "115449.940000", "115451.941000", "115453.941000", "115455.941000", "115457.941000", "115459.940000", "115501.939000", "115503.940000", "115505.939000", "115507.940000", "115509.941000", "115511.941000", "115513.941000", "115515.940000", "115517.939000", "115519.940000", "115521.939000", "115523.940000", "115525.941000", "115527.940000", "115529.940000", "115531.940000", "115533.939000", "115535.939000", "115537.939000", "115539.940000", "115541.940000", "115543.941000", "115545.941000", "115547.940000", "115549.940000", "115551.939000", "115553.940000", "115555.940000", "115557.940000", "115559.941000", "115601.940000", "115603.941000", "115605.940000", "115607.940000", "115609.940000", "115611.939000", "115613.939000", "115615.940000", "115617.941000", "115619.941000", "115621.941000", "115623.787000"],
      "InstanceCreationTime": ["115114.444000", "115115.940000", "115117.940000", "115119.940000", "115121.940000", "115123.941000", "115125.940000", "115127.940000", "115129.940000", "115131.939000", "115133.939000", "115135.940000", "115137.941000", "115139.941000", "115141.941000", "115143.941000", "115145.940000", "115147.940000", "115149.939000", "115151.939000", "115153.940000", "115155.940000", "115157.941000", "115159.940000", "115201.941000", "115203.939000", "115205.940000", "115207.939000", "115209.939000", "115211.939000", "115213.941000", "115215.940000", "115217.941000", "115219.940000", "115221.940000", "115223.940000", "115225.940000", "115227.939000", "115229.940000", "115231.940000", "115233.940000", "115235.940000", "115237.941000", "115239.940000", "115241.939000", "115243.940000", "115245.939000", "115247.941000", "115249.941000", "115251.941000", "115253.940000", "115255.941000", "115257.939000", "115259.939000", "115301.939000", "115303.940000", "115305.941000", "115307.940000", "115309.940000", "115311.941000", "115313.940000", "115315.940000", "115317.940000", "115319.940000", "115321.939000", "115323.940000", "115325.941000", "115327.941000", "115329.940000", "115331.939000", "115333.940000", "115335.939000", "115337.940000", "115339.940000", "115341.940000", "115343.940000", "115345.941000", "115347.941000", "115349.940000", "115351.939000", "115353.939000", "115355.939000", "115357.941000", "115359.940000", "115401.940000", "115403.940000", "115405.940000", "115407.939000", "115409.940000", "115411.940000", "115413.939000", "115415.940000", "115417.941000", "115419.940000", "115421.940000", "115423.939000", "115425.940000", "115427.939000", "115429.940000", "115431.940000", "115433.940000", "115435.941000", "115437.940000", "115439.941000", "115441.939000", "115443.939000", "115445.939000", "115447.939000", "115449.940000", "115451.941000", "115453.941000", "115455.941000", "115457.941000", "115459.940000", "115501.939000", "115503.940000", "115505.939000", "115507.940000", "115509.941000", "115511.941000", "115513.941000", "115515.940000", "115517.939000", "115519.940000", "115521.939000", "115523.940000", "115525.941000", "115527.940000", "115529.940000", "115531.940000", "115533.939000", "115535.939000", "115537.939000", "115539.940000", "115541.940000", "115543.941000", "115545.941000", "115547.940000", "115549.940000", "115551.939000", "115553.940000", "115555.940000", "115557.940000", "115559.941000", "115601.940000", "115603.941000", "115605.940000", "115607.940000", "115609.940000", "115611.939000", "115613.939000", "115615.940000", "115617.941000", "115619.941000", "115621.941000", "115623.787000"],
      "InstanceNumber": [1, 2, 3, 4, 5, 6, 7, 8, 9, 10, 11, 12, 13, 14, 15, 16, 17, 18, 19, 20, 21, 22, 23, 24, 25, 26, 27, 28, 29, 30, 31, 32, 33, 34, 35, 36, 37, 38, 39, 40, 41, 42, 43, 44, 45, 46, 47, 48, 49, 50, 51, 52, 53, 54, 55, 56, 57, 58, 59, 60, 61, 62, 63, 64, 65, 66, 67, 68, 69, 70, 71, 72, 73, 74, 75, 76, 77, 78, 79, 80, 81, 82, 83, 84, 85, 86, 87, 88, 89, 90, 91, 92, 93, 94, 95, 96, 97, 98, 99, 100, 101, 102, 103, 104, 105, 106, 107, 108, 109, 110, 111, 112, 113, 114, 115, 116, 117, 118, 119, 120, 121, 122, 123, 124, 125, 126, 127, 128, 129, 130, 131, 132, 133, 134, 135, 136, 137, 138, 139, 140, 141, 142, 143, 144, 145, 146, 147, 148, 149, 150, 151, 152, 153, 154, 155, 156],
      "LargestImagePixelValue": [3902, 3917, 3878, 3913, 3914, 3861, 3843, 3842, 3841, 3819, 3842, 3860, 3844, 3870, 3865, 3911, 3888, 3869, 3904, 3925, 3867, 3832, 3830, 3844, 3810, 3838, 3845, 3851, 3818, 3836, 3840, 3820, 3821, 3814, 3821, 3880, 3842, 3856, 3799, 3813, 3815, 3846, 3798, 3812, 3819, 3859, 3820, 3824, 3824, 3826, 3848, 3825, 3822, 3819, 3843, 3837, 3869, 3842, 3858, 3820, 3850, 3824, 3794, 3808, 3804, 3830, 3813, 3834, 3849, 3813, 3812, 3841, 3834, 3864, 3820, 3850, 3822, 3866, 3852, 3816, 3807, 3777, 3771, 3780, 3793, 3767, 3816, 3801, 3821, 3787, 3793, 3811, 3800, 3803, 3829, 3882, 3852, 3832, 3810, 3827, 3874, 3864, 3821, 3822, 3829, 3802, 3796, 3826, 3865, 3817, 3826, 3811, 3833, 3856, 3820, 3825, 3822, 3838, 3828, 3810, 3816, 3795, 3796, 3829, 3812, 3846, 3871, 3875, 3853, 3811, 3849, 3856, 3854, 3808, 3819, 3835, 3834, 3839, 3833, 3841, 3809, 3827, 3834, 3846, 3833, 3845, 3835, 3807, 3806, 3837, 3844, 3843, 3854, 3869, 3864, 3845],
      "WindowCenter": [875.0, 874.0, 873.0, 872.0, 870.0, 869.0, 869.0, 871.0, 872.0, 873.0, 871.0, 871.0, 870.0, 870.0, 871.0, 872.0, 872.0, 872.0, 872.0, 872.0, 873.0, 872.0, 872.0, 873.0, 874.0, 875.0, 875.0, 876.0, 877.0, 878.0, 877.0, 876.0, 877.0, 876.0, 876.0, 875.0, 875.0, 875.0, 875.0, 876.0, 875.0, 875.0, 876.0, 876.0, 876.0, 875.0, 874.0, 873.0, 872.0, 872.0, 873.0, 874.0, 874.0, 874.0, 875.0, 875.0, 875.0, 875.0, 875.0, 875.0, 875.0, 874.0, 874.0, 874.0, 875.0, 876.0, 875.0, 876.0, 876.0, 876.0, 876.0, 876.0, 875.0, 876.0, 876.0, 876.0, 875.0, 875.0, 875.0, 874.0, 875.0, 876.0, 876.0, 876.0, 875.0, 874.0, 875.0, 875.0, 875.0, 874.0, 875.0, 876.0, 876.0, 875.0, 874.0, 874.0, 874.0, 874.0, 873.0, 874.0, 875.0, 875.0, 875.0, 876.0, 877.0, 877.0, 877.0, 877.0, 877.0, 877.0, 876.0, 876.0, 877.0, 876.0, 876.0, 875.0, 875.0, 875.0, 875.0, 876.0, 876.0, 876.0, 876.0, 876.0, 875.0, 875.0, 874.0, 874.0, 876.0, 875.0, 875.0, 875.0, 876.0, 876.0, 876.0, 876.0, 876.0, 876.0, 876.0, 876.0, 877.0, 877.0, 877.0, 877.0, 876.0, 875.0, 876.0, 876.0, 876.0, 876.0, 876.0, 875.0, 875.0, 875.0, 875.0, 875.0],
      "WindowWidth": [1905.0, 1902.0, 1900.0, 1896.0, 1891.0, 1888.0, 1889.0, 1893.0, 1898.0, 1898.0, 1895.0, 1893.0, 1892.0, 1892.0, 1894.0, 1897.0, 1898.0, 1897.0, 1897.0, 1897.0, 1898.0, 1897.0, 1898.0, 1900.0, 1903.0, 1905.0, 1905.0, 1908.0, 1911.0, 1913.0, 1910.0, 1909.0, 1909.0, 1909.0, 1907.0, 1906.0, 1904.0, 1906.0, 1906.0, 1906.0, 1906.0, 1906.0, 1907.0, 1907.0, 1907.0, 1905.0, 1903.0, 1900.0, 1898.0, 1897.0, 1899.0, 1901.0, 1903.0, 1903.0, 1904.0, 1905.0, 1906.0, 1905.0, 1905.0, 1905.0, 1905.0, 1903.0, 1902.0, 1902.0, 1904.0, 1907.0, 1906.0, 1907.0, 1908.0, 1909.0, 1908.0, 1907.0, 1906.0, 1906.0, 1907.0, 1907.0, 1905.0, 1905.0, 1904.0, 1902.0, 1904.0, 1907.0, 1906.0, 1906.0, 1905.0, 1902.0, 1904.0, 1905.0, 1904.0, 1902.0, 1904.0, 1906.0, 1907.0, 1903.0, 1901.0, 1901.0, 1901.0, 1900.0, 1900.0, 1901.0, 1904.0, 1905.0, 1904.0, 1906.0, 1911.0, 1911.0, 1910.0, 1909.0, 1911.0, 1909.0, 1908.0, 1908.0, 1909.0, 1908.0, 1907.0, 1905.0, 1904.0, 1904.0, 1904.0, 1906.0, 1906.0, 1906.0, 1906.0, 1906.0, 1905.0, 1903.0, 1902.0, 1902.0, 1906.0, 1905.0, 1905.0, 1905.0, 1907.0, 1905.0, 1905.0, 1906.0, 1907.0, 1908.0, 1907.0, 1907.0, 1911.0, 1910.0, 1910.0, 1909.0, 1907.0, 1905.0, 1908.0, 1908.0, 1907.0, 1907.0, 1906.0, 1904.0, 1903.0, 1903.0, 1904.0, 1904.0]
    },
    "slices": {}
  }
}