{
  "AcquisitionMatrixPE": 100,
  "AcquisitionNumber": 1,
  "AcquisitionTime": "13:04:37.095000",
  "BandwidthPerPixelPhaseEncode": 18.519,
  "BaseResolution": 100,
  "BodyPartExamined": "BRAIN",
  "CoilCombinationMethod": "Sum of Squares",
  "ConsistencyInfo": "N4_VE11C_LATEST_20160120",
  "ConversionSoftware": "dcm2niix",
  "ConversionSoftwareVersion": "v1.0.20211006",
  "DerivedVendorReportedEchoSpacing": 0.000539986,
  "DeviceSerialNumber": "166078",
  "DwellTime": 2.1e-06,
  "EchoTime": 0.034,
  "EchoTrainLength": 100,
  "EffectiveEchoSpacing": 0.000539986,
  "FlipAngle": 90,
  "ImageOrientationPatientDICOM": [0.999976, 0.000814536, 0.00693358, -2.7569e-08, 0.993171, -0.116671],
  "ImageOrientationText": "Tra>Cor(-6.7)>Sag(0.4)",
  "ImageType": [
    "ORIGINAL",
    "PRIMARY",
    "M",
    "ND",
    "MOSAIC"
],
  "ImagingFrequency": 123.258,
  "InPlanePhaseEncodingDirectionDICOM": "COL",
  "InstitutionAddress": "Street StreetNo,Bei Jing,District,CN,ZIP",
  "InstitutionName": "BeiJing Normal University",
  "InstitutionalDepartmentName": "Department",
  "MRAcquisitionType": "2D",
  "MagneticFieldStrength": 3,
  "Manufacturer": "Siemens",
  "ManufacturersModelName": "Prisma",
  "Modality": "MR",
  "MultibandAccelerationFactor": 3,
  "PartialFourier": 1,
  "PatientPosition": "HFS",
  "PercentPhaseFOV": 100,
  "PercentSampling": 100,
  "PhaseEncodingDirection": "j-",
  "PhaseEncodingSteps": 100,
  "PhaseResolution": 1,
  "PixelBandwidth": 2380,
  "ProcedureStepDescription": "BNU_P2018_64CH^Zhen.ZongLei",
  "ProtocolName": "bold_100x100_s3_2x2x2_static_156",
  "PulseSequenceDetails": "%SiemensSeq%\\ep2d_bold",
  "ReceiveCoilActiveElements": "HC1-7;NC1",
  "ReceiveCoilName": "HeadNeck_64",
  "ReconMatrixPE": 100,
  "RefLinesPE": 32,
  "RepetitionTime": 2,
  "SAR": 0.0663888,
  "ScanOptions": "FS",
  "ScanningSequence": "EP",
  "SequenceName": "*epfid2d1_100",
  "SequenceVariant": "SK",
  "SeriesDescription": "bold_100x100_s3_2x2x2_static_156",
  "SeriesNumber": 3,
  "ShimSetting": [-5435, -11515, -1240, 303, -58, -263, -116, -6],
  "SliceThickness": 2,
  "SliceTiming": [1.485, 0, 0.99, 0.0825, 1.0725, 0.165, 1.155, 0.2475, 1.2375, 0.33, 1.32, 0.4125, 1.4025, 0.5775, 1.5675, 0.66, 1.65, 0.7425, 1.7325, 0.825, 1.815, 0.9075, 1.8975, 0.495, 1.485, 0, 0.99, 0.0825, 1.0725, 0.165, 1.155, 0.2475, 1.2375, 0.33, 1.32, 0.4125, 1.4025, 0.5775, 1.5675, 0.66, 1.65, 0.7425, 1.7325, 0.825, 1.815, 0.9075, 1.8975, 0.495, 1.485, 0, 0.99, 0.0825, 1.0725, 0.165, 1.155, 0.2475, 1.2375, 0.33, 1.32, 0.4125, 1.4025, 0.5775, 1.5675, 0.66, 1.65, 0.7425, 1.7325, 0.825, 1.815, 0.9075, 1.8975, 0.495],
  "SoftwareVersions": "syngo MR E11",
  "SpacingBetweenSlices": 2,
  "StationName": "AWP166078",
  "TaskName": "action",
  "TotalReadoutTime": 0.0534586,
  "TxRefAmp": 212.729,
  "dcmmeta_affine": [
    [-1.9999512434005737, -5.5138059451564914e-08, 0.01396252028644085, 100.85782623291016],
    [-0.0016290722414851189, 1.9863413572311401, -0.23333579301834106, -88.22382354736328],
    [0.013867158442735672, 0.23334148526191711, 1.9862929582595825, -70.30143737792969],
    [0.0, 0.0, 0.0, 1.0]
],
  "dcmmeta_reorient_transform": [
    [0.0, -1.0, 0.0, 99.0],
    [1.0, 0.0, 0.0, 0.0],
    [0.0, 0.0, 1.0, 0.0],
    [0.0, 0.0, 0.0, 1.0]
],
  "dcmmeta_shape": [100, 100, 72, 156],
  "dcmmeta_slice_dim": 2,
  "dcmmeta_version": 0.6,
  "global": {
    "const": {
      "AcquisitionMatrix": [100, 0, 0, 100],
      "AngioFlag": "N",
      "BitsAllocated": 16,
      "BitsStored": 12,
      "BodyPartExamined": "BRAIN",
      "Columns": 900,
      "EchoNumbers": 1,
      "EchoTime": 34.0,
      "EchoTrainLength": 100,
      "FlipAngle": 90.0,
      "HighBit": 11,
      "ImageOrientationPatient": [0.99997563070726, 0.0008145361468, 0.00693357934158, -2.756903e-08, 0.99317064931944, -0.116670738964],
      "ImagePositionPatient": [-900.83830557599, -903.61211190405, 40.589092921666],
      "ImageType": [
        "ORIGINAL",
        "PRIMARY",
        "M",
        "ND",
        "MOSAIC"
],
      "ImagedNucleus": "1H",
      "ImagingFrequency": 123.257664,
      "InPlanePhaseEncodingDirection": "COL",
      "MRAcquisitionType": "2D",
      "MagneticFieldStrength": 3.0,
      "Manufacturer": "SIEMENS",
      "ManufacturerModelName": "Prisma",
      "Modality": "MR",
      "NumberOfAverages": 1.0,
      "NumberOfPhaseEncodingSteps": 100,
      "PercentPhaseFieldOfView": 100.0,
      "PercentSampling": 100.0,
      "PerformedProcedureStepStartTime": "125430.952000",
      "PhotometricInterpretation": "MONOCHROME2",
      "PixelBandwidth": 2380.0,
      "PixelRepresentation": 0,
      "PixelSpacing": [2.0, 2.0],
      "ProtocolName": "bold_100x100_s3_2x2x2_static_156",
      "RepetitionTime": 2000.0,
      "Rows": 900,
      "SAR": 0.06638879303649,
      "SamplesPerPixel": 1,
      "ScanOptions": "FS",
      "ScanningSequence": "EP",
      "SequenceName": "*epfid2d1_100",
      "SequenceVariant": "SK",
      "SeriesDescription": "bold_100x100_s3_2x2x2_static_156",
      "SeriesNumber": 3,
      "SeriesTime": "130439.727000",
      "SliceLocation": -58.82262366712,
      "SliceThickness": 2.0,
      "SmallestImagePixelValue": 0,
      "SoftwareVersions": "syngo MR E11",
      "SpacingBetweenSlices": 2.0000000397734,
      "SpecificCharacterSet": "ISO_IR 100",
      "StudyID": "1",
      "StudyTime": "125430.798000",
      "TransmitCoilName": "Body",
      "VariableFlipAngleFlag": "N",
      "WindowCenterWidthExplanation": "Algo1",
      "dBdt": 0.0},
    "slices": {}
  },
  "time": {
    "samples": {
      "AcquisitionNumber": [1, 2, 3, 4, 5, 6, 7, 8, 9, 10, 11, 12, 13, 14, 15, 16, 17, 18, 19, 20, 21, 22, 23, 24, 25, 26, 27, 28, 29, 30, 31, 32, 33, 34, 35, 36, 37, 38, 39, 40, 41, 42, 43, 44, 45, 46, 47, 48, 49, 50, 51, 52, 53, 54, 55, 56, 57, 58, 59, 60, 61, 62, 63, 64, 65, 66, 67, 68, 69, 70, 71, 72, 73, 74, 75, 76, 77, 78, 79, 80, 81, 82, 83, 84, 85, 86, 87, 88, 89, 90, 91, 92, 93, 94, 95, 96, 97, 98, 99, 100, 101, 102, 103, 104, 105, 106, 107, 108, 109, 110, 111, 112, 113, 114, 115, 116, 117, 118, 119, 120, 121, 122, 123, 124, 125, 126, 127, 128, 129, 130, 131, 132, 133, 134, 135, 136, 137, 138, 139, 140, 141, 142, 143, 144, 145, 146, 147, 148, 149, 150, 151, 152, 153, 154, 155, 156],
      "AcquisitionTime": ["130437.095000", "130439.095000", "130441.095000", "130443.095000", "130445.095000", "130447.095000", "130449.095000", "130451.095000", "130453.095000", "130455.095000", "130457.095000", "130459.095000", "130501.095000", "130503.095000", "130505.095000", "130507.095000", "130509.095000", "130511.095000", "130513.095000", "130515.095000", "130517.095000", "130519.095000", "130521.095000", "130523.095000", "130525.095000", "130527.095000", "130529.095000", "130531.095000", "130533.095000", "130535.095000", "130537.095000", "130539.095000", "130541.095000", "130543.095000", "130545.095000", "130547.095000", "130549.095000", "130551.095000", "130553.095000", "130555.095000", "130557.095000", "130559.095000", "130601.095000", "130603.095000", "130605.095000", "130607.095000", "130609.095000", "130611.095000", "130613.095000", "130615.095000", "130617.095000", "130619.095000", "130621.095000", "130623.095000", "130625.095000", "130627.095000", "130629.095000", "130631.095000", "130633.095000", "130635.095000", "130637.095000", "130639.095000", "130641.095000", "130643.095000", "130645.095000", "130647.095000", "130649.095000", "130651.095000", "130653.095000", "130655.095000", "130657.095000", "130659.095000", "130701.095000", "130703.095000", "130705.095000", "130707.095000", "130709.095000", "130711.095000", "130713.095000", "130715.095000", "130717.095000", "130719.095000", "130721.095000", "130723.095000", "130725.095000", "130727.095000", "130729.095000", "130731.095000", "130733.095000", "130735.095000", "130737.095000", "130739.095000", "130741.095000", "130743.095000", "130745.095000", "130747.095000", "130749.095000", "130751.095000", "130753.095000", "130755.095000", "130757.095000", "130759.095000", "130801.095000", "130803.095000", "130805.095000", "130807.095000", "130809.095000", "130811.095000", "130813.095000", "130815.095000", "130817.095000", "130819.095000", "130821.095000", "130823.095000", "130825.095000", "130827.095000", "130829.095000", "130831.095000", "130833.095000", "130835.095000", "130837.095000", "130839.095000", "130841.095000", "130843.095000", "130845.095000", "130847.095000", "130849.095000", "130851.095000", "130853.095000", "130855.095000", "130857.095000", "130859.095000", "130901.095000", "130903.095000", "130905.095000", "130907.095000", "130909.095000", "130911.095000", "130913.095000", "130915.095000", "130917.095000", "130919.095000", "130921.095000", "130923.095000", "130925.095000", "130927.095000", "130929.095000", "130931.095000", "130933.095000", "130935.095000", "130937.095000", "130939.095000", "130941.095000", "130943.095000", "130945.095000", "130947.095000"],
      "ContentTime": ["130439.731000", "130441.227000", "130443.226000", "130445.227000", "130447.227000", "130449.226000", "130451.227000", "130453.226000", "130455.226000", "130457.227000", "130459.227000", "130501.226000", "130503.227000", "130505.226000", "130507.227000", "130509.227000", "130511.225000", "130513.226000", "130515.226000", "130517.227000", "130519.227000", "130521.226000", "130523.227000", "130525.227000", "130527.227000", "130529.225000", "130531.227000", "130533.226000", "130535.226000", "130537.227000", "130539.226000", "130541.226000", "130543.227000", "130545.226000", "130547.225000", "130549.227000", "130551.227000", "130553.226000", "130555.226000", "130557.226000", "130559.226000", "130601.226000", "130603.225000", "130605.726000", "130607.227000", "130609.226000", "130611.226000", "130613.227000", "130615.226000", "130617.227000", "130619.227000", "130621.225000", "130623.226000", "130625.227000", "130627.227000", "130629.226000", "130631.727000", "130633.227000", "130635.226000", "130637.226000", "130639.225000", "130641.226000", "130643.226000", "130645.227000", "130647.227000", "130649.226000", "130651.227000", "130653.227000", "130655.226000", "130657.225000", "130659.226000", "130701.226000", "130703.227000", "130705.226000", "130707.726000", "130709.226000", "130711.226000", "130713.225000", "130715.226000", "130717.227000", "130719.227000", "130721.227000", "130723.226000", "130725.226000", "130727.226000", "130729.227000", "130731.226000", "130733.226000", "130735.226000", "130737.226000", "130739.226000", "130741.227000", "130743.226000", "130745.227000", "130747.227000", "130749.225000", "130751.226000", "130753.227000", "130755.227000", "130757.226000", "130759.727000", "130801.227000", "130803.226000", "130805.227000", "130807.225000", "130809.226000", "130811.227000", "130813.226000", "130815.227000", "130817.226000", "130819.227000", "130821.227000", "130823.225000", "130825.226000", "130827.226000", "130829.226000", "130831.226000", "130833.226000", "130835.226000", "130837.226000", "130839.227000", "130841.226000", "130843.226000", "130845.227000", "130847.226000", "130849.226000", "130851.226000", "130853.227000", "130855.226000", "130857.226000", "130859.226000", "130901.227000", "130903.226000", "130905.226000", "130907.227000", "130909.227000", "130911.727000", "130913.226000", "130915.227000", "130917.225000", "130919.726000", "130921.226000", "130923.226000", "130925.226000", "130927.226000", "130929.227000", "130931.227000", "130933.226000", "130935.226000", "130937.227000", "130939.227000", "130941.226000", "130943.227000", "130945.227000", "130947.227000", "130949.147000"],
      "InstanceCreationTime": ["130439.731000", "130441.227000", "130443.226000", "130445.227000", "130447.227000", "130449.226000", "130451.227000", "130453.226000", "130455.226000", "130457.227000", "130459.227000", "130501.226000", "130503.227000", "130505.226000", "130507.227000", "130509.227000", "130511.225000", "130513.226000", "130515.226000", "130517.227000", "130519.227000", "130521.226000", "130523.227000", "130525.227000", "130527.227000", "130529.225000", "130531.227000", "130533.226000", "130535.226000", "130537.227000", "130539.226000", "130541.226000", "130543.227000", "130545.226000", "130547.225000", "130549.227000", "130551.227000", "130553.226000", "130555.226000", "130557.226000", "130559.226000", "130601.226000", "130603.225000", "130605.726000", "130607.227000", "130609.226000", "130611.226000", "130613.227000", "130615.226000", "130617.227000", "130619.227000", "130621.225000", "130623.226000", "130625.227000", "130627.227000", "130629.226000", "130631.727000", "130633.227000", "130635.226000", "130637.226000", "130639.225000", "130641.226000", "130643.226000", "130645.227000", "130647.227000", "130649.226000", "130651.227000", "130653.227000", "130655.226000", "130657.225000", "130659.226000", "130701.226000", "130703.227000", "130705.226000", "130707.726000", "130709.226000", "130711.226000", "130713.225000", "130715.226000", "130717.227000", "130719.227000", "130721.227000", "130723.226000", "130725.226000", "130727.226000", "130729.227000", "130731.226000", "130733.226000", "130735.226000", "130737.226000", "130739.226000", "130741.227000", "130743.226000", "130745.227000", "130747.227000", "130749.225000", "130751.226000", "130753.227000", "130755.227000", "130757.226000", "130759.727000", "130801.227000", "130803.226000", "130805.227000", "130807.225000", "130809.226000", "130811.227000", "130813.226000", "130815.227000", "130817.226000", "130819.227000", "130821.227000", "130823.225000", "130825.226000", "130827.226000", "130829.226000", "130831.226000", "130833.226000", "130835.226000", "130837.226000", "130839.227000", "130841.226000", "130843.226000", "130845.227000", "130847.226000", "130849.226000", "130851.226000", "130853.227000", "130855.226000", "130857.226000", "130859.226000", "130901.227000", "130903.226000", "130905.226000", "130907.227000", "130909.227000", "130911.727000", "130913.226000", "130915.227000", "130917.225000", "130919.726000", "130921.226000", "130923.226000", "130925.226000", "130927.226000", "130929.227000", "130931.227000", "130933.226000", "130935.226000", "130937.227000", "130939.227000", "130941.226000", "130943.227000", "130945.227000", "130947.227000", "130949.147000"],
      "InstanceNumber": [1, 2, 3, 4, 5, 6, 7, 8, 9, 10, 11, 12, 13, 14, 15, 16, 17, 18, 19, 20, 21, 22, 23, 24, 25, 26, 27, 28, 29, 30, 31, 32, 33, 34, 35, 36, 37, 38, 39, 40, 41, 42, 43, 44, 45, 46, 47, 48, 49, 50, 51, 52, 53, 54, 55, 56, 57, 58, 59, 60, 61, 62, 63, 64, 65, 66, 67, 68, 69, 70, 71, 72, 73, 74, 75, 76, 77, 78, 79, 80, 81, 82, 83, 84, 85, 86, 87, 88, 89, 90, 91, 92, 93, 94, 95, 96, 97, 98, 99, 100, 101, 102, 103, 104, 105, 106, 107, 108, 109, 110, 111, 112, 113, 114, 115, 116, 117, 118, 119, 120, 121, 122, 123, 124, 125, 126, 127, 128, 129, 130, 131, 132, 133, 134, 135, 136, 137, 138, 139, 140, 141, 142, 143, 144, 145, 146, 147, 148, 149, 150, 151, 152, 153, 154, 155, 156],
      "LargestImagePixelValue": [3380, 3303, 3298, 3277, 3276, 3288, 3259, 3299, 3303, 3287, 3287, 3294, 3285, 3290, 3293, 3308, 3314, 3329, 3295, 3323, 3257, 3275, 3300, 3238, 3287, 3257, 3268, 3302, 3281, 3272, 3275, 3306, 3270, 3317, 3277, 3295, 3304, 3283, 3309, 3290, 3322, 3272, 3326, 3292, 3319, 3292, 3311, 3284, 3253, 3306, 3271, 3309, 3295, 3297, 3277, 3269, 3283, 3251, 3301, 3270, 3256, 3274, 3279, 3285, 3288, 3304, 3310, 3280, 3247, 3278, 3250, 3253, 3236, 3254, 3280, 3269, 3284, 3278, 3259, 3263, 3242, 3295, 3280, 3285, 3282, 3256, 3256, 3248, 3262, 3269, 3266, 3281, 3258, 3243, 3265, 3223, 3248, 3252, 3267, 3223, 3280, 3243, 3274, 3272, 3279, 3250, 3249, 3285, 3254, 3269, 3263, 3267, 3243, 3259, 3294, 3260, 3263, 3271, 3282, 3234, 3272, 3269, 3261, 3291, 3262, 3323, 3255, 3272, 3287, 3273, 3261, 3287, 3293, 3250, 3310, 3265, 3288, 3262, 3305, 3247, 3299, 3287, 3303, 3274, 3302, 3302, 3350, 3304, 3294, 3331, 3298, 3328, 3295, 3369, 3324, 3311],
      "WindowCenter": [779.0, 778.0, 778.0, 777.0, 777.0, 777.0, 776.0, 776.0, 775.0, 776.0, 775.0, 775.0, 774.0, 775.0, 774.0, 774.0, 774.0, 773.0, 773.0, 773.0, 772.0, 773.0, 773.0, 773.0, 773.0, 772.0, 772.0, 773.0, 773.0, 773.0, 773.0, 773.0, 773.0, 773.0, 773.0, 773.0, 774.0, 774.0, 774.0, 774.0, 774.0, 773.0, 772.0, 772.0, 773.0, 773.0, 772.0, 772.0, 771.0, 771.0, 772.0, 772.0, 773.0, 772.0, 772.0, 772.0, 772.0, 772.0, 773.0, 773.0, 772.0, 772.0, 772.0, 772.0, 772.0, 772.0, 772.0, 771.0, 772.0, 772.0, 772.0, 772.0, 772.0, 773.0, 773.0, 772.0, 772.0, 771.0, 770.0, 770.0, 770.0, 771.0, 771.0, 771.0, 772.0, 771.0, 771.0, 771.0, 771.0, 772.0, 771.0, 770.0, 770.0, 771.0, 771.0, 771.0, 770.0, 770.0, 771.0, 770.0, 771.0, 771.0, 770.0, 771.0, 771.0, 771.0, 771.0, 771.0, 771.0, 771.0, 770.0, 771.0, 770.0, 771.0, 771.0, 771.0, 771.0, 771.0, 770.0, 770.0, 771.0, 771.0, 771.0, 772.0, 772.0, 772.0, 772.0, 772.0, 772.0, 772.0, 771.0, 771.0, 771.0, 771.0, 772.0, 772.0, 772.0, 772.0, 772.0, 771.0, 771.0, 771.0, 772.0, 771.0, 772.0, 772.0, 773.0, 772.0, 772.0, 773.0, 772.0, 772.0, 772.0, 772.0, 772.0, 771.0],
      "WindowWidth": [1688.0, 1685.0, 1684.0, 1683.0, 1683.0, 1682.0, 1678.0, 1678.0, 1678.0, 1679.0, 1678.0, 1678.0, 1675.0, 1676.0, 1675.0, 1675.0, 1673.0, 1672.0, 1671.0, 1672.0, 1670.0, 1672.0, 1672.0, 1672.0, 1672.0, 1669.0, 1670.0, 1671.0, 1671.0, 1671.0, 1672.0, 1672.0, 1672.0, 1673.0, 1671.0, 1673.0, 1674.0, 1673.0, 1673.0, 1673.0, 1673.0, 1670.0, 1670.0, 1669.0, 1671.0, 1671.0, 1670.0, 1668.0, 1666.0, 1667.0, 1668.0, 1669.0, 1670.0, 1670.0, 1668.0, 1667.0, 1668.0, 1669.0, 1672.0, 1670.0, 1668.0, 1668.0, 1667.0, 1667.0, 1667.0, 1668.0, 1668.0, 1667.0, 1669.0, 1669.0, 1668.0, 1668.0, 1668.0, 1671.0, 1672.0, 1669.0, 1667.0, 1664.0, 1664.0, 1664.0, 1663.0, 1666.0, 1665.0, 1665.0, 1668.0, 1667.0, 1667.0, 1666.0, 1667.0, 1667.0, 1665.0, 1663.0, 1663.0, 1665.0, 1666.0, 1665.0, 1664.0, 1664.0, 1664.0, 1664.0, 1666.0, 1665.0, 1663.0, 1665.0, 1664.0, 1665.0, 1665.0, 1666.0, 1666.0, 1665.0, 1664.0, 1664.0, 1664.0, 1666.0, 1665.0, 1665.0, 1665.0, 1667.0, 1664.0, 1664.0, 1665.0, 1666.0, 1667.0, 1668.0, 1668.0, 1668.0, 1667.0, 1668.0, 1668.0, 1667.0, 1666.0, 1666.0, 1667.0, 1666.0, 1669.0, 1668.0, 1669.0, 1669.0, 1669.0, 1666.0, 1666.0, 1666.0, 1667.0, 1666.0, 1668.0, 1669.0, 1670.0, 1669.0, 1669.0, 1671.0, 1669.0, 1669.0, 1668.0, 1668.0, 1667.0, 1665.0]
    },
    "slices": {}
  }
}