{
  "AcquisitionMatrixPE": 100,
  "AcquisitionNumber": 1,
  "AcquisitionTime": "13:54:13.637500",
  "BandwidthPerPixelPhaseEncode": 18.519,
  "BaseResolution": 100,
  "BodyPartExamined": "BRAIN",
  "CoilCombinationMethod": "Sum of Squares",
  "ConsistencyInfo": "N4_VE11C_LATEST_20160120",
  "ConversionSoftware": "dcm2niix",
  "ConversionSoftwareVersion": "v1.0.20211006",
  "DerivedVendorReportedEchoSpacing": 0.000539986,
  "DeviceSerialNumber": "166078",
  "DwellTime": 2.1e-06,
  "EchoTime": 0.034,
  "EchoTrainLength": 100,
  "EffectiveEchoSpacing": 0.000539986,
  "FlipAngle": 90,
  "ImageOrientationPatientDICOM": [0.999976, 0.000814536, 0.00693358, -2.7569e-08, 0.993171, -0.116671],
  "ImageOrientationText": "Tra>Cor(-6.7)>Sag(0.4)",
  "ImageType": [
    "ORIGINAL",
    "PRIMARY",
    "M",
    "ND",
    "MOSAIC"
],
  "ImagingFrequency": 123.258,
  "InPlanePhaseEncodingDirectionDICOM": "COL",
  "InstitutionAddress": "Street StreetNo,Bei Jing,District,CN,ZIP",
  "InstitutionName": "BeiJing Normal University",
  "InstitutionalDepartmentName": "Department",
  "MRAcquisitionType": "2D",
  "MagneticFieldStrength": 3,
  "Manufacturer": "Siemens",
  "ManufacturersModelName": "Prisma",
  "Modality": "MR",
  "MultibandAccelerationFactor": 3,
  "PartialFourier": 1,
  "PatientPosition": "HFS",
  "PercentPhaseFOV": 100,
  "PercentSampling": 100,
  "PhaseEncodingDirection": "j-",
  "PhaseEncodingSteps": 100,
  "PhaseResolution": 1,
  "PixelBandwidth": 2380,
  "ProcedureStepDescription": "BNU_P2018_64CH^Zhen.ZongLei",
  "ProtocolName": "bold_100x100_s3_2x2x2_static_156",
  "PulseSequenceDetails": "%SiemensSeq%\\ep2d_bold",
  "ReceiveCoilActiveElements": "HC1-7;NC1",
  "ReceiveCoilName": "HeadNeck_64",
  "ReconMatrixPE": 100,
  "RefLinesPE": 32,
  "RepetitionTime": 2,
  "SAR": 0.0663888,
  "ScanOptions": "FS",
  "ScanningSequence": "EP",
  "SequenceName": "*epfid2d1_100",
  "SequenceVariant": "SK",
  "SeriesDescription": "bold_100x100_s3_2x2x2_static_156",
  "SeriesNumber": 13,
  "ShimSetting": [-5435, -11515, -1240, 303, -58, -263, -116, -6],
  "SliceThickness": 2,
  "SliceTiming": [1.485, 0, 0.99, 0.0825, 1.0725, 0.165, 1.155, 0.2475, 1.2375, 0.33, 1.32, 0.4125, 1.4025, 0.5775, 1.5675, 0.66, 1.65, 0.7425, 1.7325, 0.825, 1.815, 0.9075, 1.8975, 0.495, 1.485, 0, 0.99, 0.0825, 1.0725, 0.165, 1.155, 0.2475, 1.2375, 0.33, 1.32, 0.4125, 1.4025, 0.5775, 1.5675, 0.66, 1.65, 0.7425, 1.7325, 0.825, 1.815, 0.9075, 1.8975, 0.495, 1.485, 0, 0.99, 0.0825, 1.0725, 0.165, 1.155, 0.2475, 1.2375, 0.33, 1.32, 0.4125, 1.4025, 0.5775, 1.5675, 0.66, 1.65, 0.7425, 1.7325, 0.825, 1.815, 0.9075, 1.8975, 0.495],
  "SoftwareVersions": "syngo MR E11",
  "SpacingBetweenSlices": 2,
  "StationName": "AWP166078",
  "TaskName": "action",
  "TotalReadoutTime": 0.0534586,
  "TxRefAmp": 212.729,
  "dcmmeta_affine": [
    [-1.9999512434005737, -5.5138059451564914e-08, 0.01396252028644085, 100.85782623291016],
    [-0.0016290722414851189, 1.9863413572311401, -0.23333579301834106, -88.22382354736328],
    [0.013867158442735672, 0.23334148526191711, 1.9862929582595825, -70.30143737792969],
    [0.0, 0.0, 0.0, 1.0]
],
  "dcmmeta_reorient_transform": [
    [0.0, -1.0, 0.0, 99.0],
    [1.0, 0.0, 0.0, 0.0],
    [0.0, 0.0, 1.0, 0.0],
    [0.0, 0.0, 0.0, 1.0]
],
  "dcmmeta_shape": [100, 100, 72, 156],
  "dcmmeta_slice_dim": 2,
  "dcmmeta_version": 0.6,
  "global": {
    "const": {
      "AcquisitionMatrix": [100, 0, 0, 100],
      "AngioFlag": "N",
      "BitsAllocated": 16,
      "BitsStored": 12,
      "BodyPartExamined": "BRAIN",
      "Columns": 900,
      "EchoNumbers": 1,
      "EchoTime": 34.0,
      "EchoTrainLength": 100,
      "FlipAngle": 90.0,
      "HighBit": 11,
      "ImageOrientationPatient": [0.99997563070726, 0.0008145361468, 0.00693357934158, -2.756903e-08, 0.99317064931944, -0.116670738964],
      "ImagePositionPatient": [-900.83830557599, -903.61211190405, 40.589092921666],
      "ImageType": [
        "ORIGINAL",
        "PRIMARY",
        "M",
        "ND",
        "MOSAIC"
],
      "ImagedNucleus": "1H",
      "ImagingFrequency": 123.257689,
      "InPlanePhaseEncodingDirection": "COL",
      "MRAcquisitionType": "2D",
      "MagneticFieldStrength": 3.0,
      "Manufacturer": "SIEMENS",
      "ManufacturerModelName": "Prisma",
      "Modality": "MR",
      "NumberOfAverages": 1.0,
      "NumberOfPhaseEncodingSteps": 100,
      "PercentPhaseFieldOfView": 100.0,
      "PercentSampling": 100.0,
      "PerformedProcedureStepStartTime": "125430.952000",
      "PhotometricInterpretation": "MONOCHROME2",
      "PixelBandwidth": 2380.0,
      "PixelRepresentation": 0,
      "PixelSpacing": [2.0, 2.0],
      "ProtocolName": "bold_100x100_s3_2x2x2_static_156",
      "RepetitionTime": 2000.0,
      "Rows": 900,
      "SAR": 0.06638879303649,
      "SamplesPerPixel": 1,
      "ScanOptions": "FS",
      "ScanningSequence": "EP",
      "SequenceName": "*epfid2d1_100",
      "SequenceVariant": "SK",
      "SeriesDescription": "bold_100x100_s3_2x2x2_static_156",
      "SeriesNumber": 13,
      "SeriesTime": "135416.561000",
      "SliceLocation": -58.82262366712,
      "SliceThickness": 2.0,
      "SmallestImagePixelValue": 0,
      "SoftwareVersions": "syngo MR E11",
      "SpacingBetweenSlices": 2.0000000397734,
      "SpecificCharacterSet": "ISO_IR 100",
      "StudyID": "1",
      "StudyTime": "125430.798000",
      "TransmitCoilName": "Body",
      "VariableFlipAngleFlag": "N",
      "WindowCenterWidthExplanation": "Algo1",
      "dBdt": 0.0},
    "slices": {}
  },
  "time": {
    "samples": {
      "AcquisitionNumber": [1, 2, 3, 4, 5, 6, 7, 8, 9, 10, 11, 12, 13, 14, 15, 16, 17, 18, 19, 20, 21, 22, 23, 24, 25, 26, 27, 28, 29, 30, 31, 32, 33, 34, 35, 36, 37, 38, 39, 40, 41, 42, 43, 44, 45, 46, 47, 48, 49, 50, 51, 52, 53, 54, 55, 56, 57, 58, 59, 60, 61, 62, 63, 64, 65, 66, 67, 68, 69, 70, 71, 72, 73, 74, 75, 76, 77, 78, 79, 80, 81, 82, 83, 84, 85, 86, 87, 88, 89, 90, 91, 92, 93, 94, 95, 96, 97, 98, 99, 100, 101, 102, 103, 104, 105, 106, 107, 108, 109, 110, 111, 112, 113, 114, 115, 116, 117, 118, 119, 120, 121, 122, 123, 124, 125, 126, 127, 128, 129, 130, 131, 132, 133, 134, 135, 136, 137, 138, 139, 140, 141, 142, 143, 144, 145, 146, 147, 148, 149, 150, 151, 152, 153, 154, 155, 156],
      "AcquisitionTime": ["135413.637500", "135415.637500", "135417.637500", "135419.637500", "135421.637500", "135423.637500", "135425.637500", "135427.637500", "135429.637500", "135431.637500", "135433.637500", "135435.637500", "135437.637500", "135439.637500", "135441.637500", "135443.637500", "135445.637500", "135447.637500", "135449.637500", "135451.637500", "135453.637500", "135455.637500", "135457.637500", "135459.637500", "135501.637500", "135503.637500", "135505.637500", "135507.637500", "135509.637500", "135511.637500", "135513.637500", "135515.637500", "135517.637500", "135519.637500", "135521.637500", "135523.637500", "135525.637500", "135527.637500", "135529.637500", "135531.637500", "135533.637500", "135535.637500", "135537.637500", "135539.637500", "135541.637500", "135543.637500", "135545.637500", "135547.637500", "135549.637500", "135551.637500", "135553.637500", "135555.637500", "135557.637500", "135559.637500", "135601.637500", "135603.637500", "135605.637500", "135607.637500", "135609.637500", "135611.637500", "135613.637500", "135615.637500", "135617.637500", "135619.637500", "135621.637500", "135623.637500", "135625.637500", "135627.637500", "135629.637500", "135631.637500", "135633.637500", "135635.637500", "135637.637500", "135639.637500", "135641.637500", "135643.637500", "135645.637500", "135647.637500", "135649.637500", "135651.637500", "135653.637500", "135655.637500", "135657.637500", "135659.637500", "135701.637500", "135703.637500", "135705.637500", "135707.637500", "135709.637500", "135711.637500", "135713.637500", "135715.637500", "135717.637500", "135719.637500", "135721.637500", "135723.637500", "135725.637500", "135727.637500", "135729.637500", "135731.637500", "135733.637500", "135735.637500", "135737.637500", "135739.637500", "135741.637500", "135743.637500", "135745.637500", "135747.637500", "135749.637500", "135751.637500", "135753.637500", "135755.637500", "135757.637500", "135759.637500", "135801.637500", "135803.637500", "135805.637500", "135807.637500", "135809.637500", "135811.637500", "135813.637500", "135815.637500", "135817.637500", "135819.637500", "135821.637500", "135823.637500", "135825.637500", "135827.637500", "135829.637500", "135831.637500", "135833.637500", "135835.637500", "135837.637500", "135839.637500", "135841.637500", "135843.637500", "135845.637500", "135847.637500", "135849.637500", "135851.637500", "135853.637500", "135855.637500", "135857.637500", "135859.637500", "135901.637500", "135903.637500", "135905.637500", "135907.637500", "135909.637500", "135911.637500", "135913.637500", "135915.637500", "135917.637500", "135919.637500", "135921.637500", "135923.637500"],
      "ContentTime": ["135416.565000", "135418.059000", "135420.060000", "135422.059000", "135424.059000", "135426.059000", "135428.060000", "135430.061000", "135432.060000", "135434.060000", "135436.060000", "135438.059000", "135440.060000", "135442.060000", "135444.060000", "135446.060000", "135448.060000", "135450.061000", "135452.059000", "135454.060000", "135456.059000", "135458.060000", "135500.059000", "135502.059000", "135504.061000", "135506.061000", "135508.061000", "135510.059000", "135512.059000", "135514.060000", "135516.059000", "135518.059000", "135520.061000", "135522.060000", "135524.061000", "135526.060000", "135528.060000", "135530.059000", "135532.060000", "135534.060000", "135536.060000", "135538.060000", "135540.061000", "135542.061000", "135544.060000", "135546.060000", "135548.059000", "135550.059000", "135552.059000", "135554.060000", "135556.060000", "135558.061000", "135600.061000", "135602.060000", "135604.060000", "135606.060000", "135608.060000", "135610.059000", "135612.059000", "135614.061000", "135616.060000", "135618.060000", "135620.059000", "135622.060000", "135624.060000", "135626.060000", "135628.060000", "135630.060000", "135632.061000", "135634.061000", "135636.061000", "135638.059000", "135640.060000", "135642.060000", "135644.059000", "135646.060000", "135648.061000", "135650.061000", "135652.061000", "135654.061000", "135656.060000", "135658.060000", "135700.060000", "135702.060000", "135704.060000", "135706.061000", "135708.061000", "135710.061000", "135712.059000", "135714.059000", "135716.059000", "135718.060000", "135720.060000", "135722.059000", "135724.060000", "135726.060000", "135728.061000", "135730.059000", "135732.060000", "135734.059000", "135736.060000", "135738.060000", "135740.060000", "135742.061000", "135744.061000", "135746.061000", "135748.060000", "135750.060000", "135752.060000", "135754.059000", "135756.059000", "135758.061000", "135800.060000", "135802.061000", "135804.060000", "135806.059000", "135808.059000", "135810.060000", "135812.059000", "135814.060000", "135816.060000", "135818.061000", "135820.061000", "135822.060000", "135824.060000", "135826.059000", "135828.060000", "135830.060000", "135832.060000", "135834.061000", "135836.061000", "135838.061000", "135840.060000", "135842.059000", "135844.060000", "135846.060000", "135848.059000", "135850.061000", "135852.060000", "135854.061000", "135856.060000", "135858.060000", "135900.059000", "135902.060000", "135904.059000", "135906.060000", "135908.060000", "135910.061000", "135912.060000", "135914.060000", "135916.059000", "135918.060000", "135920.060000", "135922.060000", "135924.070000", "135925.619000"],
      "InstanceCreationTime": ["135416.565000", "135418.059000", "135420.060000", "135422.059000", "135424.059000", "135426.059000", "135428.060000", "135430.061000", "135432.060000", "135434.060000", "135436.060000", "135438.059000", "135440.060000", "135442.060000", "135444.060000", "135446.060000", "135448.060000", "135450.061000", "135452.059000", "135454.060000", "135456.059000", "135458.060000", "135500.059000", "135502.059000", "135504.061000", "135506.061000", "135508.061000", "135510.059000", "135512.059000", "135514.060000", "135516.059000", "135518.059000", "135520.061000", "135522.060000", "135524.061000", "135526.060000", "135528.060000", "135530.059000", "135532.060000", "135534.060000", "135536.060000", "135538.060000", "135540.061000", "135542.061000", "135544.060000", "135546.060000", "135548.059000", "135550.059000", "135552.059000", "135554.060000", "135556.060000", "135558.061000", "135600.061000", "135602.060000", "135604.060000", "135606.060000", "135608.060000", "135610.059000", "135612.059000", "135614.061000", "135616.060000", "135618.060000", "135620.059000", "135622.060000", "135624.060000", "135626.060000", "135628.060000", "135630.060000", "135632.061000", "135634.061000", "135636.061000", "135638.059000", "135640.060000", "135642.060000", "135644.059000", "135646.060000", "135648.061000", "135650.061000", "135652.061000", "135654.061000", "135656.060000", "135658.060000", "135700.060000", "135702.060000", "135704.060000", "135706.061000", "135708.061000", "135710.061000", "135712.059000", "135714.059000", "135716.059000", "135718.060000", "135720.060000", "135722.059000", "135724.060000", "135726.060000", "135728.061000", "135730.059000", "135732.060000", "135734.059000", "135736.060000", "135738.060000", "135740.060000", "135742.061000", "135744.061000", "135746.061000", "135748.060000", "135750.060000", "135752.060000", "135754.059000", "135756.059000", "135758.061000", "135800.060000", "135802.061000", "135804.060000", "135806.059000", "135808.059000", "135810.060000", "135812.059000", "135814.060000", "135816.060000", "135818.061000", "135820.061000", "135822.060000", "135824.060000", "135826.059000", "135828.060000", "135830.060000", "135832.060000", "135834.061000", "135836.061000", "135838.061000", "135840.060000", "135842.059000", "135844.060000", "135846.060000", "135848.059000", "135850.061000", "135852.060000", "135854.061000", "135856.060000", "135858.060000", "135900.059000", "135902.060000", "135904.059000", "135906.060000", "135908.060000", "135910.061000", "135912.060000", "135914.060000", "135916.059000", "135918.060000", "135920.060000", "135922.060000", "135924.070000", "135925.619000"],
      "InstanceNumber": [1, 2, 3, 4, 5, 6, 7, 8, 9, 10, 11, 12, 13, 14, 15, 16, 17, 18, 19, 20, 21, 22, 23, 24, 25, 26, 27, 28, 29, 30, 31, 32, 33, 34, 35, 36, 37, 38, 39, 40, 41, 42, 43, 44, 45, 46, 47, 48, 49, 50, 51, 52, 53, 54, 55, 56, 57, 58, 59, 60, 61, 62, 63, 64, 65, 66, 67, 68, 69, 70, 71, 72, 73, 74, 75, 76, 77, 78, 79, 80, 81, 82, 83, 84, 85, 86, 87, 88, 89, 90, 91, 92, 93, 94, 95, 96, 97, 98, 99, 100, 101, 102, 103, 104, 105, 106, 107, 108, 109, 110, 111, 112, 113, 114, 115, 116, 117, 118, 119, 120, 121, 122, 123, 124, 125, 126, 127, 128, 129, 130, 131, 132, 133, 134, 135, 136, 137, 138, 139, 140, 141, 142, 143, 144, 145, 146, 147, 148, 149, 150, 151, 152, 153, 154, 155, 156],
      "LargestImagePixelValue": [3459, 3418, 3421, 3346, 3448, 3393, 3397, 3410, 3382, 3398, 3349, 3369, 3391, 3404, 3390, 3420, 3369, 3383, 3398, 3423, 3445, 3377, 3409, 3394, 3406, 3392, 3393, 3415, 3392, 3383, 3382, 3340, 3356, 3397, 3363, 3350, 3413, 3385, 3332, 3328, 3405, 3417, 3338, 3420, 3323, 3344, 3351, 3313, 3362, 3324, 3409, 3365, 3396, 3392, 3395, 3399, 3385, 3364, 3288, 3319, 3331, 3384, 3347, 3308, 3339, 3321, 3349, 3352, 3316, 3328, 3373, 3358, 3333, 3340, 3312, 3374, 3364, 3350, 3366, 3337, 3355, 3342, 3369, 3388, 3326, 3379, 3347, 3358, 3356, 3344, 3279, 3332, 3335, 3343, 3364, 3334, 3390, 3331, 3318, 3326, 3332, 3331, 3340, 3301, 3317, 3335, 3308, 3314, 3328, 3339, 3334, 3322, 3321, 3318, 3304, 3312, 3313, 3329, 3355, 3317, 3363, 3339, 3341, 3321, 3386, 3310, 3338, 3326, 3324, 3333, 3369, 3332, 3326, 3342, 3294, 3306, 3323, 3340, 3299, 3359, 3322, 3320, 3373, 3315, 3356, 3287, 3334, 3340, 3338, 3310, 3332, 3315, 3324, 3316, 3314, 3301],
      "WindowCenter": [780.0, 779.0, 779.0, 779.0, 779.0, 778.0, 778.0, 778.0, 778.0, 777.0, 777.0, 777.0, 777.0, 777.0, 777.0, 778.0, 778.0, 778.0, 779.0, 780.0, 780.0, 780.0, 779.0, 780.0, 779.0, 779.0, 779.0, 779.0, 779.0, 780.0, 780.0, 780.0, 780.0, 779.0, 779.0, 780.0, 780.0, 779.0, 778.0, 778.0, 779.0, 779.0, 778.0, 779.0, 780.0, 780.0, 779.0, 778.0, 778.0, 776.0, 775.0, 775.0, 776.0, 776.0, 776.0, 777.0, 779.0, 779.0, 779.0, 779.0, 778.0, 779.0, 778.0, 778.0, 778.0, 779.0, 779.0, 779.0, 779.0, 779.0, 779.0, 779.0, 780.0, 779.0, 779.0, 780.0, 780.0, 779.0, 778.0, 778.0, 779.0, 778.0, 778.0, 777.0, 777.0, 779.0, 779.0, 778.0, 778.0, 778.0, 777.0, 777.0, 778.0, 779.0, 779.0, 778.0, 779.0, 780.0, 780.0, 779.0, 779.0, 780.0, 779.0, 778.0, 778.0, 779.0, 778.0, 778.0, 778.0, 778.0, 779.0, 779.0, 779.0, 779.0, 779.0, 779.0, 779.0, 779.0, 778.0, 778.0, 779.0, 779.0, 778.0, 779.0, 779.0, 779.0, 780.0, 780.0, 780.0, 781.0, 781.0, 780.0, 780.0, 780.0, 778.0, 778.0, 778.0, 778.0, 778.0, 779.0, 779.0, 780.0, 780.0, 779.0, 779.0, 778.0, 778.0, 778.0, 778.0, 778.0, 777.0, 779.0, 780.0, 780.0, 779.0, 779.0],
      "WindowWidth": [1687.0, 1685.0, 1685.0, 1683.0, 1685.0, 1681.0, 1681.0, 1681.0, 1681.0, 1680.0, 1678.0, 1679.0, 1680.0, 1680.0, 1680.0, 1682.0, 1682.0, 1683.0, 1685.0, 1687.0, 1688.0, 1687.0, 1684.0, 1686.0, 1685.0, 1686.0, 1685.0, 1685.0, 1686.0, 1686.0, 1688.0, 1688.0, 1686.0, 1684.0, 1685.0, 1686.0, 1686.0, 1685.0, 1682.0, 1682.0, 1684.0, 1685.0, 1683.0, 1686.0, 1686.0, 1687.0, 1685.0, 1682.0, 1683.0, 1677.0, 1673.0, 1674.0, 1677.0, 1677.0, 1676.0, 1679.0, 1684.0, 1686.0, 1684.0, 1684.0, 1682.0, 1684.0, 1683.0, 1681.0, 1682.0, 1684.0, 1685.0, 1685.0, 1685.0, 1684.0, 1684.0, 1686.0, 1686.0, 1686.0, 1685.0, 1687.0, 1686.0, 1685.0, 1682.0, 1682.0, 1684.0, 1682.0, 1681.0, 1679.0, 1680.0, 1684.0, 1684.0, 1683.0, 1682.0, 1682.0, 1680.0, 1681.0, 1683.0, 1685.0, 1685.0, 1683.0, 1686.0, 1688.0, 1687.0, 1686.0, 1686.0, 1687.0, 1684.0, 1682.0, 1683.0, 1684.0, 1682.0, 1682.0, 1682.0, 1683.0, 1684.0, 1684.0, 1685.0, 1686.0, 1685.0, 1686.0, 1686.0, 1685.0, 1683.0, 1682.0, 1684.0, 1684.0, 1683.0, 1683.0, 1686.0, 1686.0, 1688.0, 1688.0, 1688.0, 1689.0, 1689.0, 1688.0, 1687.0, 1686.0, 1683.0, 1683.0, 1682.0, 1682.0, 1682.0, 1683.0, 1685.0, 1686.0, 1687.0, 1685.0, 1684.0, 1680.0, 1682.0, 1682.0, 1682.0, 1681.0, 1680.0, 1683.0, 1686.0, 1688.0, 1685.0, 1683.0]
    },
    "slices": {}
  }
}