{
  "AcquisitionMatrixPE": 100,
  "AcquisitionNumber": 1,
  "AcquisitionTime": "11:12:22.627500",
  "BandwidthPerPixelPhaseEncode": 18.519,
  "BaseResolution": 100,
  "BodyPartExamined": "BRAIN",
  "CoilCombinationMethod": "Sum of Squares",
  "ConsistencyInfo": "N4_VE11C_LATEST_20160120",
  "ConversionSoftware": "dcm2niix",
  "ConversionSoftwareVersion": "v1.0.20211006",
  "DerivedVendorReportedEchoSpacing": 0.000539986,
  "DeviceSerialNumber": "166078",
  "DwellTime": 2.1e-06,
  "EchoTime": 0.034,
  "EchoTrainLength": 100,
  "EffectiveEchoSpacing": 0.000539986,
  "FlipAngle": 90,
  "ImageOrientationPatientDICOM": [1, 0, 0, 0, 0.982287, -0.187381],
  "ImageOrientationText": "Tra>Cor(-10.8)",
  "ImageType": [
    "ORIGINAL",
    "PRIMARY",
    "M",
    "ND",
    "MOSAIC"
],
  "ImagingFrequency": 123.258,
  "InPlanePhaseEncodingDirectionDICOM": "COL",
  "InstitutionAddress": "Street StreetNo,Bei Jing,District,CN,ZIP",
  "InstitutionName": "BeiJing Normal University",
  "InstitutionalDepartmentName": "Department",
  "MRAcquisitionType": "2D",
  "MagneticFieldStrength": 3,
  "Manufacturer": "Siemens",
  "ManufacturersModelName": "Prisma",
  "Modality": "MR",
  "MultibandAccelerationFactor": 3,
  "PartialFourier": 1,
  "PatientPosition": "HFS",
  "PercentPhaseFOV": 100,
  "PercentSampling": 100,
  "PhaseEncodingDirection": "j-",
  "PhaseEncodingSteps": 100,
  "PhaseResolution": 1,
  "PixelBandwidth": 2380,
  "ProcedureStepDescription": "BNU_P2018_64CH^Zhen.ZongLei",
  "ProtocolName": "bold_100x100_s3_2x2x2_static_156",
  "PulseSequenceDetails": "%SiemensSeq%\\ep2d_bold",
  "ReceiveCoilActiveElements": "HC1-7;NC1",
  "ReceiveCoilName": "HeadNeck_64",
  "ReconMatrixPE": 100,
  "RefLinesPE": 32,
  "RepetitionTime": 2,
  "SAR": 0.0657312,
  "ScanOptions": "FS",
  "ScanningSequence": "EP",
  "SequenceName": "*epfid2d1_100",
  "SequenceVariant": "SK",
  "SeriesDescription": "bold_100x100_s3_2x2x2_static_156",
  "SeriesNumber": 13,
  "ShimSetting": [-5449, -11519, -1240, 401, 12, -122, -268, 48],
  "SliceThickness": 2,
  "SliceTiming": [1.485, 0, 0.99, 0.0825, 1.0725, 0.165, 1.155, 0.2475, 1.2375, 0.33, 1.32, 0.4125, 1.4025, 0.5775, 1.5675, 0.66, 1.65, 0.7425, 1.7325, 0.825, 1.815, 0.9075, 1.8975, 0.495, 1.485, 0, 0.99, 0.0825, 1.0725, 0.165, 1.155, 0.2475, 1.2375, 0.33, 1.32, 0.4125, 1.4025, 0.5775, 1.5675, 0.66, 1.65, 0.7425, 1.7325, 0.825, 1.815, 0.9075, 1.8975, 0.495, 1.485, 0, 0.99, 0.0825, 1.0725, 0.165, 1.155, 0.2475, 1.2375, 0.33, 1.32, 0.4125, 1.4025, 0.5775, 1.5675, 0.66, 1.65, 0.7425, 1.7325, 0.825, 1.815, 0.9075, 1.8975, 0.495],
  "SoftwareVersions": "syngo MR E11",
  "SpacingBetweenSlices": 2,
  "StationName": "AWP166078",
  "TaskName": "action",
  "TotalReadoutTime": 0.0534586,
  "TxRefAmp": 217.597,
  "dcmmeta_affine": [
    [-2.0, 0.0, 0.0, 101.3559341430664],
    [0.0, 1.9645744562149048, -0.374762624502182, -76.79542541503906],
    [0.0, 0.374762624502182, 1.9645744562149048, -80.04765319824219],
    [0.0, 0.0, 0.0, 1.0]
],
  "dcmmeta_reorient_transform": [
    [0.0, -1.0, 0.0, 99.0],
    [1.0, 0.0, 0.0, 0.0],
    [0.0, 0.0, 1.0, 0.0],
    [0.0, 0.0, 0.0, 1.0]
],
  "dcmmeta_shape": [100, 100, 72, 156],
  "dcmmeta_slice_dim": 2,
  "dcmmeta_version": 0.6,
  "global": {
    "const": {
      "AcquisitionMatrix": [100, 0, 0, 100],
      "AngioFlag": "N",
      "BitsAllocated": 16,
      "BitsStored": 12,
      "BodyPartExamined": "BRAIN",
      "Columns": 900,
      "EchoNumbers": 1,
      "EchoTime": 34.0,
      "EchoTrainLength": 100,
      "FlipAngle": 90.0,
      "HighBit": 11,
      "ImageOrientationPatient": [1.0, 0.0, 0.0, 0.0, 0.98228725047307, -0.1873813159257],
      "ImagePositionPatient": [-901.35593223572, -903.52724681553, 106.95890012293],
      "ImageType": [
        "ORIGINAL",
        "PRIMARY",
        "M",
        "ND",
        "MOSAIC"
],
      "ImagedNucleus": "1H",
      "ImagingFrequency": 123.257723,
      "InPlanePhaseEncodingDirection": "COL",
      "MRAcquisitionType": "2D",
      "MagneticFieldStrength": 3.0,
      "Manufacturer": "SIEMENS",
      "ManufacturerModelName": "Prisma",
      "Modality": "MR",
      "NumberOfAverages": 1.0,
      "NumberOfPhaseEncodingSteps": 100,
      "PercentPhaseFieldOfView": 100.0,
      "PercentSampling": 100.0,
      "PerformedProcedureStepStartTime": "101525.996000",
      "PhotometricInterpretation": "MONOCHROME2",
      "PixelBandwidth": 2380.0,
      "PixelRepresentation": 0,
      "PixelSpacing": [2.0, 2.0],
      "ProtocolName": "bold_100x100_s3_2x2x2_static_156",
      "RepetitionTime": 2000.0,
      "Rows": 900,
      "SAR": 0.06573117809029,
      "SamplesPerPixel": 1,
      "ScanOptions": "FS",
      "ScanningSequence": "EP",
      "SequenceName": "*epfid2d1_100",
      "SequenceVariant": "SK",
      "SeriesDescription": "bold_100x100_s3_2x2x2_static_156",
      "SeriesNumber": 13,
      "SeriesTime": "111224.821000",
      "SliceLocation": -64.239760567648,
      "SliceThickness": 2.0,
      "SmallestImagePixelValue": 0,
      "SoftwareVersions": "syngo MR E11",
      "SpacingBetweenSlices": 2.000000014055,
      "SpecificCharacterSet": "ISO_IR 100",
      "StudyID": "1",
      "StudyTime": "101525.906000",
      "TransmitCoilName": "Body",
      "VariableFlipAngleFlag": "N",
      "WindowCenterWidthExplanation": "Algo1",
      "dBdt": 0.0},
    "slices": {}
  },
  "time": {
    "samples": {
      "AcquisitionNumber": [1, 2, 3, 4, 5, 6, 7, 8, 9, 10, 11, 12, 13, 14, 15, 16, 17, 18, 19, 20, 21, 22, 23, 24, 25, 26, 27, 28, 29, 30, 31, 32, 33, 34, 35, 36, 37, 38, 39, 40, 41, 42, 43, 44, 45, 46, 47, 48, 49, 50, 51, 52, 53, 54, 55, 56, 57, 58, 59, 60, 61, 62, 63, 64, 65, 66, 67, 68, 69, 70, 71, 72, 73, 74, 75, 76, 77, 78, 79, 80, 81, 82, 83, 84, 85, 86, 87, 88, 89, 90, 91, 92, 93, 94, 95, 96, 97, 98, 99, 100, 101, 102, 103, 104, 105, 106, 107, 108, 109, 110, 111, 112, 113, 114, 115, 116, 117, 118, 119, 120, 121, 122, 123, 124, 125, 126, 127, 128, 129, 130, 131, 132, 133, 134, 135, 136, 137, 138, 139, 140, 141, 142, 143, 144, 145, 146, 147, 148, 149, 150, 151, 152, 153, 154, 155, 156],
      "AcquisitionTime": ["111222.627500", "111224.627500", "111226.627500", "111228.627500", "111230.627500", "111232.627500", "111234.627500", "111236.627500", "111238.627500", "111240.627500", "111242.627500", "111244.627500", "111246.627500", "111248.627500", "111250.627500", "111252.627500", "111254.627500", "111256.627500", "111258.627500", "111300.627500", "111302.627500", "111304.627500", "111306.627500", "111308.627500", "111310.627500", "111312.627500", "111314.627500", "111316.627500", "111318.627500", "111320.627500", "111322.627500", "111324.627500", "111326.627500", "111328.627500", "111330.627500", "111332.627500", "111334.627500", "111336.627500", "111338.627500", "111340.627500", "111342.627500", "111344.627500", "111346.627500", "111348.627500", "111350.627500", "111352.627500", "111354.627500", "111356.627500", "111358.627500", "111400.627500", "111402.627500", "111404.627500", "111406.627500", "111408.627500", "111410.627500", "111412.627500", "111414.627500", "111416.627500", "111418.627500", "111420.627500", "111422.627500", "111424.627500", "111426.627500", "111428.627500", "111430.627500", "111432.627500", "111434.627500", "111436.627500", "111438.627500", "111440.627500", "111442.627500", "111444.627500", "111446.627500", "111448.627500", "111450.627500", "111452.627500", "111454.627500", "111456.627500", "111458.627500", "111500.627500", "111502.627500", "111504.627500", "111506.627500", "111508.627500", "111510.627500", "111512.627500", "111514.627500", "111516.627500", "111518.627500", "111520.627500", "111522.627500", "111524.627500", "111526.627500", "111528.627500", "111530.627500", "111532.627500", "111534.627500", "111536.627500", "111538.627500", "111540.627500", "111542.627500", "111544.627500", "111546.627500", "111548.627500", "111550.627500", "111552.627500", "111554.627500", "111556.627500", "111558.627500", "111600.627500", "111602.627500", "111604.627500", "111606.627500", "111608.627500", "111610.627500", "111612.627500", "111614.627500", "111616.627500", "111618.627500", "111620.627500", "111622.627500", "111624.627500", "111626.627500", "111628.627500", "111630.627500", "111632.627500", "111634.627500", "111636.627500", "111638.627500", "111640.627500", "111642.627500", "111644.627500", "111646.627500", "111648.627500", "111650.627500", "111652.627500", "111654.627500", "111656.627500", "111658.627500", "111700.627500", "111702.627500", "111704.627500", "111706.627500", "111708.627500", "111710.627500", "111712.627500", "111714.627500", "111716.627500", "111718.627500", "111720.627500", "111722.627500", "111724.627500", "111726.627500", "111728.627500", "111730.627500", "111732.627500"],
      "ContentTime": ["111224.825000", "111226.301000", "111228.302000", "111230.301000", "111232.300000", "111234.300000", "111236.301000", "111238.300000", "111240.300000", "111242.301000", "111244.301000", "111246.301000", "111248.300000", "111250.301000", "111252.301000", "111254.301000", "111256.301000", "111258.300000", "111300.302000", "111302.302000", "111304.300000", "111306.300000", "111308.300000", "111310.301000", "111312.300000", "111314.301000", "111316.300000", "111318.302000", "111320.301000", "111322.300000", "111324.301000", "111326.301000", "111328.301000", "111330.300000", "111332.300000", "111334.300000", "111336.302000", "111338.302000", "111340.300000", "111342.300000", "111344.300000", "111346.301000", "111348.301000", "111350.300000", "111352.301000", "111354.302000", "111356.300000", "111358.301000", "111400.300000", "111402.300000", "111404.300000", "111406.301000", "111408.300000", "111410.302000", "111412.302000", "111414.301000", "111416.301000", "111418.301000", "111420.300000", "111422.300000", "111424.301000", "111426.301000", "111428.302000", "111430.302000", "111432.300000", "111434.301000", "111436.300000", "111438.301000", "111440.300000", "111442.300000", "111444.300000", "111446.302000", "111448.301000", "111450.301000", "111452.301000", "111454.300000", "111456.301000", "111458.301000", "111500.300000", "111502.300000", "111504.301000", "111506.301000", "111508.300000", "111510.301000", "111512.300000", "111514.301000", "111516.301000", "111518.300000", "111520.302000", "111522.302000", "111524.300000", "111526.300000", "111528.300000", "111530.300000", "111532.300000", "111534.300000", "111536.301000", "111538.302000", "111540.301000", "111542.300000", "111544.301000", "111546.301000", "111548.300000", "111550.300000", "111552.300000", "111554.300000", "111556.301000", "111558.302000", "111600.301000", "111602.300000", "111604.300000", "111606.301000", "111608.301000", "111610.320000", "111612.301000", "111614.301000", "111616.301000", "111618.300000", "111620.300000", "111622.300000", "111624.301000", "111626.300000", "111628.300000", "111630.302000", "111632.301000", "111634.301000", "111636.301000", "111638.301000", "111640.301000", "111642.300000", "111644.300000", "111646.300000", "111648.302000", "111650.301000", "111652.301000", "111654.301000", "111656.301000", "111658.301000", "111700.301000", "111702.301000", "111704.300000", "111706.302000", "111708.302000", "111710.301000", "111712.301000", "111714.300000", "111716.300000", "111718.300000", "111720.301000", "111722.301000", "111724.301000", "111726.301000", "111728.301000", "111730.301000", "111732.301000", "111733.924000"],
      "InstanceCreationTime": ["111224.825000", "111226.301000", "111228.302000", "111230.301000", "111232.300000", "111234.300000", "111236.301000", "111238.300000", "111240.300000", "111242.301000", "111244.301000", "111246.301000", "111248.300000", "111250.301000", "111252.301000", "111254.301000", "111256.301000", "111258.300000", "111300.302000", "111302.302000", "111304.300000", "111306.300000", "111308.300000", "111310.301000", "111312.300000", "111314.301000", "111316.300000", "111318.302000", "111320.301000", "111322.300000", "111324.301000", "111326.301000", "111328.301000", "111330.300000", "111332.300000", "111334.300000", "111336.302000", "111338.302000", "111340.300000", "111342.300000", "111344.300000", "111346.301000", "111348.301000", "111350.300000", "111352.301000", "111354.302000", "111356.300000", "111358.301000", "111400.300000", "111402.300000", "111404.300000", "111406.301000", "111408.300000", "111410.302000", "111412.302000", "111414.301000", "111416.301000", "111418.301000", "111420.300000", "111422.300000", "111424.301000", "111426.301000", "111428.302000", "111430.302000", "111432.300000", "111434.301000", "111436.300000", "111438.301000", "111440.300000", "111442.300000", "111444.300000", "111446.302000", "111448.301000", "111450.301000", "111452.301000", "111454.300000", "111456.301000", "111458.301000", "111500.300000", "111502.300000", "111504.301000", "111506.301000", "111508.300000", "111510.301000", "111512.300000", "111514.301000", "111516.301000", "111518.300000", "111520.302000", "111522.302000", "111524.300000", "111526.300000", "111528.300000", "111530.300000", "111532.300000", "111534.300000", "111536.301000", "111538.302000", "111540.301000", "111542.300000", "111544.301000", "111546.301000", "111548.300000", "111550.300000", "111552.300000", "111554.300000", "111556.301000", "111558.302000", "111600.301000", "111602.300000", "111604.300000", "111606.301000", "111608.301000", "111610.320000", "111612.301000", "111614.301000", "111616.301000", "111618.300000", "111620.300000", "111622.300000", "111624.301000", "111626.300000", "111628.300000", "111630.302000", "111632.301000", "111634.301000", "111636.301000", "111638.301000", "111640.301000", "111642.300000", "111644.300000", "111646.300000", "111648.302000", "111650.301000", "111652.301000", "111654.301000", "111656.301000", "111658.301000", "111700.301000", "111702.301000", "111704.300000", "111706.302000", "111708.302000", "111710.301000", "111712.301000", "111714.300000", "111716.300000", "111718.300000", "111720.301000", "111722.301000", "111724.301000", "111726.301000", "111728.301000", "111730.301000", "111732.301000", "111733.924000"],
      "InstanceNumber": [1, 2, 3, 4, 5, 6, 7, 8, 9, 10, 11, 12, 13, 14, 15, 16, 17, 18, 19, 20, 21, 22, 23, 24, 25, 26, 27, 28, 29, 30, 31, 32, 33, 34, 35, 36, 37, 38, 39, 40, 41, 42, 43, 44, 45, 46, 47, 48, 49, 50, 51, 52, 53, 54, 55, 56, 57, 58, 59, 60, 61, 62, 63, 64, 65, 66, 67, 68, 69, 70, 71, 72, 73, 74, 75, 76, 77, 78, 79, 80, 81, 82, 83, 84, 85, 86, 87, 88, 89, 90, 91, 92, 93, 94, 95, 96, 97, 98, 99, 100, 101, 102, 103, 104, 105, 106, 107, 108, 109, 110, 111, 112, 113, 114, 115, 116, 117, 118, 119, 120, 121, 122, 123, 124, 125, 126, 127, 128, 129, 130, 131, 132, 133, 134, 135, 136, 137, 138, 139, 140, 141, 142, 143, 144, 145, 146, 147, 148, 149, 150, 151, 152, 153, 154, 155, 156],
      "LargestImagePixelValue": [2967, 2912, 2888, 2893, 2890, 2916, 2882, 2889, 2903, 2895, 2896, 2908, 2907, 2902, 2921, 2964, 2914, 2909, 2904, 2912, 2914, 2917, 2919, 2925, 2886, 2914, 2881, 2912, 2934, 2931, 2937, 2946, 2946, 2932, 2925, 2926, 2929, 2897, 2951, 2914, 2930, 2918, 2935, 2937, 2941, 2938, 2947, 2946, 2919, 2956, 2927, 2963, 2927, 2940, 2939, 2955, 2931, 2932, 2925, 2957, 2936, 2948, 2885, 2910, 2907, 2911, 2904, 2939, 2942, 2916, 2901, 2947, 2905, 2908, 2912, 2903, 2944, 2960, 2923, 2923, 2907, 2974, 2929, 2929, 2926, 2896, 2967, 2981, 2942, 2979, 2960, 2904, 2936, 2994, 2969, 2928, 2935, 2940, 2986, 2962, 2985, 2972, 2951, 2988, 2970, 2969, 3036, 2994, 2957, 2976, 2991, 2932, 2980, 2989, 2936, 2953, 2973, 2992, 2942, 2902, 2965, 2917, 2950, 2901, 2947, 2978, 2972, 2947, 2943, 2938, 2918, 2930, 2994, 2952, 2966, 2977, 2954, 2960, 2955, 2993, 2964, 2950, 2932, 2933, 2937, 2900, 2943, 2968, 2954, 2949, 2942, 2988, 2953, 2927, 3003, 3018],
      "WindowCenter": [746.0, 744.0, 743.0, 744.0, 744.0, 745.0, 744.0, 744.0, 744.0, 744.0, 743.0, 743.0, 743.0, 742.0, 743.0, 746.0, 746.0, 744.0, 743.0, 742.0, 742.0, 743.0, 743.0, 744.0, 742.0, 743.0, 742.0, 741.0, 742.0, 742.0, 742.0, 741.0, 742.0, 742.0, 741.0, 741.0, 741.0, 742.0, 742.0, 741.0, 742.0, 741.0, 741.0, 741.0, 740.0, 740.0, 740.0, 740.0, 740.0, 740.0, 739.0, 739.0, 740.0, 740.0, 740.0, 742.0, 741.0, 742.0, 741.0, 742.0, 741.0, 741.0, 740.0, 742.0, 742.0, 742.0, 739.0, 739.0, 741.0, 740.0, 740.0, 741.0, 741.0, 739.0, 739.0, 739.0, 742.0, 741.0, 740.0, 740.0, 740.0, 740.0, 740.0, 741.0, 741.0, 741.0, 742.0, 742.0, 741.0, 742.0, 741.0, 743.0, 745.0, 744.0, 741.0, 741.0, 742.0, 741.0, 741.0, 742.0, 744.0, 743.0, 743.0, 743.0, 743.0, 742.0, 743.0, 743.0, 745.0, 745.0, 744.0, 741.0, 739.0, 739.0, 737.0, 739.0, 741.0, 742.0, 739.0, 740.0, 742.0, 742.0, 742.0, 739.0, 740.0, 741.0, 739.0, 739.0, 742.0, 742.0, 740.0, 740.0, 742.0, 742.0, 741.0, 741.0, 742.0, 742.0, 744.0, 746.0, 745.0, 742.0, 740.0, 739.0, 739.0, 740.0, 743.0, 743.0, 741.0, 740.0, 740.0, 741.0, 741.0, 743.0, 746.0, 745.0],
      "WindowWidth": [1613.0, 1606.0, 1604.0, 1607.0, 1607.0, 1609.0, 1607.0, 1606.0, 1605.0, 1605.0, 1604.0, 1603.0, 1603.0, 1601.0, 1604.0, 1611.0, 1612.0, 1607.0, 1603.0, 1600.0, 1602.0, 1605.0, 1606.0, 1606.0, 1603.0, 1605.0, 1601.0, 1600.0, 1601.0, 1602.0, 1600.0, 1600.0, 1601.0, 1602.0, 1600.0, 1600.0, 1600.0, 1601.0, 1602.0, 1599.0, 1600.0, 1598.0, 1599.0, 1600.0, 1597.0, 1597.0, 1597.0, 1597.0, 1597.0, 1597.0, 1594.0, 1594.0, 1596.0, 1597.0, 1597.0, 1601.0, 1600.0, 1601.0, 1599.0, 1601.0, 1598.0, 1600.0, 1597.0, 1601.0, 1601.0, 1600.0, 1594.0, 1594.0, 1598.0, 1598.0, 1597.0, 1599.0, 1598.0, 1593.0, 1593.0, 1593.0, 1601.0, 1598.0, 1596.0, 1596.0, 1597.0, 1596.0, 1595.0, 1598.0, 1599.0, 1600.0, 1601.0, 1602.0, 1599.0, 1601.0, 1600.0, 1603.0, 1611.0, 1608.0, 1598.0, 1597.0, 1600.0, 1598.0, 1598.0, 1602.0, 1607.0, 1603.0, 1603.0, 1603.0, 1603.0, 1602.0, 1604.0, 1604.0, 1608.0, 1608.0, 1605.0, 1597.0, 1594.0, 1592.0, 1589.0, 1594.0, 1598.0, 1601.0, 1595.0, 1597.0, 1601.0, 1600.0, 1601.0, 1594.0, 1597.0, 1599.0, 1593.0, 1594.0, 1600.0, 1600.0, 1595.0, 1597.0, 1601.0, 1600.0, 1598.0, 1599.0, 1600.0, 1602.0, 1607.0, 1611.0, 1609.0, 1601.0, 1594.0, 1593.0, 1593.0, 1595.0, 1605.0, 1605.0, 1597.0, 1595.0, 1596.0, 1597.0, 1598.0, 1604.0, 1611.0, 1609.0]
    },
    "slices": {}
  }
}