{
  "AcquisitionMatrixPE": 100,
  "AcquisitionNumber": 1,
  "AcquisitionTime": "11:24:33.262500",
  "BandwidthPerPixelPhaseEncode": 18.519,
  "BaseResolution": 100,
  "BodyPartExamined": "BRAIN",
  "CoilCombinationMethod": "Sum of Squares",
  "ConsistencyInfo": "N4_VE11C_LATEST_20160120",
  "ConversionSoftware": "dcm2niix",
  "ConversionSoftwareVersion": "v1.0.20211006",
  "DerivedVendorReportedEchoSpacing": 0.000539986,
  "DeviceSerialNumber": "166078",
  "DwellTime": 2.1e-06,
  "EchoTime": 0.034,
  "EchoTrainLength": 100,
  "EffectiveEchoSpacing": 0.000539986,
  "FlipAngle": 90,
  "ImageOrientationPatientDICOM": [1, 0, 0, 0, 0.982287, -0.187381],
  "ImageOrientationText": "Tra>Cor(-10.8)",
  "ImageType": [
    "ORIGINAL",
    "PRIMARY",
    "M",
    "ND",
    "MOSAIC"
],
  "ImagingFrequency": 123.258,
  "InPlanePhaseEncodingDirectionDICOM": "COL",
  "InstitutionAddress": "Street StreetNo,Bei Jing,District,CN,ZIP",
  "InstitutionName": "BeiJing Normal University",
  "InstitutionalDepartmentName": "Department",
  "MRAcquisitionType": "2D",
  "MagneticFieldStrength": 3,
  "Manufacturer": "Siemens",
  "ManufacturersModelName": "Prisma",
  "Modality": "MR",
  "MultibandAccelerationFactor": 3,
  "PartialFourier": 1,
  "PatientPosition": "HFS",
  "PercentPhaseFOV": 100,
  "PercentSampling": 100,
  "PhaseEncodingDirection": "j-",
  "PhaseEncodingSteps": 100,
  "PhaseResolution": 1,
  "PixelBandwidth": 2380,
  "ProcedureStepDescription": "BNU_P2018_64CH^Zhen.ZongLei",
  "ProtocolName": "bold_100x100_s3_2x2x2_static_156",
  "PulseSequenceDetails": "%SiemensSeq%\\ep2d_bold",
  "ReceiveCoilActiveElements": "HC1-7;NC1",
  "ReceiveCoilName": "HeadNeck_64",
  "ReconMatrixPE": 100,
  "RefLinesPE": 32,
  "RepetitionTime": 2,
  "SAR": 0.0657312,
  "ScanOptions": "FS",
  "ScanningSequence": "EP",
  "SequenceName": "*epfid2d1_100",
  "SequenceVariant": "SK",
  "SeriesDescription": "bold_100x100_s3_2x2x2_static_156",
  "SeriesNumber": 15,
  "ShimSetting": [-5449, -11519, -1240, 401, 12, -122, -268, 48],
  "SliceThickness": 2,
  "SliceTiming": [1.4825, 0, 0.9875, 0.0825, 1.07, 0.165, 1.1525, 0.2475, 1.235, 0.3275, 1.3175, 0.41, 1.4, 0.575, 1.565, 0.6575, 1.6475, 0.74, 1.73, 0.8225, 1.8125, 0.905, 1.895, 0.4925, 1.4825, 0, 0.9875, 0.0825, 1.07, 0.165, 1.1525, 0.2475, 1.235, 0.3275, 1.3175, 0.41, 1.4, 0.575, 1.565, 0.6575, 1.6475, 0.74, 1.73, 0.8225, 1.8125, 0.905, 1.895, 0.4925, 1.4825, 0, 0.9875, 0.0825, 1.07, 0.165, 1.1525, 0.2475, 1.235, 0.3275, 1.3175, 0.41, 1.4, 0.575, 1.565, 0.6575, 1.6475, 0.74, 1.73, 0.8225, 1.8125, 0.905, 1.895, 0.4925],
  "SoftwareVersions": "syngo MR E11",
  "SpacingBetweenSlices": 2,
  "StationName": "AWP166078",
  "TaskName": "action",
  "TotalReadoutTime": 0.0534586,
  "TxRefAmp": 217.597,
  "dcmmeta_affine": [
    [-2.0, 0.0, 0.0, 101.3559341430664],
    [0.0, 1.9645744562149048, -0.374762624502182, -76.79542541503906],
    [0.0, 0.374762624502182, 1.9645744562149048, -80.04765319824219],
    [0.0, 0.0, 0.0, 1.0]
],
  "dcmmeta_reorient_transform": [
    [0.0, -1.0, 0.0, 99.0],
    [1.0, 0.0, 0.0, 0.0],
    [0.0, 0.0, 1.0, 0.0],
    [0.0, 0.0, 0.0, 1.0]
],
  "dcmmeta_shape": [100, 100, 72, 156],
  "dcmmeta_slice_dim": 2,
  "dcmmeta_version": 0.6,
  "global": {
    "const": {
      "AcquisitionMatrix": [100, 0, 0, 100],
      "AngioFlag": "N",
      "BitsAllocated": 16,
      "BitsStored": 12,
      "BodyPartExamined": "BRAIN",
      "Columns": 900,
      "EchoNumbers": 1,
      "EchoTime": 34.0,
      "EchoTrainLength": 100,
      "FlipAngle": 90.0,
      "HighBit": 11,
      "ImageOrientationPatient": [1.0, 0.0, 0.0, 0.0, 0.98228725047307, -0.1873813159257],
      "ImagePositionPatient": [-901.35593223572, -903.52724681553, 106.95890012293],
      "ImageType": [
        "ORIGINAL",
        "PRIMARY",
        "M",
        "ND",
        "MOSAIC"
],
      "ImagedNucleus": "1H",
      "ImagingFrequency": 123.257727,
      "InPlanePhaseEncodingDirection": "COL",
      "MRAcquisitionType": "2D",
      "MagneticFieldStrength": 3.0,
      "Manufacturer": "SIEMENS",
      "ManufacturerModelName": "Prisma",
      "Modality": "MR",
      "NumberOfAverages": 1.0,
      "NumberOfPhaseEncodingSteps": 100,
      "PercentPhaseFieldOfView": 100.0,
      "PercentSampling": 100.0,
      "PerformedProcedureStepStartTime": "101525.996000",
      "PhotometricInterpretation": "MONOCHROME2",
      "PixelBandwidth": 2380.0,
      "PixelRepresentation": 0,
      "PixelSpacing": [2.0, 2.0],
      "ProtocolName": "bold_100x100_s3_2x2x2_static_156",
      "RepetitionTime": 2000.0,
      "Rows": 900,
      "SAR": 0.06573117809029,
      "SamplesPerPixel": 1,
      "ScanOptions": "FS",
      "ScanningSequence": "EP",
      "SequenceName": "*epfid2d1_100",
      "SequenceVariant": "SK",
      "SeriesDescription": "bold_100x100_s3_2x2x2_static_156",
      "SeriesNumber": 15,
      "SeriesTime": "112436.209000",
      "SliceLocation": -64.239760567648,
      "SliceThickness": 2.0,
      "SmallestImagePixelValue": 0,
      "SoftwareVersions": "syngo MR E11",
      "SpacingBetweenSlices": 2.000000014055,
      "SpecificCharacterSet": "ISO_IR 100",
      "StudyID": "1",
      "StudyTime": "101525.906000",
      "TransmitCoilName": "Body",
      "VariableFlipAngleFlag": "N",
      "WindowCenterWidthExplanation": "Algo1",
      "dBdt": 0.0},
    "slices": {}
  },
  "time": {
    "samples": {
      "AcquisitionNumber": [1, 2, 3, 4, 5, 6, 7, 8, 9, 10, 11, 12, 13, 14, 15, 16, 17, 18, 19, 20, 21, 22, 23, 24, 25, 26, 27, 28, 29, 30, 31, 32, 33, 34, 35, 36, 37, 38, 39, 40, 41, 42, 43, 44, 45, 46, 47, 48, 49, 50, 51, 52, 53, 54, 55, 56, 57, 58, 59, 60, 61, 62, 63, 64, 65, 66, 67, 68, 69, 70, 71, 72, 73, 74, 75, 76, 77, 78, 79, 80, 81, 82, 83, 84, 85, 86, 87, 88, 89, 90, 91, 92, 93, 94, 95, 96, 97, 98, 99, 100, 101, 102, 103, 104, 105, 106, 107, 108, 109, 110, 111, 112, 113, 114, 115, 116, 117, 118, 119, 120, 121, 122, 123, 124, 125, 126, 127, 128, 129, 130, 131, 132, 133, 134, 135, 136, 137, 138, 139, 140, 141, 142, 143, 144, 145, 146, 147, 148, 149, 150, 151, 152, 153, 154, 155, 156],
      "AcquisitionTime": ["112433.262500", "112435.262500", "112437.262500", "112439.262500", "112441.262500", "112443.262500", "112445.262500", "112447.262500", "112449.262500", "112451.262500", "112453.262500", "112455.262500", "112457.262500", "112459.262500", "112501.262500", "112503.262500", "112505.262500", "112507.262500", "112509.262500", "112511.262500", "112513.262500", "112515.262500", "112517.262500", "112519.262500", "112521.262500", "112523.262500", "112525.262500", "112527.262500", "112529.262500", "112531.262500", "112533.262500", "112535.262500", "112537.262500", "112539.262500", "112541.262500", "112543.262500", "112545.262500", "112547.262500", "112549.262500", "112551.262500", "112553.262500", "112555.262500", "112557.262500", "112559.262500", "112601.262500", "112603.262500", "112605.262500", "112607.262500", "112609.262500", "112611.262500", "112613.262500", "112615.262500", "112617.262500", "112619.262500", "112621.262500", "112623.262500", "112625.262500", "112627.262500", "112629.262500", "112631.262500", "112633.262500", "112635.262500", "112637.262500", "112639.262500", "112641.262500", "112643.262500", "112645.262500", "112647.262500", "112649.262500", "112651.262500", "112653.262500", "112655.262500", "112657.262500", "112659.262500", "112701.262500", "112703.262500", "112705.262500", "112707.262500", "112709.262500", "112711.262500", "112713.262500", "112715.262500", "112717.262500", "112719.262500", "112721.262500", "112723.262500", "112725.262500", "112727.262500", "112729.262500", "112731.262500", "112733.262500", "112735.262500", "112737.262500", "112739.262500", "112741.262500", "112743.262500", "112745.262500", "112747.262500", "112749.262500", "112751.262500", "112753.262500", "112755.262500", "112757.262500", "112759.262500", "112801.262500", "112803.262500", "112805.262500", "112807.262500", "112809.262500", "112811.262500", "112813.262500", "112815.262500", "112817.262500", "112819.262500", "112821.262500", "112823.262500", "112825.262500", "112827.262500", "112829.262500", "112831.262500", "112833.262500", "112835.262500", "112837.262500", "112839.262500", "112841.262500", "112843.262500", "112845.262500", "112847.262500", "112849.262500", "112851.262500", "112853.262500", "112855.262500", "112857.262500", "112859.262500", "112901.262500", "112903.262500", "112905.262500", "112907.262500", "112909.262500", "112911.262500", "112913.262500", "112915.262500", "112917.262500", "112919.262500", "112921.262500", "112923.262500", "112925.262500", "112927.262500", "112929.262500", "112931.262500", "112933.262500", "112935.262500", "112937.262500", "112939.262500", "112941.262500", "112943.262500"],
      "ContentTime": ["112436.213000", "112437.708000", "112439.710000", "112441.709000", "112443.709000", "112445.708000", "112447.708000", "112449.708000", "112451.708000", "112453.708000", "112455.708000", "112457.709000", "112459.710000", "112501.709000", "112503.708000", "112505.708000", "112507.709000", "112509.708000", "112511.708000", "112513.708000", "112515.709000", "112517.710000", "112519.710000", "112521.709000", "112523.709000", "112525.708000", "112527.708000", "112529.708000", "112531.708000", "112533.709000", "112535.709000", "112537.710000", "112539.709000", "112541.708000", "112543.708000", "112545.709000", "112547.709000", "112549.709000", "112551.710000", "112553.709000", "112555.709000", "112557.709000", "112559.708000", "112601.709000", "112603.709000", "112605.708000", "112607.710000", "112609.710000", "112611.709000", "112613.708000", "112615.708000", "112617.709000", "112619.709000", "112621.708000", "112623.708000", "112625.710000", "112627.709000", "112629.709000", "112631.708000", "112633.709000", "112635.709000", "112637.708000", "112639.708000", "112641.708000", "112643.710000", "112645.709000", "112647.709000", "112649.709000", "112651.708000", "112653.708000", "112655.708000", "112657.708000", "112659.710000", "112701.710000", "112703.710000", "112705.708000", "112707.708000", "112709.709000", "112711.708000", "112713.708000", "112715.709000", "112717.710000", "112719.710000", "112721.710000", "112723.708000", "112725.708000", "112727.709000", "112729.709000", "112731.708000", "112733.708000", "112735.709000", "112737.709000", "112739.710000", "112741.708000", "112743.708000", "112745.709000", "112747.708000", "112749.709000", "112751.709000", "112753.709000", "112755.709000", "112757.710000", "112759.708000", "112801.708000", "112803.709000", "112805.708000", "112807.708000", "112809.709000", "112811.709000", "112813.710000", "112815.709000", "112817.709000", "112819.709000", "112821.709000", "112823.708000", "112825.708000", "112827.709000", "112829.710000", "112831.710000", "112833.709000", "112835.708000", "112837.709000", "112839.708000", "112841.708000", "112843.709000", "112845.709000", "112847.710000", "112849.709000", "112851.708000", "112853.709000", "112855.708000", "112857.709000", "112859.708000", "112901.709000", "112903.710000", "112905.710000", "112907.709000", "112909.708000", "112911.709000", "112913.709000", "112915.709000", "112917.709000", "112919.710000", "112921.710000", "112923.710000", "112925.709000", "112927.708000", "112929.709000", "112931.709000", "112933.709000", "112935.709000", "112937.710000", "112939.710000", "112941.710000", "112943.709000", "112945.387000"],
      "InstanceCreationTime": ["112436.213000", "112437.708000", "112439.710000", "112441.709000", "112443.709000", "112445.708000", "112447.708000", "112449.708000", "112451.708000", "112453.708000", "112455.708000", "112457.709000", "112459.710000", "112501.709000", "112503.708000", "112505.708000", "112507.709000", "112509.708000", "112511.708000", "112513.708000", "112515.709000", "112517.710000", "112519.710000", "112521.709000", "112523.709000", "112525.708000", "112527.708000", "112529.708000", "112531.708000", "112533.709000", "112535.709000", "112537.710000", "112539.709000", "112541.708000", "112543.708000", "112545.709000", "112547.709000", "112549.709000", "112551.710000", "112553.709000", "112555.709000", "112557.709000", "112559.708000", "112601.709000", "112603.709000", "112605.708000", "112607.710000", "112609.710000", "112611.709000", "112613.708000", "112615.708000", "112617.709000", "112619.709000", "112621.708000", "112623.708000", "112625.710000", "112627.709000", "112629.709000", "112631.708000", "112633.709000", "112635.709000", "112637.708000", "112639.708000", "112641.708000", "112643.710000", "112645.709000", "112647.709000", "112649.709000", "112651.708000", "112653.708000", "112655.708000", "112657.708000", "112659.710000", "112701.710000", "112703.710000", "112705.708000", "112707.708000", "112709.709000", "112711.708000", "112713.708000", "112715.709000", "112717.710000", "112719.710000", "112721.710000", "112723.708000", "112725.708000", "112727.709000", "112729.709000", "112731.708000", "112733.708000", "112735.709000", "112737.709000", "112739.710000", "112741.708000", "112743.708000", "112745.709000", "112747.708000", "112749.709000", "112751.709000", "112753.709000", "112755.709000", "112757.710000", "112759.708000", "112801.708000", "112803.709000", "112805.708000", "112807.708000", "112809.709000", "112811.709000", "112813.710000", "112815.709000", "112817.709000", "112819.709000", "112821.709000", "112823.708000", "112825.708000", "112827.709000", "112829.710000", "112831.710000", "112833.709000", "112835.708000", "112837.709000", "112839.708000", "112841.708000", "112843.709000", "112845.709000", "112847.710000", "112849.709000", "112851.708000", "112853.709000", "112855.708000", "112857.709000", "112859.708000", "112901.709000", "112903.710000", "112905.710000", "112907.709000", "112909.708000", "112911.709000", "112913.709000", "112915.709000", "112917.709000", "112919.710000", "112921.710000", "112923.710000", "112925.709000", "112927.708000", "112929.709000", "112931.709000", "112933.709000", "112935.709000", "112937.710000", "112939.710000", "112941.710000", "112943.709000", "112945.387000"],
      "InstanceNumber": [1, 2, 3, 4, 5, 6, 7, 8, 9, 10, 11, 12, 13, 14, 15, 16, 17, 18, 19, 20, 21, 22, 23, 24, 25, 26, 27, 28, 29, 30, 31, 32, 33, 34, 35, 36, 37, 38, 39, 40, 41, 42, 43, 44, 45, 46, 47, 48, 49, 50, 51, 52, 53, 54, 55, 56, 57, 58, 59, 60, 61, 62, 63, 64, 65, 66, 67, 68, 69, 70, 71, 72, 73, 74, 75, 76, 77, 78, 79, 80, 81, 82, 83, 84, 85, 86, 87, 88, 89, 90, 91, 92, 93, 94, 95, 96, 97, 98, 99, 100, 101, 102, 103, 104, 105, 106, 107, 108, 109, 110, 111, 112, 113, 114, 115, 116, 117, 118, 119, 120, 121, 122, 123, 124, 125, 126, 127, 128, 129, 130, 131, 132, 133, 134, 135, 136, 137, 138, 139, 140, 141, 142, 143, 144, 145, 146, 147, 148, 149, 150, 151, 152, 153, 154, 155, 156],
      "LargestImagePixelValue": [3022, 2984, 3018, 3035, 2992, 3013, 3021, 2990, 3019, 2997, 3007, 3000, 3017, 2997, 3033, 3031, 3004, 3051, 3018, 3005, 2998, 2983, 3002, 2999, 3018, 3020, 3007, 2986, 3016, 2968, 2977, 2994, 2981, 3011, 3010, 3012, 3010, 3016, 3026, 3019, 3029, 2988, 2997, 3019, 2959, 2970, 2969, 2993, 2989, 3009, 3071, 3040, 2998, 3015, 2986, 2969, 3006, 3003, 3012, 2989, 2983, 2989, 2941, 2966, 2996, 2996, 3020, 3018, 3004, 2983, 2964, 2982, 2969, 2973, 2972, 2989, 2970, 2984, 2952, 2987, 2967, 2994, 2990, 3006, 2999, 3032, 2996, 2916, 2947, 2943, 2946, 2970, 2962, 2954, 2951, 2981, 2955, 3007, 2952, 2928, 2972, 2948, 2939, 2935, 2988, 3024, 3007, 2983, 2985, 2951, 2963, 2945, 2975, 2946, 2919, 2944, 2948, 2971, 3005, 2987, 2965, 2983, 2980, 2976, 2990, 3018, 3007, 2968, 2956, 2957, 2967, 2998, 2913, 2911, 2936, 2951, 2938, 2960, 2980, 2943, 2988, 2950, 3012, 3023, 2946, 2980, 2954, 2959, 2954, 2948, 2940, 2945, 2977, 2941, 2952, 2935],
      "WindowCenter": [742.0, 741.0, 743.0, 743.0, 742.0, 741.0, 741.0, 740.0, 741.0, 741.0, 741.0, 741.0, 742.0, 741.0, 741.0, 741.0, 741.0, 741.0, 742.0, 741.0, 741.0, 741.0, 741.0, 742.0, 743.0, 743.0, 741.0, 741.0, 740.0, 739.0, 738.0, 738.0, 740.0, 741.0, 742.0, 742.0, 741.0, 740.0, 740.0, 740.0, 741.0, 741.0, 742.0, 742.0, 742.0, 742.0, 741.0, 741.0, 742.0, 743.0, 743.0, 742.0, 740.0, 740.0, 739.0, 739.0, 739.0, 739.0, 740.0, 740.0, 740.0, 740.0, 739.0, 739.0, 741.0, 743.0, 744.0, 742.0, 741.0, 740.0, 739.0, 739.0, 738.0, 739.0, 741.0, 741.0, 742.0, 742.0, 741.0, 742.0, 743.0, 743.0, 744.0, 745.0, 744.0, 744.0, 741.0, 738.0, 738.0, 737.0, 739.0, 741.0, 741.0, 740.0, 739.0, 740.0, 743.0, 743.0, 741.0, 740.0, 740.0, 740.0, 740.0, 740.0, 742.0, 743.0, 742.0, 741.0, 740.0, 739.0, 738.0, 737.0, 738.0, 739.0, 741.0, 742.0, 743.0, 745.0, 745.0, 745.0, 743.0, 741.0, 741.0, 741.0, 743.0, 745.0, 743.0, 741.0, 740.0, 740.0, 739.0, 738.0, 736.0, 737.0, 738.0, 740.0, 742.0, 742.0, 743.0, 742.0, 743.0, 744.0, 744.0, 743.0, 741.0, 740.0, 739.0, 740.0, 741.0, 741.0, 739.0, 741.0, 742.0, 741.0, 742.0, 741.0],
      "WindowWidth": [1600.0, 1599.0, 1603.0, 1604.0, 1601.0, 1598.0, 1597.0, 1596.0, 1597.0, 1597.0, 1598.0, 1598.0, 1599.0, 1597.0, 1599.0, 1598.0, 1598.0, 1599.0, 1600.0, 1598.0, 1598.0, 1596.0, 1598.0, 1602.0, 1604.0, 1602.0, 1599.0, 1599.0, 1596.0, 1592.0, 1589.0, 1591.0, 1596.0, 1599.0, 1599.0, 1601.0, 1598.0, 1596.0, 1596.0, 1597.0, 1598.0, 1598.0, 1600.0, 1601.0, 1600.0, 1601.0, 1597.0, 1598.0, 1601.0, 1603.0, 1603.0, 1600.0, 1595.0, 1595.0, 1592.0, 1592.0, 1593.0, 1593.0, 1595.0, 1594.0, 1596.0, 1595.0, 1593.0, 1592.0, 1597.0, 1603.0, 1605.0, 1600.0, 1597.0, 1595.0, 1593.0, 1594.0, 1590.0, 1592.0, 1599.0, 1599.0, 1600.0, 1600.0, 1599.0, 1601.0, 1603.0, 1605.0, 1607.0, 1608.0, 1607.0, 1606.0, 1598.0, 1591.0, 1590.0, 1588.0, 1592.0, 1599.0, 1597.0, 1596.0, 1594.0, 1596.0, 1603.0, 1604.0, 1598.0, 1596.0, 1595.0, 1594.0, 1596.0, 1596.0, 1601.0, 1603.0, 1601.0, 1599.0, 1595.0, 1592.0, 1589.0, 1587.0, 1590.0, 1593.0, 1597.0, 1601.0, 1605.0, 1609.0, 1610.0, 1608.0, 1602.0, 1598.0, 1597.0, 1598.0, 1605.0, 1610.0, 1604.0, 1598.0, 1595.0, 1595.0, 1591.0, 1590.0, 1585.0, 1586.0, 1589.0, 1596.0, 1599.0, 1600.0, 1602.0, 1600.0, 1602.0, 1605.0, 1605.0, 1603.0, 1597.0, 1595.0, 1592.0, 1595.0, 1598.0, 1597.0, 1594.0, 1597.0, 1600.0, 1598.0, 1600.0, 1599.0]
    },
    "slices": {}
  }
}