{
  "AcquisitionMatrixPE": 100,
  "AcquisitionNumber": 1,
  "AcquisitionTime": "11:30:23.257500",
  "BandwidthPerPixelPhaseEncode": 18.519,
  "BaseResolution": 100,
  "BodyPartExamined": "BRAIN",
  "CoilCombinationMethod": "Sum of Squares",
  "ConsistencyInfo": "N4_VE11C_LATEST_20160120",
  "ConversionSoftware": "dcm2niix",
  "ConversionSoftwareVersion": "v1.0.20211006",
  "DerivedVendorReportedEchoSpacing": 0.000539986,
  "DeviceSerialNumber": "166078",
  "DwellTime": 2.1e-06,
  "EchoTime": 0.034,
  "EchoTrainLength": 100,
  "EffectiveEchoSpacing": 0.000539986,
  "FlipAngle": 90,
  "ImageOrientationPatientDICOM": [1, 0, 0, 0, 0.982287, -0.187381],
  "ImageOrientationText": "Tra>Cor(-10.8)",
  "ImageType": [
    "ORIGINAL",
    "PRIMARY",
    "M",
    "ND",
    "MOSAIC"
],
  "ImagingFrequency": 123.258,
  "InPlanePhaseEncodingDirectionDICOM": "COL",
  "InstitutionAddress": "Street StreetNo,Bei Jing,District,CN,ZIP",
  "InstitutionName": "BeiJing Normal University",
  "InstitutionalDepartmentName": "Department",
  "MRAcquisitionType": "2D",
  "MagneticFieldStrength": 3,
  "Manufacturer": "Siemens",
  "ManufacturersModelName": "Prisma",
  "Modality": "MR",
  "MultibandAccelerationFactor": 3,
  "PartialFourier": 1,
  "PatientPosition": "HFS",
  "PercentPhaseFOV": 100,
  "PercentSampling": 100,
  "PhaseEncodingDirection": "j-",
  "PhaseEncodingSteps": 100,
  "PhaseResolution": 1,
  "PixelBandwidth": 2380,
  "ProcedureStepDescription": "BNU_P2018_64CH^Zhen.ZongLei",
  "ProtocolName": "bold_100x100_s3_2x2x2_static_156",
  "PulseSequenceDetails": "%SiemensSeq%\\ep2d_bold",
  "ReceiveCoilActiveElements": "HC1-7;NC1",
  "ReceiveCoilName": "HeadNeck_64",
  "ReconMatrixPE": 100,
  "RefLinesPE": 32,
  "RepetitionTime": 2,
  "SAR": 0.0657312,
  "ScanOptions": "FS",
  "ScanningSequence": "EP",
  "SequenceName": "*epfid2d1_100",
  "SequenceVariant": "SK",
  "SeriesDescription": "bold_100x100_s3_2x2x2_static_156",
  "SeriesNumber": 16,
  "ShimSetting": [-5449, -11519, -1240, 401, 12, -122, -268, 48],
  "SliceThickness": 2,
  "SliceTiming": [1.485, 0, 0.99, 0.0825, 1.0725, 0.165, 1.155, 0.2475, 1.2375, 0.33, 1.32, 0.4125, 1.4025, 0.5775, 1.5675, 0.66, 1.65, 0.7425, 1.7325, 0.825, 1.815, 0.9075, 1.8975, 0.495, 1.485, 0, 0.99, 0.0825, 1.0725, 0.165, 1.155, 0.2475, 1.2375, 0.33, 1.32, 0.4125, 1.4025, 0.5775, 1.5675, 0.66, 1.65, 0.7425, 1.7325, 0.825, 1.815, 0.9075, 1.8975, 0.495, 1.485, 0, 0.99, 0.0825, 1.0725, 0.165, 1.155, 0.2475, 1.2375, 0.33, 1.32, 0.4125, 1.4025, 0.5775, 1.5675, 0.66, 1.65, 0.7425, 1.7325, 0.825, 1.815, 0.9075, 1.8975, 0.495],
  "SoftwareVersions": "syngo MR E11",
  "SpacingBetweenSlices": 2,
  "StationName": "AWP166078",
  "TaskName": "action",
  "TotalReadoutTime": 0.0534586,
  "TxRefAmp": 217.597,
  "dcmmeta_affine": [
    [-2.0, 0.0, 0.0, 101.3559341430664],
    [0.0, 1.9645744562149048, -0.374762624502182, -76.79542541503906],
    [0.0, 0.374762624502182, 1.9645744562149048, -80.04765319824219],
    [0.0, 0.0, 0.0, 1.0]
],
  "dcmmeta_reorient_transform": [
    [0.0, -1.0, 0.0, 99.0],
    [1.0, 0.0, 0.0, 0.0],
    [0.0, 0.0, 1.0, 0.0],
    [0.0, 0.0, 0.0, 1.0]
],
  "dcmmeta_shape": [100, 100, 72, 156],
  "dcmmeta_slice_dim": 2,
  "dcmmeta_version": 0.6,
  "global": {
    "const": {
      "AcquisitionMatrix": [100, 0, 0, 100],
      "AngioFlag": "N",
      "BitsAllocated": 16,
      "BitsStored": 12,
      "BodyPartExamined": "BRAIN",
      "Columns": 900,
      "EchoNumbers": 1,
      "EchoTime": 34.0,
      "EchoTrainLength": 100,
      "FlipAngle": 90.0,
      "HighBit": 11,
      "ImageOrientationPatient": [1.0, 0.0, 0.0, 0.0, 0.98228725047307, -0.1873813159257],
      "ImagePositionPatient": [-901.35593223572, -903.52724681553, 106.95890012293],
      "ImageType": [
        "ORIGINAL",
        "PRIMARY",
        "M",
        "ND",
        "MOSAIC"
],
      "ImagedNucleus": "1H",
      "ImagingFrequency": 123.257729,
      "InPlanePhaseEncodingDirection": "COL",
      "MRAcquisitionType": "2D",
      "MagneticFieldStrength": 3.0,
      "Manufacturer": "SIEMENS",
      "ManufacturerModelName": "Prisma",
      "Modality": "MR",
      "NumberOfAverages": 1.0,
      "NumberOfPhaseEncodingSteps": 100,
      "PercentPhaseFieldOfView": 100.0,
      "PercentSampling": 100.0,
      "PerformedProcedureStepStartTime": "101525.996000",
      "PhotometricInterpretation": "MONOCHROME2",
      "PixelBandwidth": 2380.0,
      "PixelRepresentation": 0,
      "PixelSpacing": [2.0, 2.0],
      "ProtocolName": "bold_100x100_s3_2x2x2_static_156",
      "RepetitionTime": 2000.0,
      "Rows": 900,
      "SAR": 0.06573117809029,
      "SamplesPerPixel": 1,
      "ScanOptions": "FS",
      "ScanningSequence": "EP",
      "SequenceName": "*epfid2d1_100",
      "SequenceVariant": "SK",
      "SeriesDescription": "bold_100x100_s3_2x2x2_static_156",
      "SeriesNumber": 16,
      "SeriesTime": "113025.821000",
      "SliceLocation": -64.239760567648,
      "SliceThickness": 2.0,
      "SmallestImagePixelValue": 0,
      "SoftwareVersions": "syngo MR E11",
      "SpacingBetweenSlices": 2.000000014055,
      "SpecificCharacterSet": "ISO_IR 100",
      "StudyID": "1",
      "StudyTime": "101525.906000",
      "TransmitCoilName": "Body",
      "VariableFlipAngleFlag": "N",
      "WindowCenterWidthExplanation": "Algo1",
      "dBdt": 0.0},
    "slices": {}
  },
  "time": {
    "samples": {
      "AcquisitionNumber": [1, 2, 3, 4, 5, 6, 7, 8, 9, 10, 11, 12, 13, 14, 15, 16, 17, 18, 19, 20, 21, 22, 23, 24, 25, 26, 27, 28, 29, 30, 31, 32, 33, 34, 35, 36, 37, 38, 39, 40, 41, 42, 43, 44, 45, 46, 47, 48, 49, 50, 51, 52, 53, 54, 55, 56, 57, 58, 59, 60, 61, 62, 63, 64, 65, 66, 67, 68, 69, 70, 71, 72, 73, 74, 75, 76, 77, 78, 79, 80, 81, 82, 83, 84, 85, 86, 87, 88, 89, 90, 91, 92, 93, 94, 95, 96, 97, 98, 99, 100, 101, 102, 103, 104, 105, 106, 107, 108, 109, 110, 111, 112, 113, 114, 115, 116, 117, 118, 119, 120, 121, 122, 123, 124, 125, 126, 127, 128, 129, 130, 131, 132, 133, 134, 135, 136, 137, 138, 139, 140, 141, 142, 143, 144, 145, 146, 147, 148, 149, 150, 151, 152, 153, 154, 155, 156],
      "AcquisitionTime": ["113023.257500", "113025.257500", "113027.257500", "113029.257500", "113031.257500", "113033.257500", "113035.257500", "113037.257500", "113039.257500", "113041.257500", "113043.257500", "113045.257500", "113047.257500", "113049.257500", "113051.257500", "113053.257500", "113055.257500", "113057.257500", "113059.257500", "113101.257500", "113103.257500", "113105.257500", "113107.257500", "113109.257500", "113111.257500", "113113.257500", "113115.257500", "113117.257500", "113119.257500", "113121.257500", "113123.257500", "113125.257500", "113127.257500", "113129.257500", "113131.257500", "113133.257500", "113135.257500", "113137.257500", "113139.257500", "113141.257500", "113143.257500", "113145.257500", "113147.257500", "113149.257500", "113151.257500", "113153.257500", "113155.257500", "113157.257500", "113159.257500", "113201.257500", "113203.257500", "113205.257500", "113207.257500", "113209.257500", "113211.257500", "113213.257500", "113215.257500", "113217.257500", "113219.257500", "113221.257500", "113223.257500", "113225.257500", "113227.257500", "113229.257500", "113231.257500", "113233.257500", "113235.257500", "113237.257500", "113239.257500", "113241.257500", "113243.257500", "113245.257500", "113247.257500", "113249.257500", "113251.257500", "113253.257500", "113255.257500", "113257.257500", "113259.257500", "113301.257500", "113303.257500", "113305.257500", "113307.257500", "113309.257500", "113311.257500", "113313.257500", "113315.257500", "113317.257500", "113319.257500", "113321.257500", "113323.257500", "113325.257500", "113327.257500", "113329.257500", "113331.257500", "113333.257500", "113335.257500", "113337.257500", "113339.257500", "113341.257500", "113343.257500", "113345.257500", "113347.257500", "113349.257500", "113351.257500", "113353.257500", "113355.257500", "113357.257500", "113359.257500", "113401.257500", "113403.257500", "113405.257500", "113407.257500", "113409.257500", "113411.257500", "113413.257500", "113415.257500", "113417.257500", "113419.257500", "113421.257500", "113423.257500", "113425.257500", "113427.257500", "113429.257500", "113431.257500", "113433.257500", "113435.257500", "113437.257500", "113439.257500", "113441.257500", "113443.257500", "113445.257500", "113447.257500", "113449.257500", "113451.257500", "113453.257500", "113455.257500", "113457.257500", "113459.257500", "113501.257500", "113503.257500", "113505.257500", "113507.257500", "113509.257500", "113511.257500", "113513.257500", "113515.257500", "113517.257500", "113519.257500", "113521.257500", "113523.257500", "113525.257500", "113527.257500", "113529.257500", "113531.257500", "113533.257500"],
      "ContentTime": ["113025.825000", "113027.320000", "113029.321000", "113031.321000", "113033.321000", "113035.322000", "113037.321000", "113039.321000", "113041.320000", "113043.321000", "113045.321000", "113047.322000", "113049.321000", "113051.321000", "113053.321000", "113055.321000", "113057.321000", "113059.320000", "113101.320000", "113103.320000", "113105.321000", "113107.322000", "113109.321000", "113111.321000", "113113.322000", "113115.320000", "113117.320000", "113119.320000", "113121.320000", "113123.321000", "113125.322000", "113127.321000", "113129.322000", "113131.321000", "113133.320000", "113135.320000", "113137.321000", "113139.321000", "113141.321000", "113143.321000", "113145.321000", "113147.321000", "113149.321000", "113151.320000", "113153.320000", "113155.320000", "113157.321000", "113159.321000", "113201.321000", "113203.321000", "113205.321000", "113207.322000", "113209.320000", "113211.320000", "113213.320000", "113215.321000", "113217.321000", "113219.321000", "113221.321000", "113223.321000", "113225.320000", "113227.320000", "113229.320000", "113231.320000", "113233.321000", "113235.321000", "113237.321000", "113239.322000", "113241.321000", "113243.321000", "113245.321000", "113247.320000", "113249.321000", "113251.321000", "113253.321000", "113255.322000", "113257.321000", "113259.321000", "113301.321000", "113303.320000", "113305.321000", "113307.321000", "113309.322000", "113311.321000", "113313.321000", "113315.321000", "113317.321000", "113319.321000", "113321.321000", "113323.320000", "113325.322000", "113327.322000", "113329.322000", "113331.322000", "113333.323000", "113335.321000", "113337.321000", "113339.321000", "113341.321000", "113343.322000", "113345.322000", "113347.322000", "113349.322000", "113351.322000", "113353.320000", "113355.321000", "113357.321000", "113359.322000", "113401.321000", "113403.321000", "113405.322000", "113407.322000", "113409.321000", "113411.321000", "113413.321000", "113415.321000", "113417.322000", "113419.321000", "113421.321000", "113423.322000", "113425.322000", "113427.322000", "113429.320000", "113431.320000", "113433.321000", "113435.321000", "113437.322000", "113439.322000", "113441.322000", "113443.322000", "113445.320000", "113447.320000", "113449.321000", "113451.321000", "113453.321000", "113455.322000", "113457.322000", "113459.322000", "113501.322000", "113503.321000", "113505.320000", "113507.320000", "113509.322000", "113511.322000", "113513.322000", "113515.322000", "113517.322000", "113519.322000", "113521.321000", "113523.320000", "113525.320000", "113527.322000", "113529.322000", "113531.321000", "113533.322000", "113535.039000"],
      "InstanceCreationTime": ["113025.825000", "113027.320000", "113029.321000", "113031.321000", "113033.321000", "113035.322000", "113037.321000", "113039.321000", "113041.320000", "113043.321000", "113045.321000", "113047.322000", "113049.321000", "113051.321000", "113053.321000", "113055.321000", "113057.321000", "113059.320000", "113101.320000", "113103.320000", "113105.321000", "113107.322000", "113109.321000", "113111.321000", "113113.322000", "113115.320000", "113117.320000", "113119.320000", "113121.320000", "113123.321000", "113125.322000", "113127.321000", "113129.322000", "113131.321000", "113133.320000", "113135.320000", "113137.321000", "113139.321000", "113141.321000", "113143.321000", "113145.321000", "113147.321000", "113149.321000", "113151.320000", "113153.320000", "113155.320000", "113157.321000", "113159.321000", "113201.321000", "113203.321000", "113205.321000", "113207.322000", "113209.320000", "113211.320000", "113213.320000", "113215.321000", "113217.321000", "113219.321000", "113221.321000", "113223.321000", "113225.320000", "113227.320000", "113229.320000", "113231.320000", "113233.321000", "113235.321000", "113237.321000", "113239.322000", "113241.321000", "113243.321000", "113245.321000", "113247.320000", "113249.321000", "113251.321000", "113253.321000", "113255.322000", "113257.321000", "113259.321000", "113301.321000", "113303.320000", "113305.321000", "113307.321000", "113309.322000", "113311.321000", "113313.321000", "113315.321000", "113317.321000", "113319.321000", "113321.321000", "113323.320000", "113325.322000", "113327.322000", "113329.322000", "113331.322000", "113333.323000", "113335.321000", "113337.321000", "113339.321000", "113341.321000", "113343.322000", "113345.322000", "113347.322000", "113349.322000", "113351.322000", "113353.320000", "113355.321000", "113357.321000", "113359.322000", "113401.321000", "113403.321000", "113405.322000", "113407.322000", "113409.321000", "113411.321000", "113413.321000", "113415.321000", "113417.322000", "113419.321000", "113421.321000", "113423.322000", "113425.322000", "113427.322000", "113429.320000", "113431.320000", "113433.321000", "113435.321000", "113437.322000", "113439.322000", "113441.322000", "113443.322000", "113445.320000", "113447.320000", "113449.321000", "113451.321000", "113453.321000", "113455.322000", "113457.322000", "113459.322000", "113501.322000", "113503.321000", "113505.320000", "113507.320000", "113509.322000", "113511.322000", "113513.322000", "113515.322000", "113517.322000", "113519.322000", "113521.321000", "113523.320000", "113525.320000", "113527.322000", "113529.322000", "113531.321000", "113533.322000", "113535.039000"],
      "InstanceNumber": [1, 2, 3, 4, 5, 6, 7, 8, 9, 10, 11, 12, 13, 14, 15, 16, 17, 18, 19, 20, 21, 22, 23, 24, 25, 26, 27, 28, 29, 30, 31, 32, 33, 34, 35, 36, 37, 38, 39, 40, 41, 42, 43, 44, 45, 46, 47, 48, 49, 50, 51, 52, 53, 54, 55, 56, 57, 58, 59, 60, 61, 62, 63, 64, 65, 66, 67, 68, 69, 70, 71, 72, 73, 74, 75, 76, 77, 78, 79, 80, 81, 82, 83, 84, 85, 86, 87, 88, 89, 90, 91, 92, 93, 94, 95, 96, 97, 98, 99, 100, 101, 102, 103, 104, 105, 106, 107, 108, 109, 110, 111, 112, 113, 114, 115, 116, 117, 118, 119, 120, 121, 122, 123, 124, 125, 126, 127, 128, 129, 130, 131, 132, 133, 134, 135, 136, 137, 138, 139, 140, 141, 142, 143, 144, 145, 146, 147, 148, 149, 150, 151, 152, 153, 154, 155, 156],
      "LargestImagePixelValue": [2992, 3006, 3009, 2998, 3003, 3014, 2991, 3018, 3011, 2997, 3024, 3018, 3023, 2992, 3005, 3006, 3012, 2979, 2963, 2960, 3001, 3015, 2954, 2988, 3039, 3032, 2967, 2937, 2995, 2999, 3005, 2956, 2965, 2967, 3000, 2965, 2943, 2972, 3006, 3024, 3016, 2958, 2951, 2942, 2972, 3007, 3003, 2995, 3010, 2967, 2978, 2983, 2965, 2968, 2968, 2970, 2957, 2912, 2936, 2967, 2958, 2960, 2940, 2976, 3002, 3016, 2940, 2927, 2956, 2943, 2995, 2963, 2968, 2932, 2950, 2925, 2956, 2948, 2930, 2917, 2946, 2931, 2945, 2976, 2990, 2962, 2968, 2929, 2945, 3002, 2997, 2984, 2980, 2975, 2912, 2928, 2885, 2933, 2960, 2939, 2909, 2926, 2896, 2949, 2959, 2945, 2918, 2902, 2952, 2977, 2967, 2965, 2966, 2963, 2945, 2953, 2927, 2934, 2974, 2932, 2937, 2939, 2918, 2878, 2875, 2896, 2893, 2908, 2912, 2880, 2902, 2906, 2949, 2940, 2919, 2941, 2924, 2971, 3037, 3042, 3005, 2986, 2979, 2979, 2923, 2907, 2926, 2903, 2898, 2880, 2922, 2932, 3018, 3059, 3020, 3023],
      "WindowCenter": [741.0, 740.0, 739.0, 740.0, 742.0, 743.0, 742.0, 742.0, 743.0, 744.0, 745.0, 745.0, 745.0, 745.0, 745.0, 745.0, 744.0, 742.0, 741.0, 742.0, 743.0, 743.0, 742.0, 744.0, 744.0, 745.0, 742.0, 741.0, 742.0, 742.0, 743.0, 742.0, 742.0, 742.0, 741.0, 740.0, 740.0, 740.0, 741.0, 741.0, 741.0, 740.0, 739.0, 739.0, 740.0, 743.0, 743.0, 741.0, 742.0, 741.0, 742.0, 742.0, 742.0, 741.0, 739.0, 740.0, 740.0, 740.0, 740.0, 741.0, 740.0, 738.0, 738.0, 740.0, 741.0, 742.0, 739.0, 739.0, 740.0, 742.0, 743.0, 743.0, 742.0, 741.0, 741.0, 741.0, 743.0, 744.0, 744.0, 743.0, 744.0, 745.0, 746.0, 747.0, 747.0, 747.0, 747.0, 745.0, 745.0, 747.0, 746.0, 743.0, 741.0, 740.0, 738.0, 738.0, 736.0, 738.0, 741.0, 740.0, 739.0, 739.0, 739.0, 741.0, 741.0, 741.0, 740.0, 741.0, 744.0, 745.0, 743.0, 743.0, 743.0, 743.0, 743.0, 744.0, 743.0, 744.0, 745.0, 744.0, 742.0, 741.0, 739.0, 737.0, 737.0, 737.0, 739.0, 740.0, 739.0, 740.0, 740.0, 741.0, 743.0, 742.0, 741.0, 741.0, 741.0, 742.0, 743.0, 742.0, 741.0, 740.0, 739.0, 740.0, 738.0, 737.0, 738.0, 738.0, 739.0, 739.0, 741.0, 743.0, 745.0, 746.0, 744.0, 742.0],
      "WindowWidth": [1597.0, 1594.0, 1593.0, 1595.0, 1600.0, 1603.0, 1599.0, 1601.0, 1603.0, 1606.0, 1609.0, 1608.0, 1607.0, 1608.0, 1607.0, 1608.0, 1607.0, 1601.0, 1597.0, 1600.0, 1603.0, 1604.0, 1601.0, 1605.0, 1607.0, 1608.0, 1600.0, 1597.0, 1600.0, 1602.0, 1602.0, 1601.0, 1600.0, 1599.0, 1597.0, 1595.0, 1594.0, 1596.0, 1598.0, 1598.0, 1597.0, 1595.0, 1592.0, 1592.0, 1596.0, 1604.0, 1603.0, 1598.0, 1601.0, 1599.0, 1600.0, 1600.0, 1601.0, 1598.0, 1593.0, 1595.0, 1596.0, 1595.0, 1595.0, 1598.0, 1594.0, 1589.0, 1590.0, 1595.0, 1599.0, 1599.0, 1593.0, 1591.0, 1596.0, 1600.0, 1605.0, 1604.0, 1600.0, 1598.0, 1598.0, 1600.0, 1604.0, 1605.0, 1605.0, 1604.0, 1607.0, 1609.0, 1612.0, 1613.0, 1614.0, 1615.0, 1613.0, 1609.0, 1609.0, 1614.0, 1613.0, 1603.0, 1597.0, 1596.0, 1591.0, 1589.0, 1586.0, 1589.0, 1597.0, 1596.0, 1592.0, 1592.0, 1592.0, 1598.0, 1599.0, 1598.0, 1597.0, 1597.0, 1607.0, 1608.0, 1604.0, 1603.0, 1604.0, 1603.0, 1604.0, 1605.0, 1605.0, 1605.0, 1608.0, 1605.0, 1601.0, 1597.0, 1592.0, 1588.0, 1588.0, 1589.0, 1593.0, 1594.0, 1593.0, 1594.0, 1594.0, 1598.0, 1603.0, 1601.0, 1597.0, 1598.0, 1597.0, 1602.0, 1605.0, 1601.0, 1598.0, 1596.0, 1594.0, 1595.0, 1590.0, 1587.0, 1589.0, 1591.0, 1592.0, 1594.0, 1598.0, 1603.0, 1610.0, 1612.0, 1605.0, 1599.0]
    },
    "slices": {}
  }
}