{
  "AcquisitionMatrixPE": 100,
  "AcquisitionNumber": 1,
  "AcquisitionTime": "15:16:50.720000",
  "BandwidthPerPixelPhaseEncode": 18.519,
  "BaseResolution": 100,
  "BodyPartExamined": "BRAIN",
  "CoilCombinationMethod": "Sum of Squares",
  "ConsistencyInfo": "N4_VE11C_LATEST_20160120",
  "ConversionSoftware": "dcm2niix",
  "ConversionSoftwareVersion": "v1.0.20211006",
  "DerivedVendorReportedEchoSpacing": 0.000539986,
  "DeviceSerialNumber": "166078",
  "DwellTime": 2.1e-06,
  "EchoTime": 0.034,
  "EchoTrainLength": 100,
  "EffectiveEchoSpacing": 0.000539986,
  "FlipAngle": 90,
  "ImageOrientationPatientDICOM": [1, 0, 0, 0, 0.989776, -0.142629],
  "ImageOrientationText": "Tra>Cor(-8.2)",
  "ImageType": [
    "ORIGINAL",
    "PRIMARY",
    "M",
    "ND",
    "MOSAIC"
],
  "ImagingFrequency": 123.258,
  "InPlanePhaseEncodingDirectionDICOM": "COL",
  "InstitutionAddress": "Street StreetNo,Bei Jing,District,CN,ZIP",
  "InstitutionName": "BeiJing Normal University",
  "InstitutionalDepartmentName": "Department",
  "MRAcquisitionType": "2D",
  "MagneticFieldStrength": 3,
  "Manufacturer": "Siemens",
  "ManufacturersModelName": "Prisma",
  "Modality": "MR",
  "MultibandAccelerationFactor": 3,
  "PartialFourier": 1,
  "PatientPosition": "HFS",
  "PercentPhaseFOV": 100,
  "PercentSampling": 100,
  "PhaseEncodingDirection": "j-",
  "PhaseEncodingSteps": 100,
  "PhaseResolution": 1,
  "PixelBandwidth": 2380,
  "ProcedureStepDescription": "BNU_P2018_64CH^Zhen.ZongLei",
  "ProtocolName": "bold_100x100_s3_2x2x2_static_156",
  "PulseSequenceDetails": "%SiemensSeq%\\ep2d_bold",
  "ReceiveCoilActiveElements": "HC1-7;NC1",
  "ReceiveCoilName": "HeadNeck_64",
  "ReconMatrixPE": 100,
  "RefLinesPE": 32,
  "RepetitionTime": 2,
  "SAR": 0.0728812,
  "ScanOptions": "FS",
  "ScanningSequence": "EP",
  "SequenceName": "*epfid2d1_100",
  "SequenceVariant": "SK",
  "SeriesDescription": "bold_100x100_s3_2x2x2_static_156",
  "SeriesNumber": 12,
  "ShimSetting": [-5482, -11522, -1241, 315, -67, -371, -161, 33],
  "SliceThickness": 2,
  "SliceTiming": [1.485, 0, 0.99, 0.0825, 1.0725, 0.165, 1.155, 0.2475, 1.2375, 0.33, 1.32, 0.4125, 1.4025, 0.5775, 1.5675, 0.66, 1.65, 0.7425, 1.7325, 0.825, 1.815, 0.9075, 1.8975, 0.495, 1.485, 0, 0.99, 0.0825, 1.0725, 0.165, 1.155, 0.2475, 1.2375, 0.33, 1.32, 0.4125, 1.4025, 0.5775, 1.5675, 0.66, 1.65, 0.7425, 1.7325, 0.825, 1.815, 0.9075, 1.8975, 0.495, 1.485, 0, 0.99, 0.0825, 1.0725, 0.165, 1.155, 0.2475, 1.2375, 0.33, 1.32, 0.4125, 1.4025, 0.5775, 1.5675, 0.66, 1.65, 0.7425, 1.7325, 0.825, 1.815, 0.9075, 1.8975, 0.495],
  "SoftwareVersions": "syngo MR E11",
  "SpacingBetweenSlices": 2,
  "StationName": "AWP166078",
  "TaskName": "action",
  "TotalReadoutTime": 0.0534586,
  "TxRefAmp": 228.896,
  "dcmmeta_affine": [
    [-2.0, 0.0, 0.0, 100.67796325683594],
    [0.0, 1.9795525074005127, -0.28525787591934204, -82.527587890625],
    [0.0, 0.28525787591934204, 1.9795523881912231, -74.37281036376953],
    [0.0, 0.0, 0.0, 1.0]
],
  "dcmmeta_reorient_transform": [
    [0.0, -1.0, 0.0, 99.0],
    [1.0, 0.0, 0.0, 0.0],
    [0.0, 0.0, 1.0, 0.0],
    [0.0, 0.0, 0.0, 1.0]
],
  "dcmmeta_shape": [100, 100, 72, 156],
  "dcmmeta_slice_dim": 2,
  "dcmmeta_version": 0.6,
  "global": {
    "const": {
      "AcquisitionMatrix": [100, 0, 0, 100],
      "AngioFlag": "N",
      "BitsAllocated": 16,
      "BitsStored": 12,
      "BodyPartExamined": "BRAIN",
      "Columns": 900,
      "EchoNumbers": 1,
      "EchoTime": 34.0,
      "EchoTrainLength": 100,
      "FlipAngle": 90.0,
      "HighBit": 11,
      "ImageOrientationPatient": [1.0, 0.0, 0.0, 0.0, 0.98977622990198, -0.1426289406854],
      "ImagePositionPatient": [-900.67796611786, -905.26908687699, 67.970870682995],
      "ImageType": [
        "ORIGINAL",
        "PRIMARY",
        "M",
        "ND",
        "MOSAIC"
],
      "ImagedNucleus": "1H",
      "ImagingFrequency": 123.257695,
      "InPlanePhaseEncodingDirection": "COL",
      "MRAcquisitionType": "2D",
      "MagneticFieldStrength": 3.0,
      "Manufacturer": "SIEMENS",
      "ManufacturerModelName": "Prisma",
      "Modality": "MR",
      "NumberOfAverages": 1.0,
      "NumberOfPhaseEncodingSteps": 100,
      "PercentPhaseFieldOfView": 100.0,
      "PercentSampling": 100.0,
      "PerformedProcedureStepStartTime": "142706.745000",
      "PhotometricInterpretation": "MONOCHROME2",
      "PixelBandwidth": 2380.0,
      "PixelRepresentation": 0,
      "PixelSpacing": [2.0, 2.0],
      "ProtocolName": "bold_100x100_s3_2x2x2_static_156",
      "RepetitionTime": 2000.0,
      "Rows": 900,
      "SAR": 0.07288118495508,
      "SamplesPerPixel": 1,
      "ScanOptions": "FS",
      "ScanningSequence": "EP",
      "SequenceName": "*epfid2d1_100",
      "SequenceVariant": "SK",
      "SeriesDescription": "bold_100x100_s3_2x2x2_static_156",
      "SeriesNumber": 12,
      "SeriesTime": "151653.045000",
      "SliceLocation": -61.841618768707,
      "SliceThickness": 2.0,
      "SmallestImagePixelValue": 0,
      "SoftwareVersions": "syngo MR E11",
      "SpacingBetweenSlices": 1.999999955755,
      "SpecificCharacterSet": "ISO_IR 100",
      "StudyID": "1",
      "StudyTime": "142706.674000",
      "TransmitCoilName": "Body",
      "VariableFlipAngleFlag": "N",
      "WindowCenterWidthExplanation": "Algo1",
      "dBdt": 0.0},
    "slices": {}
  },
  "time": {
    "samples": {
      "AcquisitionNumber": [1, 2, 3, 4, 5, 6, 7, 8, 9, 10, 11, 12, 13, 14, 15, 16, 17, 18, 19, 20, 21, 22, 23, 24, 25, 26, 27, 28, 29, 30, 31, 32, 33, 34, 35, 36, 37, 38, 39, 40, 41, 42, 43, 44, 45, 46, 47, 48, 49, 50, 51, 52, 53, 54, 55, 56, 57, 58, 59, 60, 61, 62, 63, 64, 65, 66, 67, 68, 69, 70, 71, 72, 73, 74, 75, 76, 77, 78, 79, 80, 81, 82, 83, 84, 85, 86, 87, 88, 89, 90, 91, 92, 93, 94, 95, 96, 97, 98, 99, 100, 101, 102, 103, 104, 105, 106, 107, 108, 109, 110, 111, 112, 113, 114, 115, 116, 117, 118, 119, 120, 121, 122, 123, 124, 125, 126, 127, 128, 129, 130, 131, 132, 133, 134, 135, 136, 137, 138, 139, 140, 141, 142, 143, 144, 145, 146, 147, 148, 149, 150, 151, 152, 153, 154, 155, 156],
      "AcquisitionTime": ["151650.720000", "151652.720000", "151654.720000", "151656.720000", "151658.720000", "151700.720000", "151702.720000", "151704.720000", "151706.720000", "151708.720000", "151710.720000", "151712.720000", "151714.720000", "151716.720000", "151718.720000", "151720.720000", "151722.720000", "151724.720000", "151726.720000", "151728.720000", "151730.720000", "151732.720000", "151734.720000", "151736.720000", "151738.720000", "151740.720000", "151742.720000", "151744.720000", "151746.720000", "151748.720000", "151750.720000", "151752.720000", "151754.720000", "151756.720000", "151758.720000", "151800.720000", "151802.720000", "151804.720000", "151806.720000", "151808.720000", "151810.720000", "151812.720000", "151814.720000", "151816.720000", "151818.720000", "151820.720000", "151822.720000", "151824.720000", "151826.720000", "151828.720000", "151830.720000", "151832.720000", "151834.720000", "151836.720000", "151838.720000", "151840.720000", "151842.720000", "151844.720000", "151846.720000", "151848.720000", "151850.720000", "151852.720000", "151854.720000", "151856.720000", "151858.720000", "151900.720000", "151902.720000", "151904.720000", "151906.720000", "151908.720000", "151910.720000", "151912.720000", "151914.720000", "151916.720000", "151918.720000", "151920.720000", "151922.720000", "151924.720000", "151926.720000", "151928.720000", "151930.720000", "151932.720000", "151934.720000", "151936.720000", "151938.720000", "151940.720000", "151942.720000", "151944.720000", "151946.720000", "151948.720000", "151950.720000", "151952.720000", "151954.720000", "151956.720000", "151958.720000", "152000.720000", "152002.720000", "152004.720000", "152006.720000", "152008.720000", "152010.720000", "152012.720000", "152014.720000", "152016.720000", "152018.720000", "152020.720000", "152022.720000", "152024.720000", "152026.720000", "152028.720000", "152030.720000", "152032.720000", "152034.720000", "152036.720000", "152038.720000", "152040.720000", "152042.720000", "152044.720000", "152046.720000", "152048.720000", "152050.720000", "152052.720000", "152054.720000", "152056.720000", "152058.720000", "152100.720000", "152102.720000", "152104.720000", "152106.720000", "152108.720000", "152110.720000", "152112.720000", "152114.720000", "152116.720000", "152118.720000", "152120.720000", "152122.720000", "152124.720000", "152126.720000", "152128.720000", "152130.720000", "152132.720000", "152134.720000", "152136.720000", "152138.720000", "152140.720000", "152142.720000", "152144.720000", "152146.720000", "152148.720000", "152150.720000", "152152.720000", "152154.720000", "152156.720000", "152158.720000", "152200.720000"],
      "ContentTime": ["151653.049000", "151654.545000", "151656.544000", "151658.545000", "151700.544000", "151702.544000", "151704.545000", "151706.545000", "151708.545000", "151710.544000", "151712.545000", "151714.545000", "151716.545000", "151718.545000", "151720.546000", "151722.544000", "151724.544000", "151726.545000", "151728.545000", "151730.545000", "151732.545000", "151734.544000", "151736.545000", "151738.546000", "151740.545000", "151742.545000", "151744.544000", "151746.545000", "151748.545000", "151750.545000", "151752.545000", "151754.545000", "151756.545000", "151758.544000", "151800.545000", "151802.545000", "151804.545000", "151806.544000", "151808.544000", "151810.544000", "151812.545000", "151814.546000", "151816.545000", "151818.544000", "151820.545000", "151822.544000", "151824.545000", "151826.544000", "151828.545000", "151830.546000", "151832.544000", "151834.545000", "151836.545000", "151838.545000", "151840.545000", "151842.544000", "151844.545000", "151846.544000", "151848.546000", "151850.544000", "151852.544000", "151854.545000", "151856.544000", "151858.545000", "151900.544000", "151902.545000", "151904.544000", "151906.546000", "151908.544000", "151910.545000", "151912.545000", "151914.545000", "151916.545000", "151918.544000", "151920.545000", "151922.545000", "151924.546000", "151926.545000", "151928.545000", "151930.544000", "151932.544000", "151934.545000", "151936.545000", "151938.545000", "151940.545000", "151942.545000", "151944.545000", "151946.545000", "151948.544000", "151950.544000", "151952.545000", "151954.544000", "151956.544000", "151958.546000", "152000.545000", "152002.544000", "152004.545000", "152006.544000", "152008.545000", "152010.545000", "152012.545000", "152014.544000", "152016.545000", "152018.545000", "152020.544000", "152022.544000", "152024.544000", "152026.545000", "152028.545000", "152030.544000", "152032.545000", "152034.546000", "152036.545000", "152038.544000", "152040.544000", "152042.545000", "152044.545000", "152046.544000", "152048.544000", "152050.546000", "152052.545000", "152054.545000", "152056.545000", "152058.545000", "152100.545000", "152102.545000", "152104.545000", "152106.545000", "152108.546000", "152110.545000", "152112.544000", "152114.545000", "152116.545000", "152118.545000", "152120.545000", "152122.544000", "152124.545000", "152126.546000", "152128.545000", "152130.544000", "152132.545000", "152134.544000", "152136.545000", "152138.544000", "152140.545000", "152142.545000", "152144.545000", "152146.545000", "152148.544000", "152150.544000", "152152.545000", "152154.545000", "152156.545000", "152158.545000", "152200.546000", "152202.181000"],
      "InstanceCreationTime": ["151653.049000", "151654.545000", "151656.544000", "151658.545000", "151700.544000", "151702.544000", "151704.545000", "151706.545000", "151708.545000", "151710.544000", "151712.545000", "151714.545000", "151716.545000", "151718.545000", "151720.546000", "151722.544000", "151724.544000", "151726.545000", "151728.545000", "151730.545000", "151732.545000", "151734.544000", "151736.545000", "151738.546000", "151740.545000", "151742.545000", "151744.544000", "151746.545000", "151748.545000", "151750.545000", "151752.545000", "151754.545000", "151756.545000", "151758.544000", "151800.545000", "151802.545000", "151804.545000", "151806.544000", "151808.544000", "151810.544000", "151812.545000", "151814.546000", "151816.545000", "151818.544000", "151820.545000", "151822.544000", "151824.545000", "151826.544000", "151828.545000", "151830.546000", "151832.544000", "151834.545000", "151836.545000", "151838.545000", "151840.545000", "151842.544000", "151844.545000", "151846.544000", "151848.546000", "151850.544000", "151852.544000", "151854.545000", "151856.544000", "151858.545000", "151900.544000", "151902.545000", "151904.544000", "151906.546000", "151908.544000", "151910.545000", "151912.545000", "151914.545000", "151916.545000", "151918.544000", "151920.545000", "151922.545000", "151924.546000", "151926.545000", "151928.545000", "151930.544000", "151932.544000", "151934.545000", "151936.545000", "151938.545000", "151940.545000", "151942.545000", "151944.545000", "151946.545000", "151948.544000", "151950.544000", "151952.545000", "151954.544000", "151956.544000", "151958.546000", "152000.545000", "152002.544000", "152004.545000", "152006.544000", "152008.545000", "152010.545000", "152012.545000", "152014.544000", "152016.545000", "152018.545000", "152020.544000", "152022.544000", "152024.544000", "152026.545000", "152028.545000", "152030.544000", "152032.545000", "152034.546000", "152036.545000", "152038.544000", "152040.544000", "152042.545000", "152044.545000", "152046.544000", "152048.544000", "152050.546000", "152052.545000", "152054.545000", "152056.545000", "152058.545000", "152100.545000", "152102.545000", "152104.545000", "152106.545000", "152108.546000", "152110.545000", "152112.544000", "152114.545000", "152116.545000", "152118.545000", "152120.545000", "152122.544000", "152124.545000", "152126.546000", "152128.545000", "152130.544000", "152132.545000", "152134.544000", "152136.545000", "152138.544000", "152140.545000", "152142.545000", "152144.545000", "152146.545000", "152148.544000", "152150.544000", "152152.545000", "152154.545000", "152156.545000", "152158.545000", "152200.546000", "152202.181000"],
      "InstanceNumber": [1, 2, 3, 4, 5, 6, 7, 8, 9, 10, 11, 12, 13, 14, 15, 16, 17, 18, 19, 20, 21, 22, 23, 24, 25, 26, 27, 28, 29, 30, 31, 32, 33, 34, 35, 36, 37, 38, 39, 40, 41, 42, 43, 44, 45, 46, 47, 48, 49, 50, 51, 52, 53, 54, 55, 56, 57, 58, 59, 60, 61, 62, 63, 64, 65, 66, 67, 68, 69, 70, 71, 72, 73, 74, 75, 76, 77, 78, 79, 80, 81, 82, 83, 84, 85, 86, 87, 88, 89, 90, 91, 92, 93, 94, 95, 96, 97, 98, 99, 100, 101, 102, 103, 104, 105, 106, 107, 108, 109, 110, 111, 112, 113, 114, 115, 116, 117, 118, 119, 120, 121, 122, 123, 124, 125, 126, 127, 128, 129, 130, 131, 132, 133, 134, 135, 136, 137, 138, 139, 140, 141, 142, 143, 144, 145, 146, 147, 148, 149, 150, 151, 152, 153, 154, 155, 156],
      "LargestImagePixelValue": [4077, 3980, 3977, 3976, 3963, 3970, 3957, 3980, 3961, 3972, 3962, 4005, 3957, 3966, 3982, 3973, 3979, 3961, 3937, 3949, 3973, 3940, 3952, 3929, 3948, 3941, 3933, 3951, 3973, 3982, 3984, 3990, 3988, 3979, 3966, 4009, 3999, 3953, 3950, 3954, 3997, 3972, 3938, 3951, 3941, 3974, 3968, 3965, 3960, 3966, 3966, 3959, 3961, 3978, 3984, 3990, 3989, 3974, 3969, 3996, 3993, 3983, 4007, 3993, 3955, 3982, 3960, 3984, 4001, 3991, 3975, 3979, 3973, 3984, 3973, 4003, 3997, 4008, 3967, 3988, 4013, 4009, 4011, 3989, 3990, 3992, 4000, 3986, 4080, 4006, 4011, 4023, 3996, 3983, 3965, 4007, 3991, 3963, 3982, 3977, 4006, 3957, 4004, 3980, 3978, 3965, 4005, 3977, 4029, 3976, 4022, 3998, 3968, 4000, 3996, 3971, 3952, 3967, 3966, 3975, 4002, 3978, 4027, 3994, 4017, 3999, 4022, 4007, 4002, 4018, 4011, 4026, 4036, 4060, 4050, 4044, 4029, 4024, 4014, 4003, 3990, 4020, 4010, 3987, 4023, 4006, 4017, 4017, 4010, 4000, 4009, 3986, 4012, 4011, 4026, 4023],
      "WindowCenter": [815.0, 813.0, 813.0, 814.0, 814.0, 813.0, 812.0, 813.0, 815.0, 815.0, 815.0, 814.0, 814.0, 814.0, 815.0, 814.0, 814.0, 814.0, 814.0, 814.0, 815.0, 813.0, 812.0, 812.0, 813.0, 813.0, 814.0, 814.0, 815.0, 814.0, 812.0, 812.0, 812.0, 813.0, 813.0, 812.0, 812.0, 812.0, 813.0, 813.0, 814.0, 814.0, 813.0, 812.0, 811.0, 813.0, 813.0, 813.0, 812.0, 813.0, 813.0, 813.0, 813.0, 813.0, 813.0, 812.0, 813.0, 813.0, 813.0, 813.0, 813.0, 814.0, 815.0, 814.0, 813.0, 813.0, 813.0, 813.0, 812.0, 813.0, 814.0, 813.0, 812.0, 812.0, 814.0, 815.0, 814.0, 814.0, 812.0, 813.0, 814.0, 813.0, 813.0, 813.0, 814.0, 815.0, 814.0, 814.0, 815.0, 815.0, 816.0, 816.0, 814.0, 813.0, 813.0, 815.0, 815.0, 815.0, 814.0, 813.0, 814.0, 813.0, 813.0, 813.0, 815.0, 816.0, 816.0, 814.0, 813.0, 812.0, 813.0, 815.0, 816.0, 815.0, 813.0, 812.0, 813.0, 814.0, 814.0, 813.0, 814.0, 814.0, 814.0, 814.0, 815.0, 816.0, 814.0, 814.0, 815.0, 815.0, 815.0, 814.0, 815.0, 816.0, 815.0, 814.0, 815.0, 816.0, 815.0, 814.0, 814.0, 815.0, 814.0, 814.0, 814.0, 814.0, 814.0, 814.0, 814.0, 814.0, 813.0, 813.0, 813.0, 815.0, 815.0, 815.0],
      "WindowWidth": [1780.0, 1774.0, 1774.0, 1775.0, 1774.0, 1772.0, 1770.0, 1774.0, 1777.0, 1779.0, 1778.0, 1776.0, 1776.0, 1777.0, 1778.0, 1777.0, 1777.0, 1776.0, 1776.0, 1776.0, 1776.0, 1773.0, 1771.0, 1771.0, 1774.0, 1774.0, 1775.0, 1777.0, 1778.0, 1776.0, 1772.0, 1769.0, 1770.0, 1773.0, 1771.0, 1770.0, 1770.0, 1770.0, 1772.0, 1774.0, 1775.0, 1776.0, 1772.0, 1768.0, 1768.0, 1772.0, 1773.0, 1772.0, 1771.0, 1772.0, 1773.0, 1774.0, 1773.0, 1773.0, 1772.0, 1771.0, 1774.0, 1774.0, 1773.0, 1773.0, 1773.0, 1775.0, 1780.0, 1777.0, 1771.0, 1773.0, 1773.0, 1772.0, 1771.0, 1773.0, 1775.0, 1773.0, 1771.0, 1771.0, 1775.0, 1778.0, 1776.0, 1775.0, 1770.0, 1772.0, 1776.0, 1774.0, 1774.0, 1773.0, 1776.0, 1777.0, 1776.0, 1775.0, 1779.0, 1780.0, 1783.0, 1781.0, 1776.0, 1773.0, 1774.0, 1778.0, 1778.0, 1777.0, 1775.0, 1773.0, 1774.0, 1774.0, 1772.0, 1772.0, 1779.0, 1781.0, 1779.0, 1774.0, 1772.0, 1770.0, 1773.0, 1777.0, 1781.0, 1779.0, 1773.0, 1770.0, 1774.0, 1776.0, 1774.0, 1773.0, 1776.0, 1775.0, 1774.0, 1775.0, 1779.0, 1779.0, 1776.0, 1775.0, 1777.0, 1779.0, 1779.0, 1776.0, 1779.0, 1780.0, 1777.0, 1776.0, 1779.0, 1781.0, 1778.0, 1774.0, 1774.0, 1776.0, 1775.0, 1774.0, 1774.0, 1775.0, 1776.0, 1775.0, 1776.0, 1775.0, 1773.0, 1771.0, 1774.0, 1778.0, 1779.0, 1778.0]
    },
    "slices": {}
  }
}