{
  "AcquisitionMatrixPE": 100,
  "AcquisitionNumber": 1,
  "AcquisitionTime": "14:35:59.632500",
  "BandwidthPerPixelPhaseEncode": 18.519,
  "BaseResolution": 100,
  "BodyPartExamined": "BRAIN",
  "CoilCombinationMethod": "Sum of Squares",
  "ConsistencyInfo": "N4_VE11C_LATEST_20160120",
  "ConversionSoftware": "dcm2niix",
  "ConversionSoftwareVersion": "v1.0.20211006",
  "DerivedVendorReportedEchoSpacing": 0.000539986,
  "DeviceSerialNumber": "166078",
  "DwellTime": 2.1e-06,
  "EchoTime": 0.034,
  "EchoTrainLength": 100,
  "EffectiveEchoSpacing": 0.000539986,
  "FlipAngle": 90,
  "ImageOrientationPatientDICOM": [1, 0, 0, 0, 0.989776, -0.142629],
  "ImageOrientationText": "Tra>Cor(-8.2)",
  "ImageType": [
    "ORIGINAL",
    "PRIMARY",
    "M",
    "ND",
    "MOSAIC"
],
  "ImagingFrequency": 123.258,
  "InPlanePhaseEncodingDirectionDICOM": "COL",
  "InstitutionAddress": "Street StreetNo,Bei Jing,District,CN,ZIP",
  "InstitutionName": "BeiJing Normal University",
  "InstitutionalDepartmentName": "Department",
  "MRAcquisitionType": "2D",
  "MagneticFieldStrength": 3,
  "Manufacturer": "Siemens",
  "ManufacturersModelName": "Prisma",
  "Modality": "MR",
  "MultibandAccelerationFactor": 3,
  "PartialFourier": 1,
  "PatientPosition": "HFS",
  "PercentPhaseFOV": 100,
  "PercentSampling": 100,
  "PhaseEncodingDirection": "j-",
  "PhaseEncodingSteps": 100,
  "PhaseResolution": 1,
  "PixelBandwidth": 2380,
  "ProcedureStepDescription": "BNU_P2018_64CH^Zhen.ZongLei",
  "ProtocolName": "bold_100x100_s3_2x2x2_static_156",
  "PulseSequenceDetails": "%SiemensSeq%\\ep2d_bold",
  "ReceiveCoilActiveElements": "HC1-7;NC1",
  "ReceiveCoilName": "HeadNeck_64",
  "ReconMatrixPE": 100,
  "RefLinesPE": 32,
  "RepetitionTime": 2,
  "SAR": 0.0728812,
  "ScanOptions": "FS",
  "ScanningSequence": "EP",
  "SequenceName": "*epfid2d1_100",
  "SequenceVariant": "SK",
  "SeriesDescription": "bold_100x100_s3_2x2x2_static_156",
  "SeriesNumber": 4,
  "ShimSetting": [-5482, -11522, -1241, 315, -67, -371, -161, 33],
  "SliceThickness": 2,
  "SliceTiming": [1.485, 0, 0.99, 0.0825, 1.0725, 0.165, 1.155, 0.2475, 1.2375, 0.33, 1.32, 0.4125, 1.4025, 0.5775, 1.5675, 0.66, 1.6475, 0.7425, 1.73, 0.825, 1.8125, 0.9075, 1.895, 0.495, 1.485, 0, 0.99, 0.0825, 1.0725, 0.165, 1.155, 0.2475, 1.2375, 0.33, 1.32, 0.4125, 1.4025, 0.5775, 1.5675, 0.66, 1.6475, 0.7425, 1.73, 0.825, 1.8125, 0.9075, 1.895, 0.495, 1.485, 0, 0.99, 0.0825, 1.0725, 0.165, 1.155, 0.2475, 1.2375, 0.33, 1.32, 0.4125, 1.4025, 0.5775, 1.5675, 0.66, 1.6475, 0.7425, 1.73, 0.825, 1.8125, 0.9075, 1.895, 0.495],
  "SoftwareVersions": "syngo MR E11",
  "SpacingBetweenSlices": 2,
  "StationName": "AWP166078",
  "TaskName": "action",
  "TotalReadoutTime": 0.0534586,
  "TxRefAmp": 228.896,
  "dcmmeta_affine": [
    [-2.0, 0.0, 0.0, 100.67796325683594],
    [0.0, 1.9795525074005127, -0.28525787591934204, -82.527587890625],
    [0.0, 0.28525787591934204, 1.9795523881912231, -74.37281036376953],
    [0.0, 0.0, 0.0, 1.0]
],
  "dcmmeta_reorient_transform": [
    [0.0, -1.0, 0.0, 99.0],
    [1.0, 0.0, 0.0, 0.0],
    [0.0, 0.0, 1.0, 0.0],
    [0.0, 0.0, 0.0, 1.0]
],
  "dcmmeta_shape": [100, 100, 72, 156],
  "dcmmeta_slice_dim": 2,
  "dcmmeta_version": 0.6,
  "global": {
    "const": {
      "AcquisitionMatrix": [100, 0, 0, 100],
      "AngioFlag": "N",
      "BitsAllocated": 16,
      "BitsStored": 12,
      "BodyPartExamined": "BRAIN",
      "Columns": 900,
      "EchoNumbers": 1,
      "EchoTime": 34.0,
      "EchoTrainLength": 100,
      "FlipAngle": 90.0,
      "HighBit": 11,
      "ImageOrientationPatient": [1.0, 0.0, 0.0, 0.0, 0.98977622990198, -0.1426289406854],
      "ImagePositionPatient": [-900.67796611786, -905.26908687699, 67.970870682995],
      "ImageType": [
        "ORIGINAL",
        "PRIMARY",
        "M",
        "ND",
        "MOSAIC"
],
      "ImagedNucleus": "1H",
      "ImagingFrequency": 123.257692,
      "InPlanePhaseEncodingDirection": "COL",
      "MRAcquisitionType": "2D",
      "MagneticFieldStrength": 3.0,
      "Manufacturer": "SIEMENS",
      "ManufacturerModelName": "Prisma",
      "Modality": "MR",
      "NumberOfAverages": 1.0,
      "NumberOfPhaseEncodingSteps": 100,
      "PercentPhaseFieldOfView": 100.0,
      "PercentSampling": 100.0,
      "PerformedProcedureStepStartTime": "142706.745000",
      "PhotometricInterpretation": "MONOCHROME2",
      "PixelBandwidth": 2380.0,
      "PixelRepresentation": 0,
      "PixelSpacing": [2.0, 2.0],
      "ProtocolName": "bold_100x100_s3_2x2x2_static_156",
      "RepetitionTime": 2000.0,
      "Rows": 900,
      "SAR": 0.07288118495508,
      "SamplesPerPixel": 1,
      "ScanOptions": "FS",
      "ScanningSequence": "EP",
      "SequenceName": "*epfid2d1_100",
      "SequenceVariant": "SK",
      "SeriesDescription": "bold_100x100_s3_2x2x2_static_156",
      "SeriesNumber": 4,
      "SeriesTime": "143602.069000",
      "SliceLocation": -61.841618768707,
      "SliceThickness": 2.0,
      "SmallestImagePixelValue": 0,
      "SoftwareVersions": "syngo MR E11",
      "SpacingBetweenSlices": 1.999999955755,
      "SpecificCharacterSet": "ISO_IR 100",
      "StudyID": "1",
      "StudyTime": "142706.674000",
      "TransmitCoilName": "Body",
      "VariableFlipAngleFlag": "N",
      "WindowCenterWidthExplanation": "Algo1",
      "dBdt": 0.0},
    "slices": {}
  },
  "time": {
    "samples": {
      "AcquisitionNumber": [1, 2, 3, 4, 5, 6, 7, 8, 9, 10, 11, 12, 13, 14, 15, 16, 17, 18, 19, 20, 21, 22, 23, 24, 25, 26, 27, 28, 29, 30, 31, 32, 33, 34, 35, 36, 37, 38, 39, 40, 41, 42, 43, 44, 45, 46, 47, 48, 49, 50, 51, 52, 53, 54, 55, 56, 57, 58, 59, 60, 61, 62, 63, 64, 65, 66, 67, 68, 69, 70, 71, 72, 73, 74, 75, 76, 77, 78, 79, 80, 81, 82, 83, 84, 85, 86, 87, 88, 89, 90, 91, 92, 93, 94, 95, 96, 97, 98, 99, 100, 101, 102, 103, 104, 105, 106, 107, 108, 109, 110, 111, 112, 113, 114, 115, 116, 117, 118, 119, 120, 121, 122, 123, 124, 125, 126, 127, 128, 129, 130, 131, 132, 133, 134, 135, 136, 137, 138, 139, 140, 141, 142, 143, 144, 145, 146, 147, 148, 149, 150, 151, 152, 153, 154, 155, 156],
      "AcquisitionTime": ["143559.632500", "143601.632500", "143603.632500", "143605.632500", "143607.632500", "143609.632500", "143611.632500", "143613.632500", "143615.632500", "143617.632500", "143619.632500", "143621.632500", "143623.632500", "143625.632500", "143627.632500", "143629.632500", "143631.632500", "143633.632500", "143635.632500", "143637.632500", "143639.632500", "143641.632500", "143643.632500", "143645.632500", "143647.632500", "143649.632500", "143651.632500", "143653.632500", "143655.632500", "143657.632500", "143659.632500", "143701.632500", "143703.632500", "143705.632500", "143707.632500", "143709.632500", "143711.632500", "143713.632500", "143715.632500", "143717.632500", "143719.632500", "143721.632500", "143723.632500", "143725.632500", "143727.632500", "143729.632500", "143731.632500", "143733.632500", "143735.632500", "143737.632500", "143739.632500", "143741.632500", "143743.632500", "143745.632500", "143747.632500", "143749.632500", "143751.632500", "143753.632500", "143755.632500", "143757.632500", "143759.632500", "143801.632500", "143803.632500", "143805.632500", "143807.632500", "143809.632500", "143811.632500", "143813.632500", "143815.632500", "143817.632500", "143819.632500", "143821.632500", "143823.632500", "143825.632500", "143827.632500", "143829.632500", "143831.632500", "143833.632500", "143835.632500", "143837.632500", "143839.632500", "143841.632500", "143843.632500", "143845.632500", "143847.632500", "143849.632500", "143851.632500", "143853.632500", "143855.632500", "143857.632500", "143859.632500", "143901.632500", "143903.632500", "143905.632500", "143907.632500", "143909.632500", "143911.632500", "143913.632500", "143915.632500", "143917.632500", "143919.632500", "143921.632500", "143923.632500", "143925.632500", "143927.632500", "143929.632500", "143931.632500", "143933.632500", "143935.632500", "143937.632500", "143939.632500", "143941.632500", "143943.632500", "143945.632500", "143947.632500", "143949.632500", "143951.632500", "143953.632500", "143955.632500", "143957.632500", "143959.632500", "144001.632500", "144003.632500", "144005.632500", "144007.632500", "144009.632500", "144011.632500", "144013.632500", "144015.632500", "144017.632500", "144019.632500", "144021.632500", "144023.632500", "144025.632500", "144027.632500", "144029.632500", "144031.632500", "144033.632500", "144035.632500", "144037.632500", "144039.632500", "144041.632500", "144043.632500", "144045.632500", "144047.632500", "144049.632500", "144051.632500", "144053.632500", "144055.632500", "144057.632500", "144059.632500", "144101.632500", "144103.632500", "144105.632500", "144107.632500", "144109.632500"],
      "ContentTime": ["143602.073000", "143603.568000", "143605.568000", "143607.568000", "143609.567000", "143611.567000", "143613.568000", "143615.568000", "143617.568000", "143619.568000", "143621.567000", "143623.568000", "143625.567000", "143627.567000", "143629.567000", "143631.568000", "143633.568000", "143635.568000", "143637.568000", "143639.567000", "143641.567000", "143643.568000", "143645.567000", "143647.567000", "143649.568000", "143651.568000", "143653.569000", "143655.567000", "143657.568000", "143659.567000", "143701.567000", "143703.567000", "143705.567000", "143707.567000", "143709.568000", "143711.569000", "143713.567000", "143715.567000", "143717.567000", "143719.567000", "143721.567000", "143723.568000", "143725.568000", "143727.568000", "143729.569000", "143731.567000", "143733.568000", "143735.567000", "143737.568000", "143739.567000", "143741.568000", "143743.568000", "143745.569000", "143747.568000", "143749.567000", "143751.568000", "143753.567000", "143755.567000", "143757.567000", "143759.567000", "143801.568000", "143803.568000", "143805.567000", "143807.567000", "143809.568000", "143811.568000", "143813.567000", "143815.568000", "143817.568000", "143819.568000", "143821.569000", "143823.568000", "143825.567000", "143827.568000", "143829.567000", "143831.567000", "143833.568000", "143835.568000", "143837.569000", "143839.568000", "143841.568000", "143843.567000", "143845.567000", "143847.568000", "143849.568000", "143851.568000", "143853.569000", "143855.568000", "143857.568000", "143859.568000", "143901.568000", "143903.567000", "143905.567000", "143907.568000", "143909.567000", "143911.568000", "143913.569000", "143915.568000", "143917.567000", "143919.567000", "143921.567000", "143923.568000", "143925.567000", "143927.568000", "143929.568000", "143931.569000", "143933.567000", "143935.568000", "143937.567000", "143939.568000", "143941.568000", "143943.567000", "143945.569000", "143947.569000", "143949.568000", "143951.568000", "143953.568000", "143955.568000", "143957.568000", "143959.567000", "144001.568000", "144003.568000", "144005.569000", "144007.568000", "144009.568000", "144011.568000", "144013.568000", "144015.568000", "144017.568000", "144019.567000", "144021.568000", "144023.569000", "144025.568000", "144027.567000", "144029.568000", "144031.567000", "144033.567000", "144035.568000", "144037.569000", "144039.569000", "144041.569000", "144043.567000", "144045.567000", "144047.568000", "144049.568000", "144051.567000", "144053.567000", "144055.569000", "144057.569000", "144059.568000", "144101.567000", "144103.567000", "144105.568000", "144107.568000", "144109.568000", "144111.122000"],
      "InstanceCreationTime": ["143602.073000", "143603.568000", "143605.568000", "143607.568000", "143609.567000", "143611.567000", "143613.568000", "143615.568000", "143617.568000", "143619.568000", "143621.567000", "143623.568000", "143625.567000", "143627.567000", "143629.567000", "143631.568000", "143633.568000", "143635.568000", "143637.568000", "143639.567000", "143641.567000", "143643.568000", "143645.567000", "143647.567000", "143649.568000", "143651.568000", "143653.569000", "143655.567000", "143657.568000", "143659.567000", "143701.567000", "143703.567000", "143705.567000", "143707.567000", "143709.568000", "143711.569000", "143713.567000", "143715.567000", "143717.567000", "143719.567000", "143721.567000", "143723.568000", "143725.568000", "143727.568000", "143729.569000", "143731.567000", "143733.568000", "143735.567000", "143737.568000", "143739.567000", "143741.568000", "143743.568000", "143745.569000", "143747.568000", "143749.567000", "143751.568000", "143753.567000", "143755.567000", "143757.567000", "143759.567000", "143801.568000", "143803.568000", "143805.567000", "143807.567000", "143809.568000", "143811.568000", "143813.567000", "143815.568000", "143817.568000", "143819.568000", "143821.569000", "143823.568000", "143825.567000", "143827.568000", "143829.567000", "143831.567000", "143833.568000", "143835.568000", "143837.569000", "143839.568000", "143841.568000", "143843.567000", "143845.567000", "143847.568000", "143849.568000", "143851.568000", "143853.569000", "143855.568000", "143857.568000", "143859.568000", "143901.568000", "143903.567000", "143905.567000", "143907.568000", "143909.567000", "143911.568000", "143913.569000", "143915.568000", "143917.567000", "143919.567000", "143921.567000", "143923.568000", "143925.567000", "143927.568000", "143929.568000", "143931.569000", "143933.567000", "143935.568000", "143937.567000", "143939.568000", "143941.568000", "143943.567000", "143945.569000", "143947.569000", "143949.568000", "143951.568000", "143953.568000", "143955.568000", "143957.568000", "143959.567000", "144001.568000", "144003.568000", "144005.569000", "144007.568000", "144009.568000", "144011.568000", "144013.568000", "144015.568000", "144017.568000", "144019.567000", "144021.568000", "144023.569000", "144025.568000", "144027.567000", "144029.568000", "144031.567000", "144033.567000", "144035.568000", "144037.569000", "144039.569000", "144041.569000", "144043.567000", "144045.567000", "144047.568000", "144049.568000", "144051.567000", "144053.567000", "144055.569000", "144057.569000", "144059.568000", "144101.567000", "144103.567000", "144105.568000", "144107.568000", "144109.568000", "144111.122000"],
      "InstanceNumber": [1, 2, 3, 4, 5, 6, 7, 8, 9, 10, 11, 12, 13, 14, 15, 16, 17, 18, 19, 20, 21, 22, 23, 24, 25, 26, 27, 28, 29, 30, 31, 32, 33, 34, 35, 36, 37, 38, 39, 40, 41, 42, 43, 44, 45, 46, 47, 48, 49, 50, 51, 52, 53, 54, 55, 56, 57, 58, 59, 60, 61, 62, 63, 64, 65, 66, 67, 68, 69, 70, 71, 72, 73, 74, 75, 76, 77, 78, 79, 80, 81, 82, 83, 84, 85, 86, 87, 88, 89, 90, 91, 92, 93, 94, 95, 96, 97, 98, 99, 100, 101, 102, 103, 104, 105, 106, 107, 108, 109, 110, 111, 112, 113, 114, 115, 116, 117, 118, 119, 120, 121, 122, 123, 124, 125, 126, 127, 128, 129, 130, 131, 132, 133, 134, 135, 136, 137, 138, 139, 140, 141, 142, 143, 144, 145, 146, 147, 148, 149, 150, 151, 152, 153, 154, 155, 156],
      "LargestImagePixelValue": [4095, 4095, 4095, 4095, 4095, 4095, 4095, 4095, 4095, 4095, 4095, 4095, 4095, 4095, 4095, 4095, 4095, 4095, 4095, 4095, 4095, 4095, 4095, 4095, 4095, 4095, 4095, 4095, 4095, 4095, 4095, 4095, 4095, 4095, 4095, 4095, 4095, 4095, 4095, 4095, 4095, 4095, 4095, 4095, 4095, 4095, 4095, 4095, 4095, 4095, 4095, 4095, 4095, 4095, 4095, 4095, 4095, 4095, 4095, 4095, 4095, 4095, 4095, 4095, 4095, 4095, 4095, 4095, 4095, 4095, 4095, 4095, 4095, 4095, 4095, 4095, 4095, 4095, 4095, 4095, 4095, 4095, 4095, 4095, 4095, 4095, 4095, 4095, 4095, 4095, 4095, 4095, 4095, 4095, 4095, 4095, 4095, 4095, 4095, 4095, 4095, 4095, 4095, 4095, 4095, 4095, 4095, 4095, 4095, 4095, 4095, 4095, 4095, 4095, 4095, 4095, 4095, 4095, 4095, 4095, 4095, 4095, 4095, 4095, 4095, 4095, 4095, 4095, 4095, 4095, 4095, 4095, 4095, 4095, 4095, 4095, 4095, 4095, 4095, 4095, 4095, 4095, 4095, 4095, 4092, 4095, 4095, 4095, 4095, 4095, 4095, 4095, 4095, 4095, 4095, 4095],
      "WindowCenter": [811.0, 808.0, 808.0, 808.0, 808.0, 807.0, 806.0, 806.0, 807.0, 807.0, 808.0, 808.0, 808.0, 807.0, 807.0, 806.0, 806.0, 806.0, 805.0, 805.0, 806.0, 806.0, 806.0, 807.0, 806.0, 805.0, 805.0, 806.0, 807.0, 806.0, 805.0, 805.0, 805.0, 806.0, 806.0, 807.0, 807.0, 807.0, 806.0, 806.0, 807.0, 807.0, 806.0, 805.0, 806.0, 807.0, 807.0, 807.0, 807.0, 806.0, 806.0, 807.0, 810.0, 809.0, 806.0, 806.0, 808.0, 808.0, 807.0, 807.0, 807.0, 806.0, 806.0, 806.0, 807.0, 807.0, 806.0, 806.0, 808.0, 808.0, 807.0, 806.0, 807.0, 808.0, 808.0, 807.0, 806.0, 806.0, 806.0, 806.0, 806.0, 806.0, 807.0, 808.0, 808.0, 807.0, 806.0, 806.0, 806.0, 806.0, 805.0, 805.0, 806.0, 807.0, 807.0, 807.0, 807.0, 807.0, 808.0, 808.0, 808.0, 806.0, 806.0, 806.0, 808.0, 809.0, 808.0, 807.0, 807.0, 807.0, 808.0, 809.0, 809.0, 809.0, 809.0, 808.0, 808.0, 807.0, 807.0, 807.0, 807.0, 808.0, 809.0, 808.0, 807.0, 807.0, 808.0, 808.0, 809.0, 809.0, 809.0, 809.0, 808.0, 809.0, 809.0, 809.0, 808.0, 807.0, 807.0, 808.0, 808.0, 808.0, 809.0, 809.0, 809.0, 810.0, 809.0, 808.0, 807.0, 808.0, 808.0, 808.0, 808.0, 807.0, 807.0, 808.0],
      "WindowWidth": [1770.0, 1761.0, 1761.0, 1761.0, 1760.0, 1758.0, 1757.0, 1756.0, 1758.0, 1759.0, 1761.0, 1761.0, 1760.0, 1759.0, 1758.0, 1757.0, 1754.0, 1755.0, 1754.0, 1755.0, 1757.0, 1757.0, 1755.0, 1757.0, 1755.0, 1753.0, 1753.0, 1756.0, 1758.0, 1756.0, 1754.0, 1754.0, 1755.0, 1755.0, 1755.0, 1759.0, 1760.0, 1758.0, 1756.0, 1756.0, 1759.0, 1759.0, 1755.0, 1754.0, 1757.0, 1758.0, 1759.0, 1759.0, 1757.0, 1757.0, 1757.0, 1760.0, 1766.0, 1763.0, 1757.0, 1756.0, 1761.0, 1761.0, 1759.0, 1759.0, 1759.0, 1756.0, 1755.0, 1756.0, 1757.0, 1759.0, 1756.0, 1757.0, 1761.0, 1761.0, 1757.0, 1757.0, 1758.0, 1762.0, 1761.0, 1758.0, 1757.0, 1757.0, 1755.0, 1755.0, 1755.0, 1757.0, 1760.0, 1761.0, 1761.0, 1757.0, 1756.0, 1755.0, 1756.0, 1756.0, 1753.0, 1753.0, 1757.0, 1758.0, 1760.0, 1758.0, 1758.0, 1759.0, 1762.0, 1762.0, 1761.0, 1757.0, 1755.0, 1756.0, 1762.0, 1763.0, 1761.0, 1758.0, 1758.0, 1758.0, 1761.0, 1763.0, 1764.0, 1764.0, 1764.0, 1762.0, 1761.0, 1760.0, 1759.0, 1758.0, 1759.0, 1762.0, 1765.0, 1762.0, 1759.0, 1759.0, 1760.0, 1761.0, 1762.0, 1764.0, 1764.0, 1763.0, 1762.0, 1763.0, 1764.0, 1763.0, 1760.0, 1758.0, 1758.0, 1761.0, 1761.0, 1761.0, 1762.0, 1763.0, 1764.0, 1765.0, 1764.0, 1761.0, 1759.0, 1760.0, 1760.0, 1761.0, 1760.0, 1759.0, 1758.0, 1760.0]
    },
    "slices": {}
  }
}