{
  "AcquisitionMatrixPE": 100,
  "AcquisitionNumber": 1,
  "AcquisitionTime": "14:09:32.625000",
  "BandwidthPerPixelPhaseEncode": 18.519,
  "BaseResolution": 100,
  "BodyPartExamined": "BRAIN",
  "CoilCombinationMethod": "Sum of Squares",
  "ConsistencyInfo": "N4_VE11C_LATEST_20160120",
  "ConversionSoftware": "dcm2niix",
  "ConversionSoftwareVersion": "v1.0.20211006",
  "DerivedVendorReportedEchoSpacing": 0.000539986,
  "DeviceSerialNumber": "166078",
  "DwellTime": 2.1e-06,
  "EchoTime": 0.034,
  "EchoTrainLength": 100,
  "EffectiveEchoSpacing": 0.000539986,
  "FlipAngle": 90,
  "ImageOrientationPatientDICOM": [1, 0, 0, 0, 0.980271, -0.197657],
  "ImageOrientationText": "Tra>Cor(-11.4)",
  "ImageType": [
    "ORIGINAL",
    "PRIMARY",
    "M",
    "ND",
    "MOSAIC"
],
  "ImagingFrequency": 123.258,
  "InPlanePhaseEncodingDirectionDICOM": "COL",
  "InstitutionAddress": "Street StreetNo,Bei Jing,District,CN,ZIP",
  "InstitutionName": "BeiJing Normal University",
  "InstitutionalDepartmentName": "Department",
  "MRAcquisitionType": "2D",
  "MagneticFieldStrength": 3,
  "Manufacturer": "Siemens",
  "ManufacturersModelName": "Prisma",
  "Modality": "MR",
  "MultibandAccelerationFactor": 3,
  "PartialFourier": 1,
  "PatientPosition": "HFS",
  "PercentPhaseFOV": 100,
  "PercentSampling": 100,
  "PhaseEncodingDirection": "j-",
  "PhaseEncodingSteps": 100,
  "PhaseResolution": 1,
  "PixelBandwidth": 2380,
  "ProcedureStepDescription": "BNU_P2018_64CH^Zhen.ZongLei",
  "ProtocolName": "bold_100x100_s3_2x2x2_static_156",
  "PulseSequenceDetails": "%SiemensSeq%\\ep2d_bold",
  "ReceiveCoilActiveElements": "HC1-7;NC1",
  "ReceiveCoilName": "HeadNeck_64",
  "ReconMatrixPE": 100,
  "RefLinesPE": 32,
  "RepetitionTime": 2,
  "SAR": 0.0844088,
  "ScanOptions": "FS",
  "ScanningSequence": "EP",
  "SequenceName": "*epfid2d1_100",
  "SequenceVariant": "SK",
  "SeriesDescription": "bold_100x100_s3_2x2x2_static_156",
  "SeriesNumber": 16,
  "ShimSetting": [-5446, -11513, -1244, 294, 9, -142, -87, 47],
  "SliceThickness": 2,
  "SliceTiming": [1.485, 0, 0.99, 0.0825, 1.0725, 0.165, 1.155, 0.2475, 1.2375, 0.33, 1.32, 0.4125, 1.4025, 0.5775, 1.5675, 0.66, 1.65, 0.7425, 1.7325, 0.825, 1.815, 0.9075, 1.8975, 0.495, 1.485, 0, 0.99, 0.0825, 1.0725, 0.165, 1.155, 0.2475, 1.2375, 0.33, 1.32, 0.4125, 1.4025, 0.5775, 1.5675, 0.66, 1.65, 0.7425, 1.7325, 0.825, 1.815, 0.9075, 1.8975, 0.495, 1.485, 0, 0.99, 0.0825, 1.0725, 0.165, 1.155, 0.2475, 1.2375, 0.33, 1.32, 0.4125, 1.4025, 0.5775, 1.5675, 0.66, 1.65, 0.7425, 1.7325, 0.825, 1.815, 0.9075, 1.8975, 0.495],
  "SoftwareVersions": "syngo MR E11",
  "SpacingBetweenSlices": 2,
  "StationName": "AWP166078",
  "TaskName": "action",
  "TotalReadoutTime": 0.0534586,
  "TxRefAmp": 251.967,
  "dcmmeta_affine": [
    [-2.0, 0.0, 0.0, 100.67796325683594],
    [0.0, 1.9605423212051392, -0.39531469345092773, -74.68665313720703],
    [0.0, 0.39531469345092773, 1.9605423212051392, -67.29412841796875],
    [0.0, 0.0, 0.0, 1.0]
],
  "dcmmeta_reorient_transform": [
    [0.0, -1.0, 0.0, 99.0],
    [1.0, 0.0, 0.0, 0.0],
    [0.0, 0.0, 1.0, 0.0],
    [0.0, 0.0, 0.0, 1.0]
],
  "dcmmeta_shape": [100, 100, 72, 156],
  "dcmmeta_slice_dim": 2,
  "dcmmeta_version": 0.6,
  "global": {
    "const": {
      "AcquisitionMatrix": [100, 0, 0, 100],
      "AngioFlag": "N",
      "BitsAllocated": 16,
      "BitsStored": 12,
      "BodyPartExamined": "BRAIN",
      "Columns": 900,
      "EchoNumbers": 1,
      "EchoTime": 34.0,
      "EchoTrainLength": 100,
      "FlipAngle": 90.0,
      "HighBit": 11,
      "ImageOrientationPatient": [1.0, 0.0, 0.0, 0.0, 0.98027117266369, -0.1976573500899],
      "ImagePositionPatient": [-900.67796611786, -903.62397444945, 129.96790521151],
      "ImageType": [
        "ORIGINAL",
        "PRIMARY",
        "M",
        "ND",
        "MOSAIC"
],
      "ImagedNucleus": "1H",
      "ImagingFrequency": 123.257707,
      "InPlanePhaseEncodingDirection": "COL",
      "MRAcquisitionType": "2D",
      "MagneticFieldStrength": 3.0,
      "Manufacturer": "SIEMENS",
      "ManufacturerModelName": "Prisma",
      "Modality": "MR",
      "NumberOfAverages": 1.0,
      "NumberOfPhaseEncodingSteps": 100,
      "PercentPhaseFieldOfView": 100.0,
      "PercentSampling": 100.0,
      "PerformedProcedureStepStartTime": "125606.019000",
      "PhotometricInterpretation": "MONOCHROME2",
      "PixelBandwidth": 2380.0,
      "PixelRepresentation": 0,
      "PixelSpacing": [2.0, 2.0],
      "ProtocolName": "bold_100x100_s3_2x2x2_static_156",
      "RepetitionTime": 2000.0,
      "Rows": 900,
      "SAR": 0.08440879727838,
      "SamplesPerPixel": 1,
      "ScanOptions": "FS",
      "ScanningSequence": "EP",
      "SequenceName": "*epfid2d1_100",
      "SequenceVariant": "SK",
      "SeriesDescription": "bold_100x100_s3_2x2x2_static_156",
      "SeriesNumber": 16,
      "SeriesTime": "140935.351000",
      "SliceLocation": -51.204129417035,
      "SliceThickness": 2.0,
      "SmallestImagePixelValue": 0,
      "SoftwareVersions": "syngo MR E11",
      "SpacingBetweenSlices": 1.9999999832531,
      "SpecificCharacterSet": "ISO_IR 100",
      "StudyID": "1",
      "StudyTime": "125605.925000",
      "TransmitCoilName": "Body",
      "VariableFlipAngleFlag": "N",
      "WindowCenterWidthExplanation": "Algo1",
      "dBdt": 0.0},
    "slices": {}
  },
  "time": {
    "samples": {
      "AcquisitionNumber": [1, 2, 3, 4, 5, 6, 7, 8, 9, 10, 11, 12, 13, 14, 15, 16, 17, 18, 19, 20, 21, 22, 23, 24, 25, 26, 27, 28, 29, 30, 31, 32, 33, 34, 35, 36, 37, 38, 39, 40, 41, 42, 43, 44, 45, 46, 47, 48, 49, 50, 51, 52, 53, 54, 55, 56, 57, 58, 59, 60, 61, 62, 63, 64, 65, 66, 67, 68, 69, 70, 71, 72, 73, 74, 75, 76, 77, 78, 79, 80, 81, 82, 83, 84, 85, 86, 87, 88, 89, 90, 91, 92, 93, 94, 95, 96, 97, 98, 99, 100, 101, 102, 103, 104, 105, 106, 107, 108, 109, 110, 111, 112, 113, 114, 115, 116, 117, 118, 119, 120, 121, 122, 123, 124, 125, 126, 127, 128, 129, 130, 131, 132, 133, 134, 135, 136, 137, 138, 139, 140, 141, 142, 143, 144, 145, 146, 147, 148, 149, 150, 151, 152, 153, 154, 155, 156],
      "AcquisitionTime": ["140932.625000", "140934.625000", "140936.625000", "140938.625000", "140940.625000", "140942.625000", "140944.625000", "140946.625000", "140948.625000", "140950.625000", "140952.625000", "140954.625000", "140956.625000", "140958.625000", "141000.625000", "141002.625000", "141004.625000", "141006.625000", "141008.625000", "141010.625000", "141012.625000", "141014.625000", "141016.625000", "141018.625000", "141020.625000", "141022.625000", "141024.625000", "141026.625000", "141028.625000", "141030.625000", "141032.625000", "141034.625000", "141036.625000", "141038.625000", "141040.625000", "141042.625000", "141044.625000", "141046.625000", "141048.625000", "141050.625000", "141052.625000", "141054.625000", "141056.625000", "141058.625000", "141100.625000", "141102.625000", "141104.625000", "141106.625000", "141108.625000", "141110.625000", "141112.625000", "141114.625000", "141116.625000", "141118.625000", "141120.625000", "141122.625000", "141124.625000", "141126.625000", "141128.625000", "141130.625000", "141132.625000", "141134.625000", "141136.625000", "141138.625000", "141140.625000", "141142.625000", "141144.625000", "141146.625000", "141148.625000", "141150.625000", "141152.625000", "141154.625000", "141156.625000", "141158.625000", "141200.625000", "141202.625000", "141204.625000", "141206.625000", "141208.625000", "141210.625000", "141212.625000", "141214.625000", "141216.625000", "141218.625000", "141220.625000", "141222.625000", "141224.625000", "141226.625000", "141228.625000", "141230.625000", "141232.625000", "141234.625000", "141236.625000", "141238.625000", "141240.625000", "141242.625000", "141244.625000", "141246.625000", "141248.625000", "141250.625000", "141252.625000", "141254.625000", "141256.625000", "141258.625000", "141300.625000", "141302.625000", "141304.625000", "141306.625000", "141308.625000", "141310.625000", "141312.625000", "141314.625000", "141316.625000", "141318.625000", "141320.625000", "141322.625000", "141324.625000", "141326.625000", "141328.625000", "141330.625000", "141332.625000", "141334.625000", "141336.625000", "141338.625000", "141340.625000", "141342.625000", "141344.625000", "141346.625000", "141348.625000", "141350.625000", "141352.625000", "141354.625000", "141356.625000", "141358.625000", "141400.625000", "141402.625000", "141404.625000", "141406.625000", "141408.625000", "141410.625000", "141412.625000", "141414.625000", "141416.625000", "141418.625000", "141420.625000", "141422.625000", "141424.625000", "141426.625000", "141428.625000", "141430.625000", "141432.625000", "141434.625000", "141436.625000", "141438.625000", "141440.625000", "141442.625000"],
      "ContentTime": ["140935.355000", "140936.851000", "140938.850000", "140940.850000", "140942.849000", "140944.850000", "140946.850000", "140948.851000", "140950.851000", "140952.850000", "140954.851000", "140956.849000", "140958.849000", "141000.850000", "141002.851000", "141004.850000", "141006.851000", "141008.851000", "141010.850000", "141012.851000", "141014.849000", "141016.850000", "141018.851000", "141020.850000", "141022.850000", "141024.851000", "141026.850000", "141028.851000", "141030.850000", "141032.849000", "141034.849000", "141036.850000", "141038.851000", "141040.850000", "141042.850000", "141044.851000", "141046.851000", "141048.850000", "141050.849000", "141052.850000", "141054.850000", "141056.851000", "141058.850000", "141100.850000", "141102.851000", "141104.850000", "141106.850000", "141108.850000", "141110.850000", "141112.851000", "141114.850000", "141116.850000", "141118.850000", "141120.850000", "141122.851000", "141124.849000", "141126.849000", "141128.851000", "141130.851000", "141132.850000", "141134.851000", "141136.851000", "141138.851000", "141140.851000", "141142.850000", "141144.850000", "141146.850000", "141148.850000", "141150.850000", "141152.851000", "141154.851000", "141156.851000", "141158.850000", "141200.850000", "141202.850000", "141204.851000", "141206.851000", "141208.850000", "141210.851000", "141212.850000", "141214.851000", "141216.849000", "141218.850000", "141220.850000", "141222.851000", "141224.851000", "141226.851000", "141228.851000", "141230.851000", "141232.850000", "141234.849000", "141236.849000", "141238.850000", "141240.851000", "141242.851000", "141244.850000", "141246.851000", "141248.851000", "141250.850000", "141252.849000", "141254.850000", "141256.851000", "141258.851000", "141300.851000", "141302.851000", "141304.850000", "141306.851000", "141308.849000", "141310.850000", "141312.850000", "141314.850000", "141316.850000", "141318.851000", "141320.851000", "141322.851000", "141324.851000", "141326.849000", "141328.849000", "141330.851000", "141332.851000", "141334.851000", "141336.850000", "141338.851000", "141340.851000", "141342.850000", "141344.850000", "141346.850000", "141348.851000", "141350.851000", "141352.850000", "141354.851000", "141356.851000", "141358.850000", "141400.851000", "141402.850000", "141404.850000", "141406.851000", "141408.851000", "141410.851000", "141412.850000", "141414.850000", "141416.851000", "141418.850000", "141420.849000", "141422.849000", "141424.851000", "141426.851000", "141428.850000", "141430.851000", "141432.851000", "141434.851000", "141436.850000", "141438.850000", "141440.850000", "141442.851000", "141444.433000"],
      "InstanceCreationTime": ["140935.355000", "140936.851000", "140938.850000", "140940.850000", "140942.849000", "140944.850000", "140946.850000", "140948.851000", "140950.851000", "140952.850000", "140954.851000", "140956.849000", "140958.849000", "141000.850000", "141002.851000", "141004.850000", "141006.851000", "141008.851000", "141010.850000", "141012.851000", "141014.849000", "141016.850000", "141018.851000", "141020.850000", "141022.850000", "141024.851000", "141026.850000", "141028.851000", "141030.850000", "141032.849000", "141034.849000", "141036.850000", "141038.851000", "141040.850000", "141042.850000", "141044.851000", "141046.851000", "141048.850000", "141050.849000", "141052.850000", "141054.850000", "141056.851000", "141058.850000", "141100.850000", "141102.851000", "141104.850000", "141106.850000", "141108.850000", "141110.850000", "141112.851000", "141114.850000", "141116.850000", "141118.850000", "141120.850000", "141122.851000", "141124.849000", "141126.849000", "141128.851000", "141130.851000", "141132.850000", "141134.851000", "141136.851000", "141138.851000", "141140.851000", "141142.850000", "141144.850000", "141146.850000", "141148.850000", "141150.850000", "141152.851000", "141154.851000", "141156.851000", "141158.850000", "141200.850000", "141202.850000", "141204.851000", "141206.851000", "141208.850000", "141210.851000", "141212.850000", "141214.851000", "141216.849000", "141218.850000", "141220.850000", "141222.851000", "141224.851000", "141226.851000", "141228.851000", "141230.851000", "141232.850000", "141234.849000", "141236.849000", "141238.850000", "141240.851000", "141242.851000", "141244.850000", "141246.851000", "141248.851000", "141250.850000", "141252.849000", "141254.850000", "141256.851000", "141258.851000", "141300.851000", "141302.851000", "141304.850000", "141306.851000", "141308.849000", "141310.850000", "141312.850000", "141314.850000", "141316.850000", "141318.851000", "141320.851000", "141322.851000", "141324.851000", "141326.849000", "141328.849000", "141330.851000", "141332.851000", "141334.851000", "141336.850000", "141338.851000", "141340.851000", "141342.850000", "141344.850000", "141346.850000", "141348.851000", "141350.851000", "141352.850000", "141354.851000", "141356.851000", "141358.850000", "141400.851000", "141402.850000", "141404.850000", "141406.851000", "141408.851000", "141410.851000", "141412.850000", "141414.850000", "141416.851000", "141418.850000", "141420.849000", "141422.849000", "141424.851000", "141426.851000", "141428.850000", "141430.851000", "141432.851000", "141434.851000", "141436.850000", "141438.850000", "141440.850000", "141442.851000", "141444.433000"],
      "InstanceNumber": [1, 2, 3, 4, 5, 6, 7, 8, 9, 10, 11, 12, 13, 14, 15, 16, 17, 18, 19, 20, 21, 22, 23, 24, 25, 26, 27, 28, 29, 30, 31, 32, 33, 34, 35, 36, 37, 38, 39, 40, 41, 42, 43, 44, 45, 46, 47, 48, 49, 50, 51, 52, 53, 54, 55, 56, 57, 58, 59, 60, 61, 62, 63, 64, 65, 66, 67, 68, 69, 70, 71, 72, 73, 74, 75, 76, 77, 78, 79, 80, 81, 82, 83, 84, 85, 86, 87, 88, 89, 90, 91, 92, 93, 94, 95, 96, 97, 98, 99, 100, 101, 102, 103, 104, 105, 106, 107, 108, 109, 110, 111, 112, 113, 114, 115, 116, 117, 118, 119, 120, 121, 122, 123, 124, 125, 126, 127, 128, 129, 130, 131, 132, 133, 134, 135, 136, 137, 138, 139, 140, 141, 142, 143, 144, 145, 146, 147, 148, 149, 150, 151, 152, 153, 154, 155, 156],
      "LargestImagePixelValue": [3941, 3916, 3932, 3984, 4066, 4036, 4043, 3992, 3987, 4036, 4010, 4011, 3990, 3933, 4008, 3978, 3939, 3988, 3912, 3925, 3881, 3891, 3869, 3912, 3924, 3967, 4003, 4095, 3992, 4026, 3994, 4095, 3982, 4055, 4005, 4043, 4035, 4009, 4025, 3973, 4032, 4009, 3959, 4033, 4009, 4002, 4014, 3946, 4020, 3933, 3948, 4020, 3943, 3984, 3961, 4033, 3972, 3991, 4047, 4013, 4008, 3916, 4004, 3988, 3945, 4007, 3967, 4016, 3933, 3963, 4004, 3942, 4067, 4024, 4031, 3971, 4016, 4072, 4034, 4095, 3997, 4048, 4037, 4037, 4026, 4045, 4060, 4056, 4095, 4065, 4038, 3992, 3975, 4059, 3912, 4002, 3935, 3976, 3977, 3963, 3992, 3925, 4010, 3935, 3975, 3980, 3933, 4002, 3940, 3994, 4016, 3962, 4046, 3956, 4025, 3969, 3998, 4002, 3968, 3978, 3942, 3978, 3961, 3975, 4001, 3951, 4003, 3999, 3939, 4023, 3922, 3996, 3922, 3972, 3898, 4015, 3951, 3980, 3959, 3921, 3970, 3935, 3964, 3937, 3937, 4011, 3950, 4021, 3940, 3996, 3951, 4005, 4004, 3939, 3978, 3934],
      "WindowCenter": [864.0, 862.0, 860.0, 859.0, 860.0, 859.0, 860.0, 860.0, 860.0, 860.0, 860.0, 861.0, 861.0, 861.0, 861.0, 861.0, 861.0, 860.0, 859.0, 859.0, 859.0, 860.0, 861.0, 861.0, 859.0, 859.0, 861.0, 862.0, 861.0, 862.0, 862.0, 863.0, 860.0, 861.0, 861.0, 862.0, 862.0, 861.0, 861.0, 861.0, 861.0, 860.0, 859.0, 860.0, 860.0, 860.0, 860.0, 860.0, 860.0, 859.0, 858.0, 859.0, 858.0, 859.0, 860.0, 860.0, 859.0, 860.0, 861.0, 861.0, 861.0, 861.0, 861.0, 861.0, 860.0, 860.0, 859.0, 859.0, 859.0, 860.0, 860.0, 861.0, 862.0, 861.0, 861.0, 860.0, 860.0, 860.0, 860.0, 861.0, 860.0, 861.0, 860.0, 860.0, 860.0, 860.0, 860.0, 861.0, 861.0, 861.0, 861.0, 860.0, 859.0, 860.0, 859.0, 860.0, 859.0, 860.0, 862.0, 861.0, 861.0, 859.0, 860.0, 858.0, 859.0, 861.0, 861.0, 862.0, 861.0, 862.0, 862.0, 862.0, 863.0, 862.0, 861.0, 859.0, 860.0, 861.0, 861.0, 862.0, 862.0, 861.0, 861.0, 861.0, 861.0, 861.0, 861.0, 862.0, 861.0, 862.0, 861.0, 862.0, 860.0, 860.0, 859.0, 861.0, 860.0, 861.0, 861.0, 862.0, 863.0, 862.0, 862.0, 861.0, 861.0, 862.0, 861.0, 862.0, 861.0, 861.0, 861.0, 861.0, 861.0, 861.0, 862.0, 862.0],
      "WindowWidth": [1864.0, 1857.0, 1851.0, 1850.0, 1851.0, 1850.0, 1851.0, 1851.0, 1851.0, 1852.0, 1853.0, 1855.0, 1854.0, 1853.0, 1855.0, 1853.0, 1853.0, 1853.0, 1849.0, 1849.0, 1849.0, 1852.0, 1853.0, 1853.0, 1850.0, 1850.0, 1854.0, 1858.0, 1856.0, 1858.0, 1858.0, 1861.0, 1852.0, 1856.0, 1856.0, 1856.0, 1857.0, 1855.0, 1854.0, 1854.0, 1856.0, 1853.0, 1851.0, 1852.0, 1853.0, 1852.0, 1853.0, 1851.0, 1852.0, 1849.0, 1848.0, 1850.0, 1848.0, 1851.0, 1852.0, 1853.0, 1850.0, 1853.0, 1856.0, 1856.0, 1856.0, 1854.0, 1856.0, 1856.0, 1852.0, 1852.0, 1850.0, 1850.0, 1849.0, 1851.0, 1852.0, 1853.0, 1856.0, 1854.0, 1854.0, 1853.0, 1853.0, 1853.0, 1852.0, 1855.0, 1853.0, 1856.0, 1854.0, 1854.0, 1852.0, 1852.0, 1853.0, 1854.0, 1856.0, 1856.0, 1854.0, 1853.0, 1850.0, 1853.0, 1851.0, 1852.0, 1851.0, 1854.0, 1857.0, 1856.0, 1854.0, 1851.0, 1852.0, 1848.0, 1850.0, 1854.0, 1855.0, 1857.0, 1856.0, 1858.0, 1858.0, 1860.0, 1861.0, 1857.0, 1855.0, 1852.0, 1853.0, 1856.0, 1856.0, 1858.0, 1856.0, 1856.0, 1855.0, 1854.0, 1856.0, 1854.0, 1855.0, 1856.0, 1855.0, 1857.0, 1855.0, 1857.0, 1853.0, 1851.0, 1850.0, 1854.0, 1853.0, 1855.0, 1856.0, 1856.0, 1860.0, 1857.0, 1856.0, 1854.0, 1853.0, 1857.0, 1855.0, 1857.0, 1855.0, 1856.0, 1855.0, 1855.0, 1855.0, 1855.0, 1857.0, 1858.0]
    },
    "slices": {}
  }
}