{
  "AcquisitionMatrixPE": 100,
  "AcquisitionNumber": 1,
  "AcquisitionTime": "14:03:50.960000",
  "BandwidthPerPixelPhaseEncode": 18.519,
  "BaseResolution": 100,
  "BodyPartExamined": "BRAIN",
  "CoilCombinationMethod": "Sum of Squares",
  "ConsistencyInfo": "N4_VE11C_LATEST_20160120",
  "ConversionSoftware": "dcm2niix",
  "ConversionSoftwareVersion": "v1.0.20211006",
  "DerivedVendorReportedEchoSpacing": 0.000539986,
  "DeviceSerialNumber": "166078",
  "DwellTime": 2.1e-06,
  "EchoTime": 0.034,
  "EchoTrainLength": 100,
  "EffectiveEchoSpacing": 0.000539986,
  "FlipAngle": 90,
  "ImageOrientationPatientDICOM": [1, 0, 0, 0, 0.980271, -0.197657],
  "ImageOrientationText": "Tra>Cor(-11.4)",
  "ImageType": [
    "ORIGINAL",
    "PRIMARY",
    "M",
    "ND",
    "MOSAIC"
],
  "ImagingFrequency": 123.258,
  "InPlanePhaseEncodingDirectionDICOM": "COL",
  "InstitutionAddress": "Street StreetNo,Bei Jing,District,CN,ZIP",
  "InstitutionName": "BeiJing Normal University",
  "InstitutionalDepartmentName": "Department",
  "MRAcquisitionType": "2D",
  "MagneticFieldStrength": 3,
  "Manufacturer": "Siemens",
  "ManufacturersModelName": "Prisma",
  "Modality": "MR",
  "MultibandAccelerationFactor": 3,
  "PartialFourier": 1,
  "PatientPosition": "HFS",
  "PercentPhaseFOV": 100,
  "PercentSampling": 100,
  "PhaseEncodingDirection": "j-",
  "PhaseEncodingSteps": 100,
  "PhaseResolution": 1,
  "PixelBandwidth": 2380,
  "ProcedureStepDescription": "BNU_P2018_64CH^Zhen.ZongLei",
  "ProtocolName": "bold_100x100_s3_2x2x2_static_156",
  "PulseSequenceDetails": "%SiemensSeq%\\ep2d_bold",
  "ReceiveCoilActiveElements": "HC1-7;NC1",
  "ReceiveCoilName": "HeadNeck_64",
  "ReconMatrixPE": 100,
  "RefLinesPE": 32,
  "RepetitionTime": 2,
  "SAR": 0.0844088,
  "ScanOptions": "FS",
  "ScanningSequence": "EP",
  "SequenceName": "*epfid2d1_100",
  "SequenceVariant": "SK",
  "SeriesDescription": "bold_100x100_s3_2x2x2_static_156",
  "SeriesNumber": 15,
  "ShimSetting": [-5446, -11513, -1244, 294, 9, -142, -87, 47],
  "SliceThickness": 2,
  "SliceTiming": [1.4825, 0, 0.9875, 0.0825, 1.07, 0.165, 1.1525, 0.2475, 1.235, 0.3275, 1.3175, 0.41, 1.4, 0.575, 1.565, 0.6575, 1.6475, 0.74, 1.73, 0.8225, 1.8125, 0.905, 1.895, 0.4925, 1.4825, 0, 0.9875, 0.0825, 1.07, 0.165, 1.1525, 0.2475, 1.235, 0.3275, 1.3175, 0.41, 1.4, 0.575, 1.565, 0.6575, 1.6475, 0.74, 1.73, 0.8225, 1.8125, 0.905, 1.895, 0.4925, 1.4825, 0, 0.9875, 0.0825, 1.07, 0.165, 1.1525, 0.2475, 1.235, 0.3275, 1.3175, 0.41, 1.4, 0.575, 1.565, 0.6575, 1.6475, 0.74, 1.73, 0.8225, 1.8125, 0.905, 1.895, 0.4925],
  "SoftwareVersions": "syngo MR E11",
  "SpacingBetweenSlices": 2,
  "StationName": "AWP166078",
  "TaskName": "action",
  "TotalReadoutTime": 0.0534586,
  "TxRefAmp": 251.967,
  "dcmmeta_affine": [
    [-2.0, 0.0, 0.0, 100.67796325683594],
    [0.0, 1.9605423212051392, -0.39531469345092773, -74.68665313720703],
    [0.0, 0.39531469345092773, 1.9605423212051392, -67.29412841796875],
    [0.0, 0.0, 0.0, 1.0]
],
  "dcmmeta_reorient_transform": [
    [0.0, -1.0, 0.0, 99.0],
    [1.0, 0.0, 0.0, 0.0],
    [0.0, 0.0, 1.0, 0.0],
    [0.0, 0.0, 0.0, 1.0]
],
  "dcmmeta_shape": [100, 100, 72, 156],
  "dcmmeta_slice_dim": 2,
  "dcmmeta_version": 0.6,
  "global": {
    "const": {
      "AcquisitionMatrix": [100, 0, 0, 100],
      "AngioFlag": "N",
      "BitsAllocated": 16,
      "BitsStored": 12,
      "BodyPartExamined": "BRAIN",
      "Columns": 900,
      "EchoNumbers": 1,
      "EchoTime": 34.0,
      "EchoTrainLength": 100,
      "FlipAngle": 90.0,
      "HighBit": 11,
      "ImageOrientationPatient": [1.0, 0.0, 0.0, 0.0, 0.98027117266369, -0.1976573500899],
      "ImagePositionPatient": [-900.67796611786, -903.62397444945, 129.96790521151],
      "ImageType": [
        "ORIGINAL",
        "PRIMARY",
        "M",
        "ND",
        "MOSAIC"
],
      "ImagedNucleus": "1H",
      "ImagingFrequency": 123.257706,
      "InPlanePhaseEncodingDirection": "COL",
      "MRAcquisitionType": "2D",
      "MagneticFieldStrength": 3.0,
      "Manufacturer": "SIEMENS",
      "ManufacturerModelName": "Prisma",
      "Modality": "MR",
      "NumberOfAverages": 1.0,
      "NumberOfPhaseEncodingSteps": 100,
      "PercentPhaseFieldOfView": 100.0,
      "PercentSampling": 100.0,
      "PerformedProcedureStepStartTime": "125606.019000",
      "PhotometricInterpretation": "MONOCHROME2",
      "PixelBandwidth": 2380.0,
      "PixelRepresentation": 0,
      "PixelSpacing": [2.0, 2.0],
      "ProtocolName": "bold_100x100_s3_2x2x2_static_156",
      "RepetitionTime": 2000.0,
      "Rows": 900,
      "SAR": 0.08440879727838,
      "SamplesPerPixel": 1,
      "ScanOptions": "FS",
      "ScanningSequence": "EP",
      "SequenceName": "*epfid2d1_100",
      "SequenceVariant": "SK",
      "SeriesDescription": "bold_100x100_s3_2x2x2_static_156",
      "SeriesNumber": 15,
      "SeriesTime": "140353.012000",
      "SliceLocation": -51.204129417035,
      "SliceThickness": 2.0,
      "SmallestImagePixelValue": 0,
      "SoftwareVersions": "syngo MR E11",
      "SpacingBetweenSlices": 1.9999999832531,
      "SpecificCharacterSet": "ISO_IR 100",
      "StudyID": "1",
      "StudyTime": "125605.925000",
      "TransmitCoilName": "Body",
      "VariableFlipAngleFlag": "N",
      "WindowCenterWidthExplanation": "Algo1",
      "dBdt": 0.0},
    "slices": {}
  },
  "time": {
    "samples": {
      "AcquisitionNumber": [1, 2, 3, 4, 5, 6, 7, 8, 9, 10, 11, 12, 13, 14, 15, 16, 17, 18, 19, 20, 21, 22, 23, 24, 25, 26, 27, 28, 29, 30, 31, 32, 33, 34, 35, 36, 37, 38, 39, 40, 41, 42, 43, 44, 45, 46, 47, 48, 49, 50, 51, 52, 53, 54, 55, 56, 57, 58, 59, 60, 61, 62, 63, 64, 65, 66, 67, 68, 69, 70, 71, 72, 73, 74, 75, 76, 77, 78, 79, 80, 81, 82, 83, 84, 85, 86, 87, 88, 89, 90, 91, 92, 93, 94, 95, 96, 97, 98, 99, 100, 101, 102, 103, 104, 105, 106, 107, 108, 109, 110, 111, 112, 113, 114, 115, 116, 117, 118, 119, 120, 121, 122, 123, 124, 125, 126, 127, 128, 129, 130, 131, 132, 133, 134, 135, 136, 137, 138, 139, 140, 141, 142, 143, 144, 145, 146, 147, 148, 149, 150, 151, 152, 153, 154, 155, 156],
      "AcquisitionTime": ["140350.960000", "140352.960000", "140354.960000", "140356.960000", "140358.960000", "140400.960000", "140402.960000", "140404.960000", "140406.960000", "140408.960000", "140410.960000", "140412.960000", "140414.960000", "140416.960000", "140418.960000", "140420.960000", "140422.960000", "140424.960000", "140426.960000", "140428.960000", "140430.960000", "140432.960000", "140434.960000", "140436.960000", "140438.960000", "140440.960000", "140442.960000", "140444.960000", "140446.960000", "140448.960000", "140450.960000", "140452.960000", "140454.960000", "140456.960000", "140458.960000", "140500.960000", "140502.960000", "140504.960000", "140506.960000", "140508.960000", "140510.960000", "140512.960000", "140514.960000", "140516.960000", "140518.960000", "140520.960000", "140522.960000", "140524.960000", "140526.960000", "140528.960000", "140530.960000", "140532.960000", "140534.960000", "140536.960000", "140538.960000", "140540.960000", "140542.960000", "140544.960000", "140546.960000", "140548.960000", "140550.960000", "140552.960000", "140554.960000", "140556.960000", "140558.960000", "140600.960000", "140602.960000", "140604.960000", "140606.960000", "140608.960000", "140610.960000", "140612.960000", "140614.960000", "140616.960000", "140618.960000", "140620.960000", "140622.960000", "140624.960000", "140626.960000", "140628.960000", "140630.960000", "140632.960000", "140634.960000", "140636.960000", "140638.960000", "140640.960000", "140642.960000", "140644.960000", "140646.960000", "140648.960000", "140650.960000", "140652.960000", "140654.960000", "140656.960000", "140658.960000", "140700.960000", "140702.960000", "140704.960000", "140706.960000", "140708.960000", "140710.960000", "140712.960000", "140714.960000", "140716.960000", "140718.960000", "140720.960000", "140722.960000", "140724.960000", "140726.960000", "140728.960000", "140730.960000", "140732.960000", "140734.960000", "140736.960000", "140738.960000", "140740.960000", "140742.960000", "140744.960000", "140746.960000", "140748.960000", "140750.960000", "140752.960000", "140754.960000", "140756.960000", "140758.960000", "140800.960000", "140802.960000", "140804.960000", "140806.960000", "140808.960000", "140810.960000", "140812.960000", "140814.960000", "140816.960000", "140818.960000", "140820.960000", "140822.960000", "140824.960000", "140826.960000", "140828.960000", "140830.960000", "140832.960000", "140834.960000", "140836.960000", "140838.960000", "140840.960000", "140842.960000", "140844.960000", "140846.960000", "140848.960000", "140850.960000", "140852.960000", "140854.960000", "140856.960000", "140858.960000", "140900.960000"],
      "ContentTime": ["140353.016000", "140354.513000", "140356.512000", "140358.511000", "140400.511000", "140402.511000", "140404.512000", "140406.511000", "140408.512000", "140410.511000", "140412.513000", "140414.511000", "140416.511000", "140418.511000", "140420.511000", "140422.511000", "140425.012000", "140426.511000", "140428.512000", "140430.513000", "140432.512000", "140434.511000", "140436.512000", "140438.512000", "140440.512000", "140442.511000", "140444.512000", "140446.512000", "140448.512000", "140450.511000", "140452.512000", "140454.512000", "140456.512000", "140458.512000", "140500.512000", "140502.511000", "140504.513000", "140507.011000", "140508.512000", "140510.512000", "140512.511000", "140514.512000", "140516.511000", "140518.511000", "140520.512000", "140522.512000", "140524.512000", "140526.511000", "140528.511000", "140530.512000", "140532.511000", "140534.512000", "140537.012000", "140538.511000", "140540.512000", "140542.511000", "140544.511000", "140546.511000", "140548.511000", "140550.512000", "140552.512000", "140554.512000", "140556.512000", "140558.513000", "140600.512000", "140602.511000", "140604.511000", "140606.511000", "140608.511000", "140610.511000", "140612.512000", "140614.512000", "140616.511000", "140618.511000", "140620.511000", "140622.512000", "140624.511000", "140626.511000", "140628.511000", "140630.511000", "140632.513000", "140634.512000", "140636.512000", "140638.512000", "140640.512000", "140643.012000", "140644.511000", "140646.511000", "140648.513000", "140650.513000", "140652.512000", "140654.512000", "140657.012000", "140658.512000", "140700.512000", "140702.511000", "140704.511000", "140706.513000", "140708.512000", "140710.512000", "140712.512000", "140714.511000", "140716.511000", "140718.511000", "140720.512000", "140722.511000", "140724.512000", "140726.511000", "140728.512000", "140730.511000", "140732.512000", "140734.512000", "140736.512000", "140738.512000", "140740.511000", "140742.513000", "140744.512000", "140746.511000", "140748.512000", "140750.512000", "140753.011000", "140754.511000", "140756.512000", "140758.512000", "140800.512000", "140802.511000", "140804.511000", "140806.512000", "140808.512000", "140810.512000", "140813.011000", "140814.512000", "140817.013000", "140818.513000", "140820.512000", "140822.512000", "140824.512000", "140826.512000", "140828.512000", "140830.512000", "140832.511000", "140834.513000", "140836.512000", "140838.512000", "140840.511000", "140842.512000", "140845.011000", "140846.512000", "140848.512000", "140850.512000", "140852.513000", "140855.012000", "140856.511000", "140858.512000", "140900.522000", "140902.438000"],
      "InstanceCreationTime": ["140353.016000", "140354.513000", "140356.512000", "140358.511000", "140400.511000", "140402.511000", "140404.512000", "140406.511000", "140408.512000", "140410.511000", "140412.513000", "140414.511000", "140416.511000", "140418.511000", "140420.511000", "140422.511000", "140425.012000", "140426.511000", "140428.512000", "140430.513000", "140432.512000", "140434.511000", "140436.512000", "140438.512000", "140440.512000", "140442.511000", "140444.512000", "140446.512000", "140448.512000", "140450.511000", "140452.512000", "140454.512000", "140456.512000", "140458.512000", "140500.512000", "140502.511000", "140504.513000", "140507.011000", "140508.512000", "140510.512000", "140512.511000", "140514.512000", "140516.511000", "140518.511000", "140520.512000", "140522.512000", "140524.512000", "140526.511000", "140528.511000", "140530.512000", "140532.511000", "140534.512000", "140537.012000", "140538.511000", "140540.512000", "140542.511000", "140544.511000", "140546.511000", "140548.511000", "140550.512000", "140552.512000", "140554.512000", "140556.512000", "140558.513000", "140600.512000", "140602.511000", "140604.511000", "140606.511000", "140608.511000", "140610.511000", "140612.512000", "140614.512000", "140616.511000", "140618.511000", "140620.511000", "140622.512000", "140624.511000", "140626.511000", "140628.511000", "140630.511000", "140632.513000", "140634.512000", "140636.512000", "140638.512000", "140640.512000", "140643.012000", "140644.511000", "140646.511000", "140648.513000", "140650.513000", "140652.512000", "140654.512000", "140657.012000", "140658.512000", "140700.512000", "140702.511000", "140704.511000", "140706.513000", "140708.512000", "140710.512000", "140712.512000", "140714.511000", "140716.511000", "140718.511000", "140720.512000", "140722.511000", "140724.512000", "140726.511000", "140728.512000", "140730.511000", "140732.512000", "140734.512000", "140736.512000", "140738.512000", "140740.511000", "140742.513000", "140744.512000", "140746.511000", "140748.512000", "140750.512000", "140753.011000", "140754.511000", "140756.512000", "140758.512000", "140800.512000", "140802.511000", "140804.511000", "140806.512000", "140808.512000", "140810.512000", "140813.011000", "140814.512000", "140817.013000", "140818.513000", "140820.512000", "140822.512000", "140824.512000", "140826.512000", "140828.512000", "140830.512000", "140832.511000", "140834.513000", "140836.512000", "140838.512000", "140840.511000", "140842.512000", "140845.011000", "140846.512000", "140848.512000", "140850.512000", "140852.513000", "140855.012000", "140856.511000", "140858.512000", "140900.522000", "140902.438000"],
      "InstanceNumber": [1, 2, 3, 4, 5, 6, 7, 8, 9, 10, 11, 12, 13, 14, 15, 16, 17, 18, 19, 20, 21, 22, 23, 24, 25, 26, 27, 28, 29, 30, 31, 32, 33, 34, 35, 36, 37, 38, 39, 40, 41, 42, 43, 44, 45, 46, 47, 48, 49, 50, 51, 52, 53, 54, 55, 56, 57, 58, 59, 60, 61, 62, 63, 64, 65, 66, 67, 68, 69, 70, 71, 72, 73, 74, 75, 76, 77, 78, 79, 80, 81, 82, 83, 84, 85, 86, 87, 88, 89, 90, 91, 92, 93, 94, 95, 96, 97, 98, 99, 100, 101, 102, 103, 104, 105, 106, 107, 108, 109, 110, 111, 112, 113, 114, 115, 116, 117, 118, 119, 120, 121, 122, 123, 124, 125, 126, 127, 128, 129, 130, 131, 132, 133, 134, 135, 136, 137, 138, 139, 140, 141, 142, 143, 144, 145, 146, 147, 148, 149, 150, 151, 152, 153, 154, 155, 156],
      "LargestImagePixelValue": [3944, 3873, 3837, 3898, 3867, 3903, 3873, 3864, 3914, 3888, 3875, 3861, 3850, 3789, 3939, 3851, 3905, 3851, 3867, 3879, 3906, 3861, 3864, 3859, 3882, 3887, 3831, 3879, 3808, 3858, 3939, 3871, 3875, 3846, 3848, 3857, 3885, 3862, 3809, 3812, 3814, 3875, 3831, 3879, 3860, 3859, 3861, 3835, 3845, 3857, 3878, 3829, 3859, 3862, 3901, 3848, 3810, 3896, 3864, 3870, 3867, 3840, 3866, 3840, 3904, 3909, 3920, 3924, 3884, 3890, 3876, 3884, 3879, 3868, 3877, 3858, 3898, 3847, 3879, 3889, 3895, 3882, 3850, 3882, 3904, 3930, 3856, 3873, 3886, 3892, 3899, 3912, 3882, 3868, 3860, 3871, 3850, 3875, 3835, 3864, 3847, 3857, 3876, 3858, 3865, 3845, 3900, 3873, 3887, 3893, 3878, 3864, 3869, 3812, 3872, 3827, 3819, 3820, 3855, 3833, 3865, 3893, 3866, 3897, 3889, 3896, 3901, 3847, 3882, 3871, 3947, 3905, 3904, 3867, 3890, 3893, 3882, 3866, 3873, 3855, 3860, 3884, 3878, 3885, 3887, 3919, 3893, 3928, 3901, 3907, 3892, 3877, 3869, 3888, 3876, 3880],
      "WindowCenter": [863.0, 860.0, 859.0, 860.0, 859.0, 858.0, 858.0, 858.0, 858.0, 858.0, 858.0, 860.0, 860.0, 860.0, 861.0, 858.0, 857.0, 855.0, 854.0, 854.0, 854.0, 855.0, 857.0, 857.0, 859.0, 860.0, 859.0, 860.0, 858.0, 859.0, 859.0, 857.0, 858.0, 858.0, 858.0, 858.0, 858.0, 858.0, 858.0, 859.0, 859.0, 859.0, 858.0, 859.0, 859.0, 860.0, 860.0, 859.0, 858.0, 858.0, 858.0, 858.0, 860.0, 860.0, 862.0, 861.0, 859.0, 858.0, 857.0, 858.0, 859.0, 859.0, 858.0, 858.0, 858.0, 858.0, 858.0, 859.0, 858.0, 859.0, 859.0, 859.0, 859.0, 858.0, 858.0, 858.0, 860.0, 860.0, 861.0, 860.0, 859.0, 859.0, 858.0, 857.0, 857.0, 858.0, 858.0, 859.0, 858.0, 858.0, 857.0, 858.0, 860.0, 858.0, 858.0, 858.0, 857.0, 858.0, 859.0, 860.0, 859.0, 858.0, 857.0, 857.0, 858.0, 858.0, 858.0, 858.0, 858.0, 859.0, 860.0, 860.0, 859.0, 859.0, 860.0, 860.0, 860.0, 859.0, 858.0, 859.0, 859.0, 859.0, 858.0, 859.0, 859.0, 859.0, 860.0, 859.0, 858.0, 858.0, 858.0, 858.0, 858.0, 858.0, 858.0, 858.0, 859.0, 859.0, 858.0, 858.0, 857.0, 857.0, 858.0, 859.0, 860.0, 859.0, 858.0, 857.0, 857.0, 858.0, 858.0, 859.0, 858.0, 858.0, 859.0, 859.0],
      "WindowWidth": [1862.0, 1853.0, 1850.0, 1851.0, 1849.0, 1847.0, 1846.0, 1846.0, 1847.0, 1847.0, 1847.0, 1850.0, 1852.0, 1851.0, 1854.0, 1846.0, 1844.0, 1839.0, 1836.0, 1837.0, 1837.0, 1840.0, 1843.0, 1844.0, 1849.0, 1853.0, 1850.0, 1851.0, 1847.0, 1848.0, 1849.0, 1844.0, 1847.0, 1846.0, 1847.0, 1846.0, 1847.0, 1848.0, 1848.0, 1848.0, 1849.0, 1851.0, 1848.0, 1849.0, 1850.0, 1852.0, 1851.0, 1849.0, 1848.0, 1846.0, 1846.0, 1846.0, 1852.0, 1853.0, 1856.0, 1854.0, 1848.0, 1847.0, 1844.0, 1846.0, 1850.0, 1849.0, 1847.0, 1847.0, 1846.0, 1846.0, 1846.0, 1851.0, 1847.0, 1850.0, 1848.0, 1849.0, 1848.0, 1847.0, 1848.0, 1848.0, 1851.0, 1851.0, 1853.0, 1852.0, 1849.0, 1848.0, 1847.0, 1844.0, 1843.0, 1846.0, 1847.0, 1848.0, 1846.0, 1847.0, 1844.0, 1848.0, 1851.0, 1848.0, 1846.0, 1846.0, 1845.0, 1848.0, 1847.0, 1851.0, 1848.0, 1848.0, 1845.0, 1845.0, 1847.0, 1847.0, 1847.0, 1847.0, 1846.0, 1849.0, 1851.0, 1851.0, 1849.0, 1848.0, 1851.0, 1851.0, 1850.0, 1849.0, 1848.0, 1848.0, 1849.0, 1849.0, 1847.0, 1850.0, 1850.0, 1851.0, 1852.0, 1850.0, 1848.0, 1845.0, 1846.0, 1848.0, 1845.0, 1845.0, 1846.0, 1846.0, 1849.0, 1849.0, 1847.0, 1846.0, 1843.0, 1845.0, 1847.0, 1849.0, 1851.0, 1850.0, 1847.0, 1844.0, 1843.0, 1845.0, 1847.0, 1849.0, 1847.0, 1847.0, 1849.0, 1849.0]
    },
    "slices": {}
  }
}