{
  "AcquisitionMatrixPE": 100,
  "AcquisitionNumber": 1,
  "AcquisitionTime": "13:40:57.745000",
  "BandwidthPerPixelPhaseEncode": 18.519,
  "BaseResolution": 100,
  "BodyPartExamined": "BRAIN",
  "CoilCombinationMethod": "Sum of Squares",
  "ConsistencyInfo": "N4_VE11C_LATEST_20160120",
  "ConversionSoftware": "dcm2niix",
  "ConversionSoftwareVersion": "v1.0.20211006",
  "DerivedVendorReportedEchoSpacing": 0.000539986,
  "DeviceSerialNumber": "166078",
  "DwellTime": 2.1e-06,
  "EchoTime": 0.034,
  "EchoTrainLength": 100,
  "EffectiveEchoSpacing": 0.000539986,
  "FlipAngle": 90,
  "ImageOrientationPatientDICOM": [1, 0, 0, 0, 0.980271, -0.197657],
  "ImageOrientationText": "Tra>Cor(-11.4)",
  "ImageType": [
    "ORIGINAL",
    "PRIMARY",
    "M",
    "ND",
    "MOSAIC"
],
  "ImagingFrequency": 123.258,
  "InPlanePhaseEncodingDirectionDICOM": "COL",
  "InstitutionAddress": "Street StreetNo,Bei Jing,District,CN,ZIP",
  "InstitutionName": "BeiJing Normal University",
  "InstitutionalDepartmentName": "Department",
  "MRAcquisitionType": "2D",
  "MagneticFieldStrength": 3,
  "Manufacturer": "Siemens",
  "ManufacturersModelName": "Prisma",
  "Modality": "MR",
  "MultibandAccelerationFactor": 3,
  "PartialFourier": 1,
  "PatientPosition": "HFS",
  "PercentPhaseFOV": 100,
  "PercentSampling": 100,
  "PhaseEncodingDirection": "j-",
  "PhaseEncodingSteps": 100,
  "PhaseResolution": 1,
  "PixelBandwidth": 2380,
  "ProcedureStepDescription": "BNU_P2018_64CH^Zhen.ZongLei",
  "ProtocolName": "bold_100x100_s3_2x2x2_static_156",
  "PulseSequenceDetails": "%SiemensSeq%\\ep2d_bold",
  "ReceiveCoilActiveElements": "HC1-7;NC1",
  "ReceiveCoilName": "HeadNeck_64",
  "ReconMatrixPE": 100,
  "RefLinesPE": 32,
  "RepetitionTime": 2,
  "SAR": 0.0844088,
  "ScanOptions": "FS",
  "ScanningSequence": "EP",
  "SequenceName": "*epfid2d1_100",
  "SequenceVariant": "SK",
  "SeriesDescription": "bold_100x100_s3_2x2x2_static_156",
  "SeriesNumber": 11,
  "ShimSetting": [-5446, -11513, -1244, 294, 9, -142, -87, 47],
  "SliceThickness": 2,
  "SliceTiming": [1.485, 0, 0.99, 0.0825, 1.0725, 0.165, 1.155, 0.2475, 1.2375, 0.33, 1.32, 0.4125, 1.4025, 0.5775, 1.5675, 0.66, 1.65, 0.7425, 1.7325, 0.825, 1.815, 0.9075, 1.8975, 0.495, 1.485, 0, 0.99, 0.0825, 1.0725, 0.165, 1.155, 0.2475, 1.2375, 0.33, 1.32, 0.4125, 1.4025, 0.5775, 1.5675, 0.66, 1.65, 0.7425, 1.7325, 0.825, 1.815, 0.9075, 1.8975, 0.495, 1.485, 0, 0.99, 0.0825, 1.0725, 0.165, 1.155, 0.2475, 1.2375, 0.33, 1.32, 0.4125, 1.4025, 0.5775, 1.5675, 0.66, 1.65, 0.7425, 1.7325, 0.825, 1.815, 0.9075, 1.8975, 0.495],
  "SoftwareVersions": "syngo MR E11",
  "SpacingBetweenSlices": 2,
  "StationName": "AWP166078",
  "TaskName": "action",
  "TotalReadoutTime": 0.0534586,
  "TxRefAmp": 251.967,
  "dcmmeta_affine": [
    [-2.0, 0.0, 0.0, 100.67796325683594],
    [0.0, 1.9605423212051392, -0.39531469345092773, -74.68665313720703],
    [0.0, 0.39531469345092773, 1.9605423212051392, -67.29412841796875],
    [0.0, 0.0, 0.0, 1.0]
],
  "dcmmeta_reorient_transform": [
    [0.0, -1.0, 0.0, 99.0],
    [1.0, 0.0, 0.0, 0.0],
    [0.0, 0.0, 1.0, 0.0],
    [0.0, 0.0, 0.0, 1.0]
],
  "dcmmeta_shape": [100, 100, 72, 156],
  "dcmmeta_slice_dim": 2,
  "dcmmeta_version": 0.6,
  "global": {
    "const": {
      "AcquisitionMatrix": [100, 0, 0, 100],
      "AngioFlag": "N",
      "BitsAllocated": 16,
      "BitsStored": 12,
      "BodyPartExamined": "BRAIN",
      "Columns": 900,
      "EchoNumbers": 1,
      "EchoTime": 34.0,
      "EchoTrainLength": 100,
      "FlipAngle": 90.0,
      "HighBit": 11,
      "ImageOrientationPatient": [1.0, 0.0, 0.0, 0.0, 0.98027117266369, -0.1976573500899],
      "ImagePositionPatient": [-900.67796611786, -903.62397444945, 129.96790521151],
      "ImageType": [
        "ORIGINAL",
        "PRIMARY",
        "M",
        "ND",
        "MOSAIC"
],
      "ImagedNucleus": "1H",
      "ImagingFrequency": 123.257694,
      "InPlanePhaseEncodingDirection": "COL",
      "MRAcquisitionType": "2D",
      "MagneticFieldStrength": 3.0,
      "Manufacturer": "SIEMENS",
      "ManufacturerModelName": "Prisma",
      "Modality": "MR",
      "NumberOfAverages": 1.0,
      "NumberOfPhaseEncodingSteps": 100,
      "PercentPhaseFieldOfView": 100.0,
      "PercentSampling": 100.0,
      "PerformedProcedureStepStartTime": "125606.019000",
      "PhotometricInterpretation": "MONOCHROME2",
      "PixelBandwidth": 2380.0,
      "PixelRepresentation": 0,
      "PixelSpacing": [2.0, 2.0],
      "ProtocolName": "bold_100x100_s3_2x2x2_static_156",
      "RepetitionTime": 2000.0,
      "Rows": 900,
      "SAR": 0.08440879727838,
      "SamplesPerPixel": 1,
      "ScanOptions": "FS",
      "ScanningSequence": "EP",
      "SequenceName": "*epfid2d1_100",
      "SequenceVariant": "SK",
      "SeriesDescription": "bold_100x100_s3_2x2x2_static_156",
      "SeriesNumber": 11,
      "SeriesTime": "134100.068000",
      "SliceLocation": -51.204129417035,
      "SliceThickness": 2.0,
      "SmallestImagePixelValue": 0,
      "SoftwareVersions": "syngo MR E11",
      "SpacingBetweenSlices": 1.9999999832531,
      "SpecificCharacterSet": "ISO_IR 100",
      "StudyID": "1",
      "StudyTime": "125605.925000",
      "TransmitCoilName": "Body",
      "VariableFlipAngleFlag": "N",
      "WindowCenterWidthExplanation": "Algo1",
      "dBdt": 0.0},
    "slices": {}
  },
  "time": {
    "samples": {
      "AcquisitionNumber": [1, 2, 3, 4, 5, 6, 7, 8, 9, 10, 11, 12, 13, 14, 15, 16, 17, 18, 19, 20, 21, 22, 23, 24, 25, 26, 27, 28, 29, 30, 31, 32, 33, 34, 35, 36, 37, 38, 39, 40, 41, 42, 43, 44, 45, 46, 47, 48, 49, 50, 51, 52, 53, 54, 55, 56, 57, 58, 59, 60, 61, 62, 63, 64, 65, 66, 67, 68, 69, 70, 71, 72, 73, 74, 75, 76, 77, 78, 79, 80, 81, 82, 83, 84, 85, 86, 87, 88, 89, 90, 91, 92, 93, 94, 95, 96, 97, 98, 99, 100, 101, 102, 103, 104, 105, 106, 107, 108, 109, 110, 111, 112, 113, 114, 115, 116, 117, 118, 119, 120, 121, 122, 123, 124, 125, 126, 127, 128, 129, 130, 131, 132, 133, 134, 135, 136, 137, 138, 139, 140, 141, 142, 143, 144, 145, 146, 147, 148, 149, 150, 151, 152, 153, 154, 155, 156],
      "AcquisitionTime": ["134057.745000", "134059.745000", "134101.745000", "134103.745000", "134105.745000", "134107.745000", "134109.745000", "134111.745000", "134113.745000", "134115.745000", "134117.745000", "134119.745000", "134121.745000", "134123.745000", "134125.745000", "134127.745000", "134129.745000", "134131.745000", "134133.745000", "134135.745000", "134137.745000", "134139.745000", "134141.745000", "134143.745000", "134145.745000", "134147.745000", "134149.745000", "134151.745000", "134153.745000", "134155.745000", "134157.745000", "134159.745000", "134201.745000", "134203.745000", "134205.745000", "134207.745000", "134209.745000", "134211.745000", "134213.745000", "134215.745000", "134217.745000", "134219.745000", "134221.745000", "134223.745000", "134225.745000", "134227.745000", "134229.745000", "134231.745000", "134233.745000", "134235.745000", "134237.745000", "134239.745000", "134241.745000", "134243.745000", "134245.745000", "134247.745000", "134249.745000", "134251.745000", "134253.745000", "134255.745000", "134257.745000", "134259.745000", "134301.745000", "134303.745000", "134305.745000", "134307.745000", "134309.745000", "134311.745000", "134313.745000", "134315.745000", "134317.745000", "134319.745000", "134321.745000", "134323.745000", "134325.745000", "134327.745000", "134329.745000", "134331.745000", "134333.745000", "134335.745000", "134337.745000", "134339.745000", "134341.745000", "134343.745000", "134345.745000", "134347.745000", "134349.745000", "134351.745000", "134353.745000", "134355.745000", "134357.745000", "134359.745000", "134401.745000", "134403.745000", "134405.745000", "134407.745000", "134409.745000", "134411.745000", "134413.745000", "134415.745000", "134417.745000", "134419.745000", "134421.745000", "134423.745000", "134425.745000", "134427.745000", "134429.745000", "134431.745000", "134433.745000", "134435.745000", "134437.745000", "134439.745000", "134441.745000", "134443.745000", "134445.745000", "134447.745000", "134449.745000", "134451.745000", "134453.745000", "134455.745000", "134457.745000", "134459.745000", "134501.745000", "134503.745000", "134505.745000", "134507.745000", "134509.745000", "134511.745000", "134513.745000", "134515.745000", "134517.745000", "134519.745000", "134521.745000", "134523.745000", "134525.745000", "134527.745000", "134529.745000", "134531.745000", "134533.745000", "134535.745000", "134537.745000", "134539.745000", "134541.745000", "134543.745000", "134545.745000", "134547.745000", "134549.745000", "134551.745000", "134553.745000", "134555.745000", "134557.745000", "134559.745000", "134601.745000", "134603.745000", "134605.745000", "134607.745000"],
      "ContentTime": ["134100.072000", "134101.568000", "134103.568000", "134105.567000", "134107.568000", "134109.568000", "134111.568000", "134113.567000", "134115.567000", "134117.567000", "134119.568000", "134121.567000", "134123.568000", "134125.567000", "134127.569000", "134129.567000", "134131.567000", "134133.567000", "134135.568000", "134137.567000", "134139.568000", "134141.567000", "134143.567000", "134145.568000", "134147.568000", "134149.568000", "134151.568000", "134153.567000", "134155.568000", "134157.568000", "134159.568000", "134201.568000", "134203.567000", "134205.568000", "134207.567000", "134209.567000", "134211.567000", "134213.567000", "134215.567000", "134217.567000", "134219.567000", "134221.568000", "134223.567000", "134225.568000", "134227.567000", "134229.567000", "134231.568000", "134233.568000", "134235.568000", "134237.568000", "134239.568000", "134241.568000", "134243.567000", "134245.568000", "134247.568000", "134249.568000", "134251.568000", "134253.568000", "134255.568000", "134257.567000", "134259.567000", "134301.567000", "134303.568000", "134305.567000", "134307.568000", "134309.568000", "134311.568000", "134313.568000", "134315.568000", "134317.567000", "134319.567000", "134321.567000", "134323.568000", "134325.568000", "134327.568000", "134329.568000", "134331.567000", "134333.568000", "134335.567000", "134337.567000", "134339.568000", "134341.567000", "134343.567000", "134345.567000", "134347.568000", "134349.567000", "134351.568000", "134353.567000", "134355.568000", "134357.568000", "134359.568000", "134401.568000", "134403.567000", "134405.567000", "134407.568000", "134409.568000", "134411.568000", "134413.568000", "134415.568000", "134417.568000", "134419.567000", "134421.568000", "134423.567000", "134425.567000", "134427.568000", "134429.567000", "134431.568000", "134433.567000", "134435.567000", "134437.568000", "134439.567000", "134441.567000", "134443.567000", "134445.567000", "134447.568000", "134449.567000", "134451.567000", "134453.568000", "134455.567000", "134457.568000", "134459.568000", "134501.568000", "134503.567000", "134505.567000", "134507.568000", "134509.567000", "134511.568000", "134513.568000", "134515.568000", "134517.568000", "134519.568000", "134521.568000", "134523.568000", "134525.568000", "134527.568000", "134529.568000", "134531.568000", "134533.567000", "134535.567000", "134537.567000", "134539.568000", "134541.568000", "134543.567000", "134545.567000", "134547.567000", "134549.567000", "134551.568000", "134553.568000", "134555.567000", "134557.568000", "134559.568000", "134601.568000", "134603.568000", "134605.568000", "134607.569000", "134609.293000"],
      "InstanceCreationTime": ["134100.072000", "134101.568000", "134103.568000", "134105.567000", "134107.568000", "134109.568000", "134111.568000", "134113.567000", "134115.567000", "134117.567000", "134119.568000", "134121.567000", "134123.568000", "134125.567000", "134127.569000", "134129.567000", "134131.567000", "134133.567000", "134135.568000", "134137.567000", "134139.568000", "134141.567000", "134143.567000", "134145.568000", "134147.568000", "134149.568000", "134151.568000", "134153.567000", "134155.568000", "134157.568000", "134159.568000", "134201.568000", "134203.567000", "134205.568000", "134207.567000", "134209.567000", "134211.567000", "134213.567000", "134215.567000", "134217.567000", "134219.567000", "134221.568000", "134223.567000", "134225.568000", "134227.567000", "134229.567000", "134231.568000", "134233.568000", "134235.568000", "134237.568000", "134239.568000", "134241.568000", "134243.567000", "134245.568000", "134247.568000", "134249.568000", "134251.568000", "134253.568000", "134255.568000", "134257.567000", "134259.567000", "134301.567000", "134303.568000", "134305.567000", "134307.568000", "134309.568000", "134311.568000", "134313.568000", "134315.568000", "134317.567000", "134319.567000", "134321.567000", "134323.568000", "134325.568000", "134327.568000", "134329.568000", "134331.567000", "134333.568000", "134335.567000", "134337.567000", "134339.568000", "134341.567000", "134343.567000", "134345.567000", "134347.568000", "134349.567000", "134351.568000", "134353.567000", "134355.568000", "134357.568000", "134359.568000", "134401.568000", "134403.567000", "134405.567000", "134407.568000", "134409.568000", "134411.568000", "134413.568000", "134415.568000", "134417.568000", "134419.567000", "134421.568000", "134423.567000", "134425.567000", "134427.568000", "134429.567000", "134431.568000", "134433.567000", "134435.567000", "134437.568000", "134439.567000", "134441.567000", "134443.567000", "134445.567000", "134447.568000", "134449.567000", "134451.567000", "134453.568000", "134455.567000", "134457.568000", "134459.568000", "134501.568000", "134503.567000", "134505.567000", "134507.568000", "134509.567000", "134511.568000", "134513.568000", "134515.568000", "134517.568000", "134519.568000", "134521.568000", "134523.568000", "134525.568000", "134527.568000", "134529.568000", "134531.568000", "134533.567000", "134535.567000", "134537.567000", "134539.568000", "134541.568000", "134543.567000", "134545.567000", "134547.567000", "134549.567000", "134551.568000", "134553.568000", "134555.567000", "134557.568000", "134559.568000", "134601.568000", "134603.568000", "134605.568000", "134607.569000", "134609.293000"],
      "InstanceNumber": [1, 2, 3, 4, 5, 6, 7, 8, 9, 10, 11, 12, 13, 14, 15, 16, 17, 18, 19, 20, 21, 22, 23, 24, 25, 26, 27, 28, 29, 30, 31, 32, 33, 34, 35, 36, 37, 38, 39, 40, 41, 42, 43, 44, 45, 46, 47, 48, 49, 50, 51, 52, 53, 54, 55, 56, 57, 58, 59, 60, 61, 62, 63, 64, 65, 66, 67, 68, 69, 70, 71, 72, 73, 74, 75, 76, 77, 78, 79, 80, 81, 82, 83, 84, 85, 86, 87, 88, 89, 90, 91, 92, 93, 94, 95, 96, 97, 98, 99, 100, 101, 102, 103, 104, 105, 106, 107, 108, 109, 110, 111, 112, 113, 114, 115, 116, 117, 118, 119, 120, 121, 122, 123, 124, 125, 126, 127, 128, 129, 130, 131, 132, 133, 134, 135, 136, 137, 138, 139, 140, 141, 142, 143, 144, 145, 146, 147, 148, 149, 150, 151, 152, 153, 154, 155, 156],
      "LargestImagePixelValue": [3851, 3824, 3800, 3803, 3787, 3774, 3774, 3748, 3801, 3767, 3779, 3785, 3782, 3842, 3810, 3809, 3818, 3801, 3832, 3842, 3788, 3841, 3815, 3831, 3792, 3807, 3790, 3810, 3833, 3802, 3840, 3815, 3835, 3808, 3843, 3777, 3852, 3788, 3851, 3812, 3828, 3815, 3813, 3841, 3821, 3816, 3846, 3870, 3815, 3822, 3830, 3809, 3821, 3810, 3815, 3800, 3800, 3807, 3785, 3850, 3772, 3834, 3826, 3830, 3825, 3853, 3805, 3822, 3840, 3814, 3828, 3814, 3837, 3817, 3834, 3855, 3821, 3825, 3836, 3890, 3811, 3878, 3854, 3864, 3820, 3794, 3828, 3813, 3849, 3822, 3819, 3831, 3848, 3833, 3815, 3873, 3823, 3833, 3775, 3816, 3809, 3831, 3854, 3829, 3822, 3856, 3881, 3841, 3833, 3848, 3831, 3818, 3836, 3850, 3842, 3841, 3842, 3820, 3842, 3826, 3840, 3820, 3856, 3848, 3860, 3836, 3854, 3863, 3813, 3865, 3864, 3849, 3839, 3825, 3824, 3851, 3812, 3839, 3863, 3868, 3819, 3866, 3850, 3809, 3845, 3858, 3873, 3839, 3844, 3817, 3867, 3854, 3830, 3871, 3875, 3861],
      "WindowCenter": [862.0, 859.0, 857.0, 856.0, 856.0, 856.0, 857.0, 857.0, 857.0, 857.0, 856.0, 856.0, 855.0, 856.0, 856.0, 856.0, 856.0, 855.0, 855.0, 855.0, 854.0, 855.0, 854.0, 854.0, 855.0, 857.0, 858.0, 858.0, 857.0, 855.0, 855.0, 854.0, 854.0, 854.0, 855.0, 854.0, 855.0, 854.0, 855.0, 856.0, 856.0, 855.0, 855.0, 855.0, 855.0, 855.0, 855.0, 855.0, 854.0, 854.0, 854.0, 854.0, 855.0, 854.0, 854.0, 854.0, 855.0, 855.0, 855.0, 856.0, 855.0, 855.0, 854.0, 855.0, 854.0, 855.0, 855.0, 855.0, 855.0, 855.0, 854.0, 854.0, 854.0, 855.0, 856.0, 857.0, 857.0, 856.0, 855.0, 856.0, 855.0, 856.0, 855.0, 855.0, 855.0, 855.0, 855.0, 855.0, 855.0, 855.0, 855.0, 854.0, 854.0, 855.0, 854.0, 855.0, 855.0, 856.0, 856.0, 856.0, 854.0, 854.0, 854.0, 854.0, 855.0, 856.0, 856.0, 856.0, 856.0, 856.0, 855.0, 856.0, 856.0, 856.0, 855.0, 855.0, 855.0, 855.0, 855.0, 855.0, 855.0, 854.0, 855.0, 855.0, 855.0, 856.0, 855.0, 856.0, 856.0, 856.0, 856.0, 855.0, 856.0, 855.0, 855.0, 855.0, 855.0, 855.0, 855.0, 854.0, 854.0, 855.0, 855.0, 855.0, 855.0, 856.0, 856.0, 856.0, 856.0, 856.0, 856.0, 855.0, 854.0, 856.0, 856.0, 856.0],
      "WindowWidth": [1859.0, 1850.0, 1846.0, 1843.0, 1843.0, 1843.0, 1845.0, 1844.0, 1844.0, 1843.0, 1842.0, 1841.0, 1840.0, 1842.0, 1841.0, 1841.0, 1841.0, 1839.0, 1839.0, 1839.0, 1837.0, 1839.0, 1837.0, 1838.0, 1838.0, 1844.0, 1846.0, 1847.0, 1845.0, 1840.0, 1839.0, 1837.0, 1838.0, 1836.0, 1838.0, 1837.0, 1839.0, 1836.0, 1840.0, 1841.0, 1843.0, 1839.0, 1839.0, 1838.0, 1839.0, 1839.0, 1838.0, 1840.0, 1836.0, 1836.0, 1837.0, 1837.0, 1839.0, 1838.0, 1837.0, 1837.0, 1838.0, 1840.0, 1840.0, 1843.0, 1839.0, 1841.0, 1837.0, 1840.0, 1837.0, 1841.0, 1839.0, 1838.0, 1839.0, 1840.0, 1837.0, 1837.0, 1838.0, 1840.0, 1841.0, 1844.0, 1843.0, 1842.0, 1841.0, 1842.0, 1839.0, 1842.0, 1839.0, 1840.0, 1839.0, 1839.0, 1840.0, 1839.0, 1840.0, 1839.0, 1838.0, 1838.0, 1838.0, 1838.0, 1837.0, 1841.0, 1841.0, 1844.0, 1841.0, 1843.0, 1837.0, 1836.0, 1837.0, 1837.0, 1839.0, 1841.0, 1843.0, 1842.0, 1842.0, 1840.0, 1840.0, 1840.0, 1840.0, 1841.0, 1840.0, 1840.0, 1838.0, 1838.0, 1839.0, 1839.0, 1840.0, 1837.0, 1838.0, 1839.0, 1840.0, 1840.0, 1840.0, 1842.0, 1841.0, 1841.0, 1840.0, 1839.0, 1840.0, 1839.0, 1839.0, 1839.0, 1839.0, 1840.0, 1838.0, 1837.0, 1836.0, 1839.0, 1839.0, 1839.0, 1840.0, 1841.0, 1841.0, 1842.0, 1842.0, 1842.0, 1843.0, 1839.0, 1838.0, 1841.0, 1842.0, 1842.0]
    },
    "slices": {}
  }
}