{
  "AcquisitionMatrixPE": 100,
  "AcquisitionNumber": 1,
  "AcquisitionTime": "13:20:49.812500",
  "BandwidthPerPixelPhaseEncode": 18.519,
  "BaseResolution": 100,
  "BodyPartExamined": "BRAIN",
  "CoilCombinationMethod": "Sum of Squares",
  "ConsistencyInfo": "N4_VE11C_LATEST_20160120",
  "ConversionSoftware": "dcm2niix",
  "ConversionSoftwareVersion": "v1.0.20211006",
  "DerivedVendorReportedEchoSpacing": 0.000539986,
  "DeviceSerialNumber": "166078",
  "DwellTime": 2.1e-06,
  "EchoTime": 0.034,
  "EchoTrainLength": 100,
  "EffectiveEchoSpacing": 0.000539986,
  "FlipAngle": 90,
  "ImageOrientationPatientDICOM": [1, 0, 0, 0, 0.980271, -0.197657],
  "ImageOrientationText": "Tra>Cor(-11.4)",
  "ImageType": [
    "ORIGINAL",
    "PRIMARY",
    "M",
    "ND",
    "MOSAIC"
],
  "ImagingFrequency": 123.258,
  "InPlanePhaseEncodingDirectionDICOM": "COL",
  "InstitutionAddress": "Street StreetNo,Bei Jing,District,CN,ZIP",
  "InstitutionName": "BeiJing Normal University",
  "InstitutionalDepartmentName": "Department",
  "MRAcquisitionType": "2D",
  "MagneticFieldStrength": 3,
  "Manufacturer": "Siemens",
  "ManufacturersModelName": "Prisma",
  "Modality": "MR",
  "MultibandAccelerationFactor": 3,
  "PartialFourier": 1,
  "PatientPosition": "HFS",
  "PercentPhaseFOV": 100,
  "PercentSampling": 100,
  "PhaseEncodingDirection": "j-",
  "PhaseEncodingSteps": 100,
  "PhaseResolution": 1,
  "PixelBandwidth": 2380,
  "ProcedureStepDescription": "BNU_P2018_64CH^Zhen.ZongLei",
  "ProtocolName": "bold_100x100_s3_2x2x2_static_156",
  "PulseSequenceDetails": "%SiemensSeq%\\ep2d_bold",
  "ReceiveCoilActiveElements": "HC1-7;NC1",
  "ReceiveCoilName": "HeadNeck_64",
  "ReconMatrixPE": 100,
  "RefLinesPE": 32,
  "RepetitionTime": 2,
  "SAR": 0.0844088,
  "ScanOptions": "FS",
  "ScanningSequence": "EP",
  "SequenceName": "*epfid2d1_100",
  "SequenceVariant": "SK",
  "SeriesDescription": "bold_100x100_s3_2x2x2_static_156",
  "SeriesNumber": 6,
  "ShimSetting": [-5446, -11513, -1244, 294, 9, -142, -87, 47],
  "SliceThickness": 2,
  "SliceTiming": [1.485, 0, 0.99, 0.0825, 1.0725, 0.165, 1.155, 0.2475, 1.2375, 0.33, 1.32, 0.4125, 1.4025, 0.5775, 1.5675, 0.66, 1.65, 0.7425, 1.7325, 0.825, 1.815, 0.9075, 1.895, 0.495, 1.485, 0, 0.99, 0.0825, 1.0725, 0.165, 1.155, 0.2475, 1.2375, 0.33, 1.32, 0.4125, 1.4025, 0.5775, 1.5675, 0.66, 1.65, 0.7425, 1.7325, 0.825, 1.815, 0.9075, 1.895, 0.495, 1.485, 0, 0.99, 0.0825, 1.0725, 0.165, 1.155, 0.2475, 1.2375, 0.33, 1.32, 0.4125, 1.4025, 0.5775, 1.5675, 0.66, 1.65, 0.7425, 1.7325, 0.825, 1.815, 0.9075, 1.895, 0.495],
  "SoftwareVersions": "syngo MR E11",
  "SpacingBetweenSlices": 2,
  "StationName": "AWP166078",
  "TaskName": "action",
  "TotalReadoutTime": 0.0534586,
  "TxRefAmp": 251.967,
  "dcmmeta_affine": [
    [-2.0, 0.0, 0.0, 100.67796325683594],
    [0.0, 1.9605423212051392, -0.39531469345092773, -74.68665313720703],
    [0.0, 0.39531469345092773, 1.9605423212051392, -67.29412841796875],
    [0.0, 0.0, 0.0, 1.0]
],
  "dcmmeta_reorient_transform": [
    [0.0, -1.0, 0.0, 99.0],
    [1.0, 0.0, 0.0, 0.0],
    [0.0, 0.0, 1.0, 0.0],
    [0.0, 0.0, 0.0, 1.0]
],
  "dcmmeta_shape": [100, 100, 72, 156],
  "dcmmeta_slice_dim": 2,
  "dcmmeta_version": 0.6,
  "global": {
    "const": {
      "AcquisitionMatrix": [100, 0, 0, 100],
      "AngioFlag": "N",
      "BitsAllocated": 16,
      "BitsStored": 12,
      "BodyPartExamined": "BRAIN",
      "Columns": 900,
      "EchoNumbers": 1,
      "EchoTime": 34.0,
      "EchoTrainLength": 100,
      "FlipAngle": 90.0,
      "HighBit": 11,
      "ImageOrientationPatient": [1.0, 0.0, 0.0, 0.0, 0.98027117266369, -0.1976573500899],
      "ImagePositionPatient": [-900.67796611786, -903.62397444945, 129.96790521151],
      "ImageType": [
        "ORIGINAL",
        "PRIMARY",
        "M",
        "ND",
        "MOSAIC"
],
      "ImagedNucleus": "1H",
      "ImagingFrequency": 123.257689,
      "InPlanePhaseEncodingDirection": "COL",
      "MRAcquisitionType": "2D",
      "MagneticFieldStrength": 3.0,
      "Manufacturer": "SIEMENS",
      "ManufacturerModelName": "Prisma",
      "Modality": "MR",
      "NumberOfAverages": 1.0,
      "NumberOfPhaseEncodingSteps": 100,
      "PercentPhaseFieldOfView": 100.0,
      "PercentSampling": 100.0,
      "PerformedProcedureStepStartTime": "125606.019000",
      "PhotometricInterpretation": "MONOCHROME2",
      "PixelBandwidth": 2380.0,
      "PixelRepresentation": 0,
      "PixelSpacing": [2.0, 2.0],
      "ProtocolName": "bold_100x100_s3_2x2x2_static_156",
      "RepetitionTime": 2000.0,
      "Rows": 900,
      "SAR": 0.08440879727838,
      "SamplesPerPixel": 1,
      "ScanOptions": "FS",
      "ScanningSequence": "EP",
      "SequenceName": "*epfid2d1_100",
      "SequenceVariant": "SK",
      "SeriesDescription": "bold_100x100_s3_2x2x2_static_156",
      "SeriesNumber": 6,
      "SeriesTime": "132052.083000",
      "SliceLocation": -51.204129417035,
      "SliceThickness": 2.0,
      "SmallestImagePixelValue": 0,
      "SoftwareVersions": "syngo MR E11",
      "SpacingBetweenSlices": 1.9999999832531,
      "SpecificCharacterSet": "ISO_IR 100",
      "StudyID": "1",
      "StudyTime": "125605.925000",
      "TransmitCoilName": "Body",
      "VariableFlipAngleFlag": "N",
      "WindowCenterWidthExplanation": "Algo1",
      "dBdt": 0.0},
    "slices": {}
  },
  "time": {
    "samples": {
      "AcquisitionNumber": [1, 2, 3, 4, 5, 6, 7, 8, 9, 10, 11, 12, 13, 14, 15, 16, 17, 18, 19, 20, 21, 22, 23, 24, 25, 26, 27, 28, 29, 30, 31, 32, 33, 34, 35, 36, 37, 38, 39, 40, 41, 42, 43, 44, 45, 46, 47, 48, 49, 50, 51, 52, 53, 54, 55, 56, 57, 58, 59, 60, 61, 62, 63, 64, 65, 66, 67, 68, 69, 70, 71, 72, 73, 74, 75, 76, 77, 78, 79, 80, 81, 82, 83, 84, 85, 86, 87, 88, 89, 90, 91, 92, 93, 94, 95, 96, 97, 98, 99, 100, 101, 102, 103, 104, 105, 106, 107, 108, 109, 110, 111, 112, 113, 114, 115, 116, 117, 118, 119, 120, 121, 122, 123, 124, 125, 126, 127, 128, 129, 130, 131, 132, 133, 134, 135, 136, 137, 138, 139, 140, 141, 142, 143, 144, 145, 146, 147, 148, 149, 150, 151, 152, 153, 154, 155, 156],
      "AcquisitionTime": ["132049.812500", "132051.812500", "132053.812500", "132055.812500", "132057.812500", "132059.812500", "132101.812500", "132103.812500", "132105.812500", "132107.812500", "132109.812500", "132111.812500", "132113.812500", "132115.812500", "132117.812500", "132119.812500", "132121.812500", "132123.812500", "132125.812500", "132127.812500", "132129.812500", "132131.812500", "132133.812500", "132135.812500", "132137.812500", "132139.812500", "132141.812500", "132143.812500", "132145.812500", "132147.812500", "132149.812500", "132151.812500", "132153.812500", "132155.812500", "132157.812500", "132159.812500", "132201.812500", "132203.812500", "132205.812500", "132207.812500", "132209.812500", "132211.812500", "132213.812500", "132215.812500", "132217.812500", "132219.812500", "132221.812500", "132223.812500", "132225.812500", "132227.812500", "132229.812500", "132231.812500", "132233.812500", "132235.812500", "132237.812500", "132239.812500", "132241.812500", "132243.812500", "132245.812500", "132247.812500", "132249.812500", "132251.812500", "132253.812500", "132255.812500", "132257.812500", "132259.812500", "132301.812500", "132303.812500", "132305.812500", "132307.812500", "132309.812500", "132311.812500", "132313.812500", "132315.812500", "132317.812500", "132319.812500", "132321.812500", "132323.812500", "132325.812500", "132327.812500", "132329.812500", "132331.812500", "132333.812500", "132335.812500", "132337.812500", "132339.812500", "132341.812500", "132343.812500", "132345.812500", "132347.812500", "132349.812500", "132351.812500", "132353.812500", "132355.812500", "132357.812500", "132359.812500", "132401.812500", "132403.812500", "132405.812500", "132407.812500", "132409.812500", "132411.812500", "132413.812500", "132415.812500", "132417.812500", "132419.812500", "132421.812500", "132423.812500", "132425.812500", "132427.812500", "132429.812500", "132431.812500", "132433.812500", "132435.812500", "132437.812500", "132439.812500", "132441.812500", "132443.812500", "132445.812500", "132447.812500", "132449.812500", "132451.812500", "132453.812500", "132455.812500", "132457.812500", "132459.812500", "132501.812500", "132503.812500", "132505.812500", "132507.812500", "132509.812500", "132511.812500", "132513.812500", "132515.812500", "132517.812500", "132519.812500", "132521.812500", "132523.812500", "132525.812500", "132527.812500", "132529.812500", "132531.812500", "132533.812500", "132535.812500", "132537.812500", "132539.812500", "132541.812500", "132543.812500", "132545.812500", "132547.812500", "132549.812500", "132551.812500", "132553.812500", "132555.812500", "132557.812500", "132559.812500"],
      "ContentTime": ["132052.087000", "132053.582000", "132055.583000", "132057.583000", "132059.582000", "132101.583000", "132103.583000", "132105.583000", "132107.584000", "132109.582000", "132111.582000", "132113.583000", "132115.582000", "132117.582000", "132119.583000", "132121.584000", "132123.583000", "132125.583000", "132127.582000", "132129.583000", "132131.583000", "132133.583000", "132135.583000", "132137.583000", "132139.583000", "132141.584000", "132143.582000", "132145.583000", "132147.583000", "132149.582000", "132151.582000", "132153.582000", "132155.583000", "132157.583000", "132159.584000", "132201.583000", "132203.582000", "132205.582000", "132207.583000", "132209.582000", "132211.583000", "132213.584000", "132215.584000", "132217.584000", "132219.582000", "132221.582000", "132223.582000", "132225.582000", "132227.582000", "132229.582000", "132231.584000", "132233.584000", "132235.582000", "132237.583000", "132239.583000", "132241.582000", "132243.583000", "132245.582000", "132247.582000", "132249.583000", "132251.583000", "132253.583000", "132255.582000", "132257.582000", "132259.582000", "132301.582000", "132303.582000", "132305.582000", "132307.583000", "132309.584000", "132311.582000", "132313.583000", "132315.582000", "132317.586000", "132319.583000", "132321.583000", "132323.583000", "132325.584000", "132327.583000", "132329.583000", "132331.583000", "132333.582000", "132335.582000", "132337.582000", "132339.583000", "132341.584000", "132343.583000", "132345.582000", "132347.583000", "132349.583000", "132351.582000", "132353.583000", "132355.582000", "132357.583000", "132359.584000", "132401.583000", "132403.582000", "132405.583000", "132407.582000", "132409.582000", "132411.583000", "132413.582000", "132415.582000", "132417.583000", "132419.583000", "132421.582000", "132423.582000", "132425.583000", "132427.582000", "132429.582000", "132431.582000", "132433.584000", "132435.584000", "132437.583000", "132439.602000", "132441.583000", "132443.583000", "132445.583000", "132447.582000", "132449.583000", "132451.584000", "132453.584000", "132455.583000", "132457.583000", "132459.583000", "132501.583000", "132503.583000", "132505.583000", "132507.582000", "132509.583000", "132511.584000", "132513.583000", "132515.588000", "132517.582000", "132519.583000", "132521.582000", "132523.583000", "132525.582000", "132527.583000", "132529.584000", "132531.582000", "132533.582000", "132535.582000", "132537.583000", "132539.583000", "132541.582000", "132543.583000", "132545.583000", "132547.583000", "132549.582000", "132551.583000", "132553.583000", "132555.582000", "132557.582000", "132559.583000", "132601.335000"],
      "InstanceCreationTime": ["132052.087000", "132053.582000", "132055.583000", "132057.583000", "132059.582000", "132101.583000", "132103.583000", "132105.583000", "132107.584000", "132109.582000", "132111.582000", "132113.583000", "132115.582000", "132117.582000", "132119.583000", "132121.584000", "132123.583000", "132125.583000", "132127.582000", "132129.583000", "132131.583000", "132133.583000", "132135.583000", "132137.583000", "132139.583000", "132141.584000", "132143.582000", "132145.583000", "132147.583000", "132149.582000", "132151.582000", "132153.582000", "132155.583000", "132157.583000", "132159.584000", "132201.583000", "132203.582000", "132205.582000", "132207.583000", "132209.582000", "132211.583000", "132213.584000", "132215.584000", "132217.584000", "132219.582000", "132221.582000", "132223.582000", "132225.582000", "132227.582000", "132229.582000", "132231.584000", "132233.584000", "132235.582000", "132237.583000", "132239.583000", "132241.582000", "132243.583000", "132245.582000", "132247.582000", "132249.583000", "132251.583000", "132253.583000", "132255.582000", "132257.582000", "132259.582000", "132301.582000", "132303.582000", "132305.582000", "132307.583000", "132309.584000", "132311.582000", "132313.583000", "132315.582000", "132317.586000", "132319.583000", "132321.583000", "132323.583000", "132325.584000", "132327.583000", "132329.583000", "132331.583000", "132333.582000", "132335.582000", "132337.582000", "132339.583000", "132341.584000", "132343.583000", "132345.582000", "132347.583000", "132349.583000", "132351.582000", "132353.583000", "132355.582000", "132357.583000", "132359.584000", "132401.583000", "132403.582000", "132405.583000", "132407.582000", "132409.582000", "132411.583000", "132413.582000", "132415.582000", "132417.583000", "132419.583000", "132421.582000", "132423.582000", "132425.583000", "132427.582000", "132429.582000", "132431.582000", "132433.584000", "132435.584000", "132437.583000", "132439.602000", "132441.583000", "132443.583000", "132445.583000", "132447.582000", "132449.583000", "132451.584000", "132453.584000", "132455.583000", "132457.583000", "132459.583000", "132501.583000", "132503.583000", "132505.583000", "132507.582000", "132509.583000", "132511.584000", "132513.583000", "132515.588000", "132517.582000", "132519.583000", "132521.582000", "132523.583000", "132525.582000", "132527.583000", "132529.584000", "132531.582000", "132533.582000", "132535.582000", "132537.583000", "132539.583000", "132541.582000", "132543.583000", "132545.583000", "132547.583000", "132549.582000", "132551.583000", "132553.583000", "132555.582000", "132557.582000", "132559.583000", "132601.335000"],
      "InstanceNumber": [1, 2, 3, 4, 5, 6, 7, 8, 9, 10, 11, 12, 13, 14, 15, 16, 17, 18, 19, 20, 21, 22, 23, 24, 25, 26, 27, 28, 29, 30, 31, 32, 33, 34, 35, 36, 37, 38, 39, 40, 41, 42, 43, 44, 45, 46, 47, 48, 49, 50, 51, 52, 53, 54, 55, 56, 57, 58, 59, 60, 61, 62, 63, 64, 65, 66, 67, 68, 69, 70, 71, 72, 73, 74, 75, 76, 77, 78, 79, 80, 81, 82, 83, 84, 85, 86, 87, 88, 89, 90, 91, 92, 93, 94, 95, 96, 97, 98, 99, 100, 101, 102, 103, 104, 105, 106, 107, 108, 109, 110, 111, 112, 113, 114, 115, 116, 117, 118, 119, 120, 121, 122, 123, 124, 125, 126, 127, 128, 129, 130, 131, 132, 133, 134, 135, 136, 137, 138, 139, 140, 141, 142, 143, 144, 145, 146, 147, 148, 149, 150, 151, 152, 153, 154, 155, 156],
      "LargestImagePixelValue": [3752, 3699, 3703, 3669, 3732, 3684, 3689, 3673, 3675, 3692, 3685, 3656, 3669, 3670, 3731, 3654, 3719, 3644, 3669, 3706, 3666, 3699, 3664, 3683, 3735, 3709, 3754, 3680, 3697, 3695, 3661, 3732, 3664, 3707, 3706, 3694, 3682, 3700, 3753, 3684, 3722, 3656, 3725, 3699, 3685, 3721, 3686, 3717, 3721, 3690, 3710, 3714, 3725, 3703, 3738, 3729, 3646, 3749, 3690, 3731, 3715, 3709, 3736, 3696, 3751, 3699, 3743, 3683, 3737, 3730, 3728, 3722, 3709, 3768, 3713, 3721, 3728, 3677, 3749, 3695, 3711, 3705, 3718, 3749, 3678, 3731, 3739, 3717, 3751, 3708, 3748, 3735, 3764, 3733, 3717, 3776, 3726, 3741, 3745, 3734, 3747, 3762, 3803, 3745, 3740, 3734, 3786, 3710, 3751, 3715, 3764, 3745, 3754, 3774, 3718, 3786, 3741, 3754, 3734, 3758, 3744, 3725, 3753, 3723, 3763, 3721, 3728, 3730, 3760, 3800, 3702, 3747, 3746, 3719, 3736, 3696, 3720, 3776, 3729, 3768, 3705, 3754, 3745, 3757, 3766, 3744, 3748, 3723, 3752, 3720, 3747, 3703, 3752, 3746, 3767, 3746],
      "WindowCenter": [858.0, 854.0, 853.0, 851.0, 851.0, 851.0, 851.0, 850.0, 851.0, 853.0, 853.0, 852.0, 851.0, 851.0, 850.0, 850.0, 851.0, 850.0, 850.0, 850.0, 850.0, 850.0, 850.0, 851.0, 852.0, 851.0, 851.0, 851.0, 851.0, 850.0, 849.0, 849.0, 849.0, 849.0, 849.0, 850.0, 850.0, 850.0, 850.0, 850.0, 851.0, 850.0, 850.0, 850.0, 850.0, 850.0, 850.0, 851.0, 850.0, 851.0, 851.0, 852.0, 850.0, 850.0, 850.0, 850.0, 850.0, 850.0, 850.0, 851.0, 850.0, 850.0, 850.0, 851.0, 850.0, 850.0, 851.0, 850.0, 851.0, 851.0, 851.0, 851.0, 850.0, 850.0, 851.0, 851.0, 851.0, 852.0, 851.0, 851.0, 851.0, 851.0, 851.0, 851.0, 850.0, 851.0, 849.0, 849.0, 849.0, 850.0, 850.0, 852.0, 851.0, 851.0, 851.0, 851.0, 851.0, 852.0, 852.0, 852.0, 851.0, 851.0, 850.0, 850.0, 851.0, 852.0, 852.0, 852.0, 851.0, 851.0, 851.0, 851.0, 852.0, 851.0, 851.0, 851.0, 851.0, 851.0, 850.0, 851.0, 851.0, 852.0, 853.0, 852.0, 852.0, 851.0, 850.0, 850.0, 851.0, 852.0, 852.0, 852.0, 851.0, 852.0, 852.0, 851.0, 852.0, 852.0, 852.0, 852.0, 851.0, 851.0, 851.0, 852.0, 852.0, 853.0, 853.0, 851.0, 851.0, 850.0, 850.0, 851.0, 851.0, 851.0, 852.0, 852.0],
      "WindowWidth": [1849.0, 1839.0, 1835.0, 1830.0, 1830.0, 1830.0, 1830.0, 1829.0, 1831.0, 1834.0, 1836.0, 1834.0, 1830.0, 1830.0, 1827.0, 1829.0, 1830.0, 1828.0, 1828.0, 1827.0, 1827.0, 1827.0, 1827.0, 1830.0, 1833.0, 1831.0, 1830.0, 1829.0, 1829.0, 1828.0, 1825.0, 1826.0, 1824.0, 1825.0, 1825.0, 1829.0, 1827.0, 1829.0, 1829.0, 1828.0, 1830.0, 1828.0, 1829.0, 1827.0, 1827.0, 1828.0, 1828.0, 1830.0, 1828.0, 1829.0, 1830.0, 1832.0, 1829.0, 1827.0, 1828.0, 1827.0, 1827.0, 1829.0, 1828.0, 1831.0, 1829.0, 1829.0, 1828.0, 1830.0, 1829.0, 1829.0, 1830.0, 1829.0, 1831.0, 1830.0, 1830.0, 1830.0, 1828.0, 1829.0, 1829.0, 1832.0, 1831.0, 1832.0, 1832.0, 1831.0, 1830.0, 1829.0, 1830.0, 1831.0, 1829.0, 1829.0, 1826.0, 1824.0, 1825.0, 1827.0, 1828.0, 1832.0, 1830.0, 1830.0, 1829.0, 1831.0, 1831.0, 1833.0, 1833.0, 1833.0, 1831.0, 1831.0, 1829.0, 1829.0, 1831.0, 1834.0, 1834.0, 1832.0, 1831.0, 1830.0, 1831.0, 1830.0, 1832.0, 1831.0, 1831.0, 1832.0, 1830.0, 1829.0, 1828.0, 1829.0, 1831.0, 1834.0, 1836.0, 1833.0, 1832.0, 1829.0, 1828.0, 1828.0, 1829.0, 1832.0, 1831.0, 1831.0, 1831.0, 1832.0, 1831.0, 1830.0, 1831.0, 1833.0, 1831.0, 1831.0, 1831.0, 1830.0, 1830.0, 1831.0, 1832.0, 1834.0, 1834.0, 1831.0, 1830.0, 1828.0, 1827.0, 1829.0, 1830.0, 1831.0, 1833.0, 1833.0]
    },
    "slices": {}
  }
}