{
  "AcquisitionMatrixPE": 100,
  "AcquisitionNumber": 1,
  "AcquisitionTime": "13:58:8.440000",
  "BandwidthPerPixelPhaseEncode": 18.519,
  "BaseResolution": 100,
  "BodyPartExamined": "BRAIN",
  "CoilCombinationMethod": "Sum of Squares",
  "ConsistencyInfo": "N4_VE11C_LATEST_20160120",
  "ConversionSoftware": "dcm2niix",
  "ConversionSoftwareVersion": "v1.0.20211006",
  "DerivedVendorReportedEchoSpacing": 0.000539986,
  "DeviceSerialNumber": "166078",
  "DwellTime": 2.1e-06,
  "EchoTime": 0.034,
  "EchoTrainLength": 100,
  "EffectiveEchoSpacing": 0.000539986,
  "FlipAngle": 90,
  "ImageOrientationPatientDICOM": [1, 0, 0, 0, 0.980271, -0.197657],
  "ImageOrientationText": "Tra>Cor(-11.4)",
  "ImageType": [
    "ORIGINAL",
    "PRIMARY",
    "M",
    "ND",
    "MOSAIC"
],
  "ImagingFrequency": 123.258,
  "InPlanePhaseEncodingDirectionDICOM": "COL",
  "InstitutionAddress": "Street StreetNo,Bei Jing,District,CN,ZIP",
  "InstitutionName": "BeiJing Normal University",
  "InstitutionalDepartmentName": "Department",
  "MRAcquisitionType": "2D",
  "MagneticFieldStrength": 3,
  "Manufacturer": "Siemens",
  "ManufacturersModelName": "Prisma",
  "Modality": "MR",
  "MultibandAccelerationFactor": 3,
  "PartialFourier": 1,
  "PatientPosition": "HFS",
  "PercentPhaseFOV": 100,
  "PercentSampling": 100,
  "PhaseEncodingDirection": "j-",
  "PhaseEncodingSteps": 100,
  "PhaseResolution": 1,
  "PixelBandwidth": 2380,
  "ProcedureStepDescription": "BNU_P2018_64CH^Zhen.ZongLei",
  "ProtocolName": "bold_100x100_s3_2x2x2_static_156",
  "PulseSequenceDetails": "%SiemensSeq%\\ep2d_bold",
  "ReceiveCoilActiveElements": "HC1-7;NC1",
  "ReceiveCoilName": "HeadNeck_64",
  "ReconMatrixPE": 100,
  "RefLinesPE": 32,
  "RepetitionTime": 2,
  "SAR": 0.0844088,
  "ScanOptions": "FS",
  "ScanningSequence": "EP",
  "SequenceName": "*epfid2d1_100",
  "SequenceVariant": "SK",
  "SeriesDescription": "bold_100x100_s3_2x2x2_static_156",
  "SeriesNumber": 14,
  "ShimSetting": [-5446, -11513, -1244, 294, 9, -142, -87, 47],
  "SliceThickness": 2,
  "SliceTiming": [1.485, 0, 0.99, 0.0825, 1.0725, 0.165, 1.155, 0.2475, 1.2375, 0.33, 1.32, 0.4125, 1.4025, 0.5775, 1.5675, 0.66, 1.65, 0.7425, 1.7325, 0.825, 1.815, 0.9075, 1.8975, 0.495, 1.485, 0, 0.99, 0.0825, 1.0725, 0.165, 1.155, 0.2475, 1.2375, 0.33, 1.32, 0.4125, 1.4025, 0.5775, 1.5675, 0.66, 1.65, 0.7425, 1.7325, 0.825, 1.815, 0.9075, 1.8975, 0.495, 1.485, 0, 0.99, 0.0825, 1.0725, 0.165, 1.155, 0.2475, 1.2375, 0.33, 1.32, 0.4125, 1.4025, 0.5775, 1.5675, 0.66, 1.65, 0.7425, 1.7325, 0.825, 1.815, 0.9075, 1.8975, 0.495],
  "SoftwareVersions": "syngo MR E11",
  "SpacingBetweenSlices": 2,
  "StationName": "AWP166078",
  "TaskName": "action",
  "TotalReadoutTime": 0.0534586,
  "TxRefAmp": 251.967,
  "dcmmeta_affine": [
    [-2.0, 0.0, 0.0, 100.67796325683594],
    [0.0, 1.9605423212051392, -0.39531469345092773, -74.68665313720703],
    [0.0, 0.39531469345092773, 1.9605423212051392, -67.29412841796875],
    [0.0, 0.0, 0.0, 1.0]
],
  "dcmmeta_reorient_transform": [
    [0.0, -1.0, 0.0, 99.0],
    [1.0, 0.0, 0.0, 0.0],
    [0.0, 0.0, 1.0, 0.0],
    [0.0, 0.0, 0.0, 1.0]
],
  "dcmmeta_shape": [100, 100, 72, 156],
  "dcmmeta_slice_dim": 2,
  "dcmmeta_version": 0.6,
  "global": {
    "const": {
      "AcquisitionMatrix": [100, 0, 0, 100],
      "AngioFlag": "N",
      "BitsAllocated": 16,
      "BitsStored": 12,
      "BodyPartExamined": "BRAIN",
      "Columns": 900,
      "EchoNumbers": 1,
      "EchoTime": 34.0,
      "EchoTrainLength": 100,
      "FlipAngle": 90.0,
      "HighBit": 11,
      "ImageOrientationPatient": [1.0, 0.0, 0.0, 0.0, 0.98027117266369, -0.1976573500899],
      "ImagePositionPatient": [-900.67796611786, -903.62397444945, 129.96790521151],
      "ImageType": [
        "ORIGINAL",
        "PRIMARY",
        "M",
        "ND",
        "MOSAIC"
],
      "ImagedNucleus": "1H",
      "ImagingFrequency": 123.257705,
      "InPlanePhaseEncodingDirection": "COL",
      "MRAcquisitionType": "2D",
      "MagneticFieldStrength": 3.0,
      "Manufacturer": "SIEMENS",
      "ManufacturerModelName": "Prisma",
      "Modality": "MR",
      "NumberOfAverages": 1.0,
      "NumberOfPhaseEncodingSteps": 100,
      "PercentPhaseFieldOfView": 100.0,
      "PercentSampling": 100.0,
      "PerformedProcedureStepStartTime": "125606.019000",
      "PhotometricInterpretation": "MONOCHROME2",
      "PixelBandwidth": 2380.0,
      "PixelRepresentation": 0,
      "PixelSpacing": [2.0, 2.0],
      "ProtocolName": "bold_100x100_s3_2x2x2_static_156",
      "RepetitionTime": 2000.0,
      "Rows": 900,
      "SAR": 0.08440879727838,
      "SamplesPerPixel": 1,
      "ScanOptions": "FS",
      "ScanningSequence": "EP",
      "SequenceName": "*epfid2d1_100",
      "SequenceVariant": "SK",
      "SeriesDescription": "bold_100x100_s3_2x2x2_static_156",
      "SeriesNumber": 14,
      "SeriesTime": "135810.619000",
      "SliceLocation": -51.204129417035,
      "SliceThickness": 2.0,
      "SmallestImagePixelValue": 0,
      "SoftwareVersions": "syngo MR E11",
      "SpacingBetweenSlices": 1.9999999832531,
      "SpecificCharacterSet": "ISO_IR 100",
      "StudyID": "1",
      "StudyTime": "125605.925000",
      "TransmitCoilName": "Body",
      "VariableFlipAngleFlag": "N",
      "WindowCenterWidthExplanation": "Algo1",
      "dBdt": 0.0},
    "slices": {}
  },
  "time": {
    "samples": {
      "AcquisitionNumber": [1, 2, 3, 4, 5, 6, 7, 8, 9, 10, 11, 12, 13, 14, 15, 16, 17, 18, 19, 20, 21, 22, 23, 24, 25, 26, 27, 28, 29, 30, 31, 32, 33, 34, 35, 36, 37, 38, 39, 40, 41, 42, 43, 44, 45, 46, 47, 48, 49, 50, 51, 52, 53, 54, 55, 56, 57, 58, 59, 60, 61, 62, 63, 64, 65, 66, 67, 68, 69, 70, 71, 72, 73, 74, 75, 76, 77, 78, 79, 80, 81, 82, 83, 84, 85, 86, 87, 88, 89, 90, 91, 92, 93, 94, 95, 96, 97, 98, 99, 100, 101, 102, 103, 104, 105, 106, 107, 108, 109, 110, 111, 112, 113, 114, 115, 116, 117, 118, 119, 120, 121, 122, 123, 124, 125, 126, 127, 128, 129, 130, 131, 132, 133, 134, 135, 136, 137, 138, 139, 140, 141, 142, 143, 144, 145, 146, 147, 148, 149, 150, 151, 152, 153, 154, 155, 156],
      "AcquisitionTime": ["135808.440000", "135810.440000", "135812.440000", "135814.440000", "135816.440000", "135818.440000", "135820.440000", "135822.440000", "135824.440000", "135826.440000", "135828.440000", "135830.440000", "135832.440000", "135834.440000", "135836.440000", "135838.440000", "135840.440000", "135842.440000", "135844.440000", "135846.440000", "135848.440000", "135850.440000", "135852.440000", "135854.440000", "135856.440000", "135858.440000", "135900.440000", "135902.440000", "135904.440000", "135906.440000", "135908.440000", "135910.440000", "135912.440000", "135914.440000", "135916.440000", "135918.440000", "135920.440000", "135922.440000", "135924.440000", "135926.440000", "135928.440000", "135930.440000", "135932.440000", "135934.440000", "135936.440000", "135938.440000", "135940.440000", "135942.440000", "135944.440000", "135946.440000", "135948.440000", "135950.440000", "135952.440000", "135954.440000", "135956.440000", "135958.440000", "140000.440000", "140002.440000", "140004.440000", "140006.440000", "140008.440000", "140010.440000", "140012.440000", "140014.440000", "140016.440000", "140018.440000", "140020.440000", "140022.440000", "140024.440000", "140026.440000", "140028.440000", "140030.440000", "140032.440000", "140034.440000", "140036.440000", "140038.440000", "140040.440000", "140042.440000", "140044.440000", "140046.440000", "140048.440000", "140050.440000", "140052.440000", "140054.440000", "140056.440000", "140058.440000", "140100.440000", "140102.440000", "140104.440000", "140106.440000", "140108.440000", "140110.440000", "140112.440000", "140114.440000", "140116.440000", "140118.440000", "140120.440000", "140122.440000", "140124.440000", "140126.440000", "140128.440000", "140130.440000", "140132.440000", "140134.440000", "140136.440000", "140138.440000", "140140.440000", "140142.440000", "140144.440000", "140146.440000", "140148.440000", "140150.440000", "140152.440000", "140154.440000", "140156.440000", "140158.440000", "140200.440000", "140202.440000", "140204.440000", "140206.440000", "140208.440000", "140210.440000", "140212.440000", "140214.440000", "140216.440000", "140218.440000", "140220.440000", "140222.440000", "140224.440000", "140226.440000", "140228.440000", "140230.440000", "140232.440000", "140234.440000", "140236.440000", "140238.440000", "140240.440000", "140242.440000", "140244.440000", "140246.440000", "140248.440000", "140250.440000", "140252.440000", "140254.440000", "140256.440000", "140258.440000", "140300.440000", "140302.440000", "140304.440000", "140306.440000", "140308.440000", "140310.440000", "140312.440000", "140314.440000", "140316.440000", "140318.440000"],
      "ContentTime": ["135810.623000", "135812.119000", "135814.118000", "135816.118000", "135818.118000", "135820.117000", "135822.618000", "135824.118000", "135826.118000", "135828.118000", "135830.119000", "135832.617000", "135834.118000", "135836.118000", "135838.117000", "135840.118000", "135842.119000", "135844.118000", "135846.119000", "135848.118000", "135850.118000", "135852.117000", "135854.617000", "135856.118000", "135858.118000", "135900.118000", "135902.118000", "135904.119000", "135906.118000", "135908.117000", "135910.118000", "135912.118000", "135914.118000", "135916.118000", "135918.118000", "135920.119000", "135922.118000", "135924.117000", "135926.117000", "135928.118000", "135930.118000", "135932.118000", "135934.118000", "135936.118000", "135938.118000", "135940.118000", "135942.117000", "135944.118000", "135946.618000", "135948.118000", "135950.618000", "135952.118000", "135954.118000", "135956.118000", "135958.118000", "140000.118000", "140002.118000", "140004.117000", "140006.118000", "140008.119000", "140010.118000", "140012.118000", "140014.118000", "140016.118000", "140018.118000", "140020.118000", "140022.118000", "140024.119000", "140026.118000", "140028.118000", "140030.118000", "140032.118000", "140034.118000", "140036.117000", "140038.118000", "140040.117000", "140042.119000", "140044.119000", "140046.119000", "140048.119000", "140050.118000", "140052.118000", "140054.117000", "140056.118000", "140058.118000", "140100.118000", "140102.119000", "140104.118000", "140106.119000", "140108.118000", "140110.118000", "140112.117000", "140114.117000", "140116.118000", "140118.118000", "140120.119000", "140122.119000", "140124.119000", "140126.118000", "140128.117000", "140130.117000", "140132.118000", "140134.118000", "140136.119000", "140138.119000", "140140.119000", "140142.119000", "140144.118000", "140146.117000", "140148.117000", "140150.118000", "140152.119000", "140154.119000", "140156.119000", "140158.119000", "140200.119000", "140202.117000", "140204.118000", "140206.118000", "140208.117000", "140210.118000", "140212.119000", "140214.119000", "140216.618000", "140218.118000", "140220.118000", "140222.117000", "140224.118000", "140226.118000", "140228.119000", "140230.118000", "140232.119000", "140234.119000", "140236.118000", "140238.118000", "140240.118000", "140242.617000", "140244.118000", "140246.118000", "140248.118000", "140250.119000", "140252.118000", "140254.118000", "140256.117000", "140258.118000", "140300.117000", "140302.119000", "140304.118000", "140306.119000", "140308.119000", "140310.118000", "140312.118000", "140314.118000", "140316.118000", "140318.118000", "140320.106000"],
      "InstanceCreationTime": ["135810.623000", "135812.119000", "135814.118000", "135816.118000", "135818.118000", "135820.117000", "135822.618000", "135824.118000", "135826.118000", "135828.118000", "135830.119000", "135832.617000", "135834.118000", "135836.118000", "135838.117000", "135840.118000", "135842.119000", "135844.118000", "135846.119000", "135848.118000", "135850.118000", "135852.117000", "135854.617000", "135856.118000", "135858.118000", "135900.118000", "135902.118000", "135904.119000", "135906.118000", "135908.117000", "135910.118000", "135912.118000", "135914.118000", "135916.118000", "135918.118000", "135920.119000", "135922.118000", "135924.117000", "135926.117000", "135928.118000", "135930.118000", "135932.118000", "135934.118000", "135936.118000", "135938.118000", "135940.118000", "135942.117000", "135944.118000", "135946.618000", "135948.118000", "135950.618000", "135952.118000", "135954.118000", "135956.118000", "135958.118000", "140000.118000", "140002.118000", "140004.117000", "140006.118000", "140008.119000", "140010.118000", "140012.118000", "140014.118000", "140016.118000", "140018.118000", "140020.118000", "140022.118000", "140024.119000", "140026.118000", "140028.118000", "140030.118000", "140032.118000", "140034.118000", "140036.117000", "140038.118000", "140040.117000", "140042.119000", "140044.119000", "140046.119000", "140048.119000", "140050.118000", "140052.118000", "140054.117000", "140056.118000", "140058.118000", "140100.118000", "140102.119000", "140104.118000", "140106.119000", "140108.118000", "140110.118000", "140112.117000", "140114.117000", "140116.118000", "140118.118000", "140120.119000", "140122.119000", "140124.119000", "140126.118000", "140128.117000", "140130.117000", "140132.118000", "140134.118000", "140136.119000", "140138.119000", "140140.119000", "140142.119000", "140144.118000", "140146.117000", "140148.117000", "140150.118000", "140152.119000", "140154.119000", "140156.119000", "140158.119000", "140200.119000", "140202.117000", "140204.118000", "140206.118000", "140208.117000", "140210.118000", "140212.119000", "140214.119000", "140216.618000", "140218.118000", "140220.118000", "140222.117000", "140224.118000", "140226.118000", "140228.119000", "140230.118000", "140232.119000", "140234.119000", "140236.118000", "140238.118000", "140240.118000", "140242.617000", "140244.118000", "140246.118000", "140248.118000", "140250.119000", "140252.118000", "140254.118000", "140256.117000", "140258.118000", "140300.117000", "140302.119000", "140304.118000", "140306.119000", "140308.119000", "140310.118000", "140312.118000", "140314.118000", "140316.118000", "140318.118000", "140320.106000"],
      "InstanceNumber": [1, 2, 3, 4, 5, 6, 7, 8, 9, 10, 11, 12, 13, 14, 15, 16, 17, 18, 19, 20, 21, 22, 23, 24, 25, 26, 27, 28, 29, 30, 31, 32, 33, 34, 35, 36, 37, 38, 39, 40, 41, 42, 43, 44, 45, 46, 47, 48, 49, 50, 51, 52, 53, 54, 55, 56, 57, 58, 59, 60, 61, 62, 63, 64, 65, 66, 67, 68, 69, 70, 71, 72, 73, 74, 75, 76, 77, 78, 79, 80, 81, 82, 83, 84, 85, 86, 87, 88, 89, 90, 91, 92, 93, 94, 95, 96, 97, 98, 99, 100, 101, 102, 103, 104, 105, 106, 107, 108, 109, 110, 111, 112, 113, 114, 115, 116, 117, 118, 119, 120, 121, 122, 123, 124, 125, 126, 127, 128, 129, 130, 131, 132, 133, 134, 135, 136, 137, 138, 139, 140, 141, 142, 143, 144, 145, 146, 147, 148, 149, 150, 151, 152, 153, 154, 155, 156],
      "LargestImagePixelValue": [3949, 3853, 3881, 3899, 3927, 3903, 3905, 3874, 3894, 3845, 3887, 3875, 3850, 3878, 3872, 3868, 3917, 3896, 3897, 3919, 3929, 3932, 3908, 3871, 3824, 3798, 3838, 3819, 3804, 3857, 3824, 3861, 3846, 3862, 3869, 3901, 3892, 3928, 3925, 3934, 3906, 3908, 3858, 3921, 3906, 3904, 3866, 3873, 3861, 3862, 3908, 3897, 3909, 3895, 3936, 3892, 3897, 3931, 3892, 3956, 3920, 3911, 3917, 3911, 3927, 3916, 3945, 3951, 3927, 3931, 3894, 3900, 3923, 3904, 3916, 3872, 3926, 3907, 3887, 3907, 3887, 3884, 3907, 3883, 3895, 3909, 3895, 3881, 3885, 3919, 3862, 3890, 3849, 3893, 3905, 3855, 3919, 3898, 3949, 3947, 3904, 3923, 3912, 3956, 3883, 3908, 3869, 3991, 3943, 3958, 3903, 3931, 3930, 3937, 3920, 3894, 3897, 3899, 3928, 3941, 3895, 3903, 3864, 3885, 3871, 3922, 3883, 3868, 3896, 3909, 3839, 3883, 3888, 3884, 3846, 3860, 3900, 3837, 3936, 3901, 3916, 3885, 3884, 3922, 3878, 3904, 3944, 3914, 3933, 3911, 3889, 3934, 3919, 3948, 3920, 3928],
      "WindowCenter": [864.0, 860.0, 860.0, 860.0, 860.0, 858.0, 858.0, 858.0, 860.0, 861.0, 860.0, 860.0, 859.0, 859.0, 858.0, 857.0, 858.0, 859.0, 859.0, 859.0, 858.0, 857.0, 858.0, 862.0, 863.0, 863.0, 861.0, 859.0, 858.0, 858.0, 857.0, 857.0, 857.0, 857.0, 857.0, 857.0, 858.0, 860.0, 858.0, 858.0, 856.0, 855.0, 856.0, 856.0, 855.0, 856.0, 856.0, 858.0, 858.0, 857.0, 857.0, 857.0, 858.0, 858.0, 858.0, 858.0, 859.0, 859.0, 859.0, 859.0, 859.0, 859.0, 859.0, 859.0, 859.0, 858.0, 857.0, 857.0, 857.0, 857.0, 857.0, 857.0, 858.0, 858.0, 858.0, 858.0, 858.0, 858.0, 858.0, 857.0, 857.0, 857.0, 859.0, 858.0, 858.0, 857.0, 857.0, 858.0, 860.0, 861.0, 859.0, 859.0, 858.0, 859.0, 859.0, 859.0, 859.0, 858.0, 858.0, 858.0, 857.0, 859.0, 858.0, 858.0, 857.0, 858.0, 858.0, 861.0, 859.0, 858.0, 857.0, 857.0, 856.0, 856.0, 855.0, 856.0, 857.0, 857.0, 858.0, 858.0, 858.0, 859.0, 859.0, 859.0, 858.0, 858.0, 857.0, 858.0, 858.0, 858.0, 858.0, 859.0, 858.0, 859.0, 859.0, 859.0, 859.0, 858.0, 858.0, 858.0, 859.0, 859.0, 859.0, 860.0, 858.0, 859.0, 859.0, 859.0, 859.0, 858.0, 857.0, 857.0, 858.0, 858.0, 858.0, 858.0],
      "WindowWidth": [1866.0, 1853.0, 1852.0, 1852.0, 1852.0, 1848.0, 1846.0, 1848.0, 1852.0, 1854.0, 1853.0, 1852.0, 1850.0, 1848.0, 1846.0, 1844.0, 1847.0, 1850.0, 1850.0, 1848.0, 1847.0, 1846.0, 1848.0, 1857.0, 1860.0, 1859.0, 1854.0, 1848.0, 1846.0, 1848.0, 1843.0, 1844.0, 1843.0, 1845.0, 1844.0, 1845.0, 1847.0, 1852.0, 1848.0, 1848.0, 1842.0, 1838.0, 1840.0, 1841.0, 1838.0, 1843.0, 1841.0, 1846.0, 1846.0, 1845.0, 1845.0, 1845.0, 1846.0, 1846.0, 1847.0, 1847.0, 1847.0, 1848.0, 1848.0, 1850.0, 1848.0, 1848.0, 1850.0, 1848.0, 1849.0, 1846.0, 1845.0, 1844.0, 1843.0, 1845.0, 1843.0, 1844.0, 1846.0, 1846.0, 1846.0, 1846.0, 1847.0, 1848.0, 1846.0, 1845.0, 1844.0, 1845.0, 1849.0, 1847.0, 1848.0, 1844.0, 1845.0, 1848.0, 1854.0, 1854.0, 1849.0, 1850.0, 1847.0, 1849.0, 1849.0, 1850.0, 1850.0, 1848.0, 1847.0, 1847.0, 1846.0, 1849.0, 1846.0, 1849.0, 1845.0, 1848.0, 1846.0, 1855.0, 1850.0, 1847.0, 1843.0, 1844.0, 1842.0, 1842.0, 1840.0, 1842.0, 1843.0, 1845.0, 1846.0, 1849.0, 1848.0, 1851.0, 1849.0, 1849.0, 1848.0, 1849.0, 1844.0, 1847.0, 1847.0, 1848.0, 1847.0, 1850.0, 1847.0, 1850.0, 1850.0, 1850.0, 1849.0, 1846.0, 1848.0, 1846.0, 1849.0, 1848.0, 1849.0, 1851.0, 1848.0, 1849.0, 1849.0, 1850.0, 1849.0, 1846.0, 1844.0, 1844.0, 1846.0, 1848.0, 1848.0, 1845.0]
    },
    "slices": {}
  }
}