{
  "AcquisitionMatrixPE": 100,
  "AcquisitionNumber": 1,
  "AcquisitionTime": "13:03:20.350000",
  "BandwidthPerPixelPhaseEncode": 18.519,
  "BaseResolution": 100,
  "BodyPartExamined": "BRAIN",
  "CoilCombinationMethod": "Sum of Squares",
  "ConsistencyInfo": "N4_VE11C_LATEST_20160120",
  "ConversionSoftware": "dcm2niix",
  "ConversionSoftwareVersion": "v1.0.20211006",
  "DerivedVendorReportedEchoSpacing": 0.000539986,
  "DeviceSerialNumber": "166078",
  "DwellTime": 2.1e-06,
  "EchoTime": 0.034,
  "EchoTrainLength": 100,
  "EffectiveEchoSpacing": 0.000539986,
  "FlipAngle": 90,
  "ImageOrientationPatientDICOM": [1, 0, 0, 0, 0.980271, -0.197657],
  "ImageOrientationText": "Tra>Cor(-11.4)",
  "ImageType": [
    "ORIGINAL",
    "PRIMARY",
    "M",
    "ND",
    "MOSAIC"
],
  "ImagingFrequency": 123.258,
  "InPlanePhaseEncodingDirectionDICOM": "COL",
  "InstitutionAddress": "Street StreetNo,Bei Jing,District,CN,ZIP",
  "InstitutionName": "BeiJing Normal University",
  "InstitutionalDepartmentName": "Department",
  "MRAcquisitionType": "2D",
  "MagneticFieldStrength": 3,
  "Manufacturer": "Siemens",
  "ManufacturersModelName": "Prisma",
  "Modality": "MR",
  "MultibandAccelerationFactor": 3,
  "PartialFourier": 1,
  "PatientPosition": "HFS",
  "PercentPhaseFOV": 100,
  "PercentSampling": 100,
  "PhaseEncodingDirection": "j-",
  "PhaseEncodingSteps": 100,
  "PhaseResolution": 1,
  "PixelBandwidth": 2380,
  "ProcedureStepDescription": "BNU_P2018_64CH^Zhen.ZongLei",
  "ProtocolName": "bold_100x100_s3_2x2x2_static_156",
  "PulseSequenceDetails": "%SiemensSeq%\\ep2d_bold",
  "ReceiveCoilActiveElements": "HC1-7;NC1",
  "ReceiveCoilName": "HeadNeck_64",
  "ReconMatrixPE": 100,
  "RefLinesPE": 32,
  "RepetitionTime": 2,
  "SAR": 0.0844088,
  "ScanOptions": "FS",
  "ScanningSequence": "EP",
  "SequenceName": "*epfid2d1_100",
  "SequenceVariant": "SK",
  "SeriesDescription": "bold_100x100_s3_2x2x2_static_156",
  "SeriesNumber": 3,
  "ShimSetting": [-5446, -11513, -1244, 294, 9, -142, -87, 47],
  "SliceThickness": 2,
  "SliceTiming": [1.485, 0, 0.99, 0.0825, 1.0725, 0.165, 1.155, 0.2475, 1.2375, 0.33, 1.32, 0.4125, 1.4025, 0.5775, 1.5675, 0.66, 1.65, 0.7425, 1.7325, 0.825, 1.815, 0.9075, 1.8975, 0.495, 1.485, 0, 0.99, 0.0825, 1.0725, 0.165, 1.155, 0.2475, 1.2375, 0.33, 1.32, 0.4125, 1.4025, 0.5775, 1.5675, 0.66, 1.65, 0.7425, 1.7325, 0.825, 1.815, 0.9075, 1.8975, 0.495, 1.485, 0, 0.99, 0.0825, 1.0725, 0.165, 1.155, 0.2475, 1.2375, 0.33, 1.32, 0.4125, 1.4025, 0.5775, 1.5675, 0.66, 1.65, 0.7425, 1.7325, 0.825, 1.815, 0.9075, 1.8975, 0.495],
  "SoftwareVersions": "syngo MR E11",
  "SpacingBetweenSlices": 2,
  "StationName": "AWP166078",
  "TaskName": "action",
  "TotalReadoutTime": 0.0534586,
  "TxRefAmp": 251.967,
  "dcmmeta_affine": [
    [-2.0, 0.0, 0.0, 100.67796325683594],
    [0.0, 1.9605423212051392, -0.39531469345092773, -74.68665313720703],
    [0.0, 0.39531469345092773, 1.9605423212051392, -67.29412841796875],
    [0.0, 0.0, 0.0, 1.0]
],
  "dcmmeta_reorient_transform": [
    [0.0, -1.0, 0.0, 99.0],
    [1.0, 0.0, 0.0, 0.0],
    [0.0, 0.0, 1.0, 0.0],
    [0.0, 0.0, 0.0, 1.0]
],
  "dcmmeta_shape": [100, 100, 72, 156],
  "dcmmeta_slice_dim": 2,
  "dcmmeta_version": 0.6,
  "global": {
    "const": {
      "AcquisitionMatrix": [100, 0, 0, 100],
      "AngioFlag": "N",
      "BitsAllocated": 16,
      "BitsStored": 12,
      "BodyPartExamined": "BRAIN",
      "Columns": 900,
      "EchoNumbers": 1,
      "EchoTime": 34.0,
      "EchoTrainLength": 100,
      "FlipAngle": 90.0,
      "HighBit": 11,
      "ImageOrientationPatient": [1.0, 0.0, 0.0, 0.0, 0.98027117266369, -0.1976573500899],
      "ImagePositionPatient": [-900.67796611786, -903.62397444945, 129.96790521151],
      "ImageType": [
        "ORIGINAL",
        "PRIMARY",
        "M",
        "ND",
        "MOSAIC"
],
      "ImagedNucleus": "1H",
      "ImagingFrequency": 123.257665,
      "InPlanePhaseEncodingDirection": "COL",
      "MRAcquisitionType": "2D",
      "MagneticFieldStrength": 3.0,
      "Manufacturer": "SIEMENS",
      "ManufacturerModelName": "Prisma",
      "Modality": "MR",
      "NumberOfAverages": 1.0,
      "NumberOfPhaseEncodingSteps": 100,
      "PercentPhaseFieldOfView": 100.0,
      "PercentSampling": 100.0,
      "PerformedProcedureStepStartTime": "125606.019000",
      "PhotometricInterpretation": "MONOCHROME2",
      "PixelBandwidth": 2380.0,
      "PixelRepresentation": 0,
      "PixelSpacing": [2.0, 2.0],
      "ProtocolName": "bold_100x100_s3_2x2x2_static_156",
      "RepetitionTime": 2000.0,
      "Rows": 900,
      "SAR": 0.08440879727838,
      "SamplesPerPixel": 1,
      "ScanOptions": "FS",
      "ScanningSequence": "EP",
      "SequenceName": "*epfid2d1_100",
      "SequenceVariant": "SK",
      "SeriesDescription": "bold_100x100_s3_2x2x2_static_156",
      "SeriesNumber": 3,
      "SeriesTime": "130322.843000",
      "SliceLocation": -51.204129417035,
      "SliceThickness": 2.0,
      "SmallestImagePixelValue": 0,
      "SoftwareVersions": "syngo MR E11",
      "SpacingBetweenSlices": 1.9999999832531,
      "SpecificCharacterSet": "ISO_IR 100",
      "StudyID": "1",
      "StudyTime": "125605.925000",
      "TransmitCoilName": "Body",
      "VariableFlipAngleFlag": "N",
      "WindowCenterWidthExplanation": "Algo1",
      "dBdt": 0.0},
    "slices": {}
  },
  "time": {
    "samples": {
      "AcquisitionNumber": [1, 2, 3, 4, 5, 6, 7, 8, 9, 10, 11, 12, 13, 14, 15, 16, 17, 18, 19, 20, 21, 22, 23, 24, 25, 26, 27, 28, 29, 30, 31, 32, 33, 34, 35, 36, 37, 38, 39, 40, 41, 42, 43, 44, 45, 46, 47, 48, 49, 50, 51, 52, 53, 54, 55, 56, 57, 58, 59, 60, 61, 62, 63, 64, 65, 66, 67, 68, 69, 70, 71, 72, 73, 74, 75, 76, 77, 78, 79, 80, 81, 82, 83, 84, 85, 86, 87, 88, 89, 90, 91, 92, 93, 94, 95, 96, 97, 98, 99, 100, 101, 102, 103, 104, 105, 106, 107, 108, 109, 110, 111, 112, 113, 114, 115, 116, 117, 118, 119, 120, 121, 122, 123, 124, 125, 126, 127, 128, 129, 130, 131, 132, 133, 134, 135, 136, 137, 138, 139, 140, 141, 142, 143, 144, 145, 146, 147, 148, 149, 150, 151, 152, 153, 154, 155, 156],
      "AcquisitionTime": ["130320.350000", "130322.350000", "130324.350000", "130326.350000", "130328.350000", "130330.350000", "130332.350000", "130334.350000", "130336.350000", "130338.350000", "130340.350000", "130342.350000", "130344.350000", "130346.350000", "130348.350000", "130350.350000", "130352.350000", "130354.350000", "130356.350000", "130358.350000", "130400.350000", "130402.350000", "130404.350000", "130406.350000", "130408.350000", "130410.350000", "130412.350000", "130414.350000", "130416.350000", "130418.350000", "130420.350000", "130422.350000", "130424.350000", "130426.350000", "130428.350000", "130430.350000", "130432.350000", "130434.350000", "130436.350000", "130438.350000", "130440.350000", "130442.350000", "130444.350000", "130446.350000", "130448.350000", "130450.350000", "130452.350000", "130454.350000", "130456.350000", "130458.350000", "130500.350000", "130502.350000", "130504.350000", "130506.350000", "130508.350000", "130510.350000", "130512.350000", "130514.350000", "130516.350000", "130518.350000", "130520.350000", "130522.350000", "130524.350000", "130526.350000", "130528.350000", "130530.350000", "130532.350000", "130534.350000", "130536.350000", "130538.350000", "130540.350000", "130542.350000", "130544.350000", "130546.350000", "130548.350000", "130550.350000", "130552.350000", "130554.350000", "130556.350000", "130558.350000", "130600.350000", "130602.350000", "130604.350000", "130606.350000", "130608.350000", "130610.350000", "130612.350000", "130614.350000", "130616.350000", "130618.350000", "130620.350000", "130622.350000", "130624.350000", "130626.350000", "130628.350000", "130630.350000", "130632.350000", "130634.350000", "130636.350000", "130638.350000", "130640.350000", "130642.350000", "130644.350000", "130646.350000", "130648.350000", "130650.350000", "130652.350000", "130654.350000", "130656.350000", "130658.350000", "130700.350000", "130702.350000", "130704.350000", "130706.350000", "130708.350000", "130710.350000", "130712.350000", "130714.350000", "130716.350000", "130718.350000", "130720.350000", "130722.350000", "130724.350000", "130726.350000", "130728.350000", "130730.350000", "130732.350000", "130734.350000", "130736.350000", "130738.350000", "130740.350000", "130742.350000", "130744.350000", "130746.350000", "130748.350000", "130750.350000", "130752.350000", "130754.350000", "130756.350000", "130758.350000", "130800.350000", "130802.350000", "130804.350000", "130806.350000", "130808.350000", "130810.350000", "130812.350000", "130814.350000", "130816.350000", "130818.350000", "130820.350000", "130822.350000", "130824.350000", "130826.350000", "130828.350000", "130830.350000"],
      "ContentTime": ["130322.847000", "130324.341000", "130326.342000", "130328.342000", "130330.341000", "130332.341000", "130334.841000", "130336.341000", "130338.341000", "130340.342000", "130342.341000", "130344.342000", "130346.342000", "130348.342000", "130350.342000", "130352.341000", "130354.342000", "130356.341000", "130358.341000", "130400.341000", "130402.342000", "130404.342000", "130406.341000", "130408.340000", "130410.341000", "130412.341000", "130414.341000", "130416.342000", "130418.341000", "130420.341000", "130422.342000", "130424.341000", "130426.340000", "130428.341000", "130430.342000", "130432.342000", "130434.341000", "130436.342000", "130438.342000", "130440.342000", "130442.341000", "130444.340000", "130446.342000", "130448.341000", "130450.341000", "130452.342000", "130454.342000", "130456.341000", "130458.341000", "130500.342000", "130502.341000", "130504.341000", "130506.341000", "130508.341000", "130510.341000", "130512.341000", "130514.341000", "130516.341000", "130518.340000", "130520.341000", "130522.342000", "130524.342000", "130526.341000", "130528.341000", "130530.342000", "130532.341000", "130534.341000", "130536.340000", "130538.342000", "130540.341000", "130542.341000", "130544.341000", "130546.341000", "130548.342000", "130550.341000", "130552.341000", "130554.341000", "130556.341000", "130558.341000", "130600.342000", "130602.343000", "130604.342000", "130606.342000", "130608.341000", "130610.341000", "130612.341000", "130614.342000", "130616.341000", "130618.342000", "130620.341000", "130622.341000", "130624.341000", "130626.341000", "130628.340000", "130630.341000", "130632.341000", "130634.342000", "130636.341000", "130638.341000", "130640.341000", "130642.341000", "130644.341000", "130646.340000", "130648.341000", "130650.342000", "130652.341000", "130654.342000", "130656.342000", "130658.342000", "130700.341000", "130702.341000", "130704.341000", "130706.341000", "130708.342000", "130710.342000", "130712.342000", "130714.842000", "130716.342000", "130718.341000", "130720.342000", "130722.341000", "130724.341000", "130726.342000", "130728.342000", "130730.341000", "130732.341000", "130734.342000", "130736.341000", "130738.340000", "130740.342000", "130742.342000", "130744.341000", "130746.342000", "130748.342000", "130750.342000", "130752.341000", "130754.342000", "130756.341000", "130758.341000", "130800.342000", "130802.341000", "130804.342000", "130806.342000", "130808.341000", "130810.341000", "130812.341000", "130814.342000", "130816.341000", "130818.341000", "130820.341000", "130822.342000", "130824.341000", "130826.342000", "130828.342000", "130830.342000", "130832.207000"],
      "InstanceCreationTime": ["130322.847000", "130324.341000", "130326.342000", "130328.342000", "130330.341000", "130332.341000", "130334.841000", "130336.341000", "130338.341000", "130340.342000", "130342.341000", "130344.342000", "130346.342000", "130348.342000", "130350.342000", "130352.341000", "130354.342000", "130356.341000", "130358.341000", "130400.341000", "130402.342000", "130404.342000", "130406.341000", "130408.340000", "130410.341000", "130412.341000", "130414.341000", "130416.342000", "130418.341000", "130420.341000", "130422.342000", "130424.341000", "130426.340000", "130428.341000", "130430.342000", "130432.342000", "130434.341000", "130436.342000", "130438.342000", "130440.342000", "130442.341000", "130444.340000", "130446.342000", "130448.341000", "130450.341000", "130452.342000", "130454.342000", "130456.341000", "130458.341000", "130500.342000", "130502.341000", "130504.341000", "130506.341000", "130508.341000", "130510.341000", "130512.341000", "130514.341000", "130516.341000", "130518.340000", "130520.341000", "130522.342000", "130524.342000", "130526.341000", "130528.341000", "130530.342000", "130532.341000", "130534.341000", "130536.340000", "130538.342000", "130540.341000", "130542.341000", "130544.341000", "130546.341000", "130548.342000", "130550.341000", "130552.341000", "130554.341000", "130556.341000", "130558.341000", "130600.342000", "130602.343000", "130604.342000", "130606.342000", "130608.341000", "130610.341000", "130612.341000", "130614.342000", "130616.341000", "130618.342000", "130620.341000", "130622.341000", "130624.341000", "130626.341000", "130628.340000", "130630.341000", "130632.341000", "130634.342000", "130636.341000", "130638.341000", "130640.341000", "130642.341000", "130644.341000", "130646.340000", "130648.341000", "130650.342000", "130652.341000", "130654.342000", "130656.342000", "130658.342000", "130700.341000", "130702.341000", "130704.341000", "130706.341000", "130708.342000", "130710.342000", "130712.342000", "130714.842000", "130716.342000", "130718.341000", "130720.342000", "130722.341000", "130724.341000", "130726.342000", "130728.342000", "130730.341000", "130732.341000", "130734.342000", "130736.341000", "130738.340000", "130740.342000", "130742.342000", "130744.341000", "130746.342000", "130748.342000", "130750.342000", "130752.341000", "130754.342000", "130756.341000", "130758.341000", "130800.342000", "130802.341000", "130804.342000", "130806.342000", "130808.341000", "130810.341000", "130812.341000", "130814.342000", "130816.341000", "130818.341000", "130820.341000", "130822.342000", "130824.341000", "130826.342000", "130828.342000", "130830.342000", "130832.207000"],
      "InstanceNumber": [1, 2, 3, 4, 5, 6, 7, 8, 9, 10, 11, 12, 13, 14, 15, 16, 17, 18, 19, 20, 21, 22, 23, 24, 25, 26, 27, 28, 29, 30, 31, 32, 33, 34, 35, 36, 37, 38, 39, 40, 41, 42, 43, 44, 45, 46, 47, 48, 49, 50, 51, 52, 53, 54, 55, 56, 57, 58, 59, 60, 61, 62, 63, 64, 65, 66, 67, 68, 69, 70, 71, 72, 73, 74, 75, 76, 77, 78, 79, 80, 81, 82, 83, 84, 85, 86, 87, 88, 89, 90, 91, 92, 93, 94, 95, 96, 97, 98, 99, 100, 101, 102, 103, 104, 105, 106, 107, 108, 109, 110, 111, 112, 113, 114, 115, 116, 117, 118, 119, 120, 121, 122, 123, 124, 125, 126, 127, 128, 129, 130, 131, 132, 133, 134, 135, 136, 137, 138, 139, 140, 141, 142, 143, 144, 145, 146, 147, 148, 149, 150, 151, 152, 153, 154, 155, 156],
      "LargestImagePixelValue": [3772, 3722, 3675, 3610, 3671, 3641, 3676, 3673, 3662, 3686, 3682, 3674, 3703, 3670, 3700, 3625, 3697, 3603, 3682, 3635, 3686, 3657, 3662, 3697, 3619, 3665, 3589, 3655, 3683, 3617, 3692, 3637, 3715, 3611, 3643, 3653, 3667, 3633, 3625, 3618, 3626, 3612, 3636, 3642, 3620, 3619, 3631, 3639, 3606, 3633, 3619, 3644, 3622, 3629, 3645, 3650, 3640, 3658, 3634, 3623, 3624, 3617, 3609, 3646, 3639, 3633, 3678, 3643, 3629, 3650, 3636, 3680, 3661, 3641, 3660, 3654, 3659, 3643, 3655, 3686, 3676, 3643, 3678, 3687, 3721, 3714, 3667, 3703, 3673, 3693, 3711, 3693, 3694, 3687, 3707, 3724, 3713, 3690, 3650, 3646, 3668, 3684, 3715, 3669, 3642, 3678, 3696, 3726, 3699, 3701, 3709, 3709, 3696, 3685, 3690, 3697, 3673, 3743, 3693, 3666, 3703, 3700, 3701, 3686, 3721, 3705, 3706, 3698, 3690, 3714, 3710, 3698, 3710, 3710, 3682, 3712, 3709, 3696, 3700, 3709, 3719, 3687, 3699, 3715, 3687, 3710, 3673, 3707, 3725, 3688, 3702, 3723, 3699, 3717, 3713, 3742],
      "WindowCenter": [850.0, 848.0, 848.0, 847.0, 848.0, 848.0, 846.0, 845.0, 845.0, 846.0, 845.0, 846.0, 845.0, 845.0, 845.0, 844.0, 844.0, 845.0, 846.0, 846.0, 846.0, 845.0, 845.0, 846.0, 845.0, 845.0, 844.0, 844.0, 845.0, 844.0, 845.0, 844.0, 845.0, 844.0, 844.0, 845.0, 845.0, 845.0, 844.0, 844.0, 845.0, 845.0, 845.0, 845.0, 845.0, 845.0, 845.0, 845.0, 844.0, 845.0, 845.0, 846.0, 846.0, 846.0, 846.0, 845.0, 845.0, 844.0, 844.0, 844.0, 844.0, 844.0, 843.0, 845.0, 845.0, 846.0, 845.0, 844.0, 844.0, 844.0, 845.0, 845.0, 845.0, 844.0, 844.0, 845.0, 845.0, 846.0, 845.0, 845.0, 845.0, 846.0, 847.0, 847.0, 847.0, 847.0, 845.0, 846.0, 846.0, 848.0, 847.0, 847.0, 847.0, 847.0, 847.0, 846.0, 846.0, 845.0, 845.0, 845.0, 846.0, 846.0, 846.0, 846.0, 846.0, 846.0, 847.0, 848.0, 847.0, 847.0, 846.0, 846.0, 846.0, 846.0, 847.0, 846.0, 846.0, 846.0, 846.0, 846.0, 846.0, 846.0, 846.0, 846.0, 846.0, 846.0, 846.0, 846.0, 846.0, 846.0, 847.0, 847.0, 847.0, 847.0, 846.0, 846.0, 845.0, 845.0, 845.0, 845.0, 845.0, 846.0, 845.0, 846.0, 845.0, 846.0, 845.0, 847.0, 847.0, 847.0, 846.0, 846.0, 846.0, 845.0, 846.0, 846.0],
      "WindowWidth": [1832.0, 1825.0, 1826.0, 1823.0, 1825.0, 1824.0, 1818.0, 1816.0, 1816.0, 1818.0, 1817.0, 1818.0, 1818.0, 1817.0, 1817.0, 1814.0, 1815.0, 1817.0, 1820.0, 1820.0, 1817.0, 1817.0, 1815.0, 1818.0, 1815.0, 1817.0, 1814.0, 1815.0, 1815.0, 1813.0, 1816.0, 1813.0, 1817.0, 1814.0, 1813.0, 1816.0, 1815.0, 1817.0, 1814.0, 1814.0, 1816.0, 1816.0, 1815.0, 1815.0, 1815.0, 1817.0, 1816.0, 1817.0, 1814.0, 1816.0, 1815.0, 1818.0, 1820.0, 1819.0, 1819.0, 1816.0, 1815.0, 1813.0, 1812.0, 1814.0, 1813.0, 1813.0, 1811.0, 1816.0, 1817.0, 1817.0, 1817.0, 1812.0, 1813.0, 1814.0, 1816.0, 1817.0, 1815.0, 1813.0, 1813.0, 1814.0, 1816.0, 1818.0, 1815.0, 1816.0, 1817.0, 1819.0, 1820.0, 1821.0, 1821.0, 1822.0, 1816.0, 1818.0, 1818.0, 1823.0, 1821.0, 1819.0, 1820.0, 1820.0, 1821.0, 1819.0, 1819.0, 1815.0, 1816.0, 1816.0, 1818.0, 1818.0, 1819.0, 1818.0, 1817.0, 1818.0, 1820.0, 1823.0, 1820.0, 1820.0, 1818.0, 1819.0, 1819.0, 1818.0, 1819.0, 1818.0, 1817.0, 1817.0, 1816.0, 1817.0, 1817.0, 1817.0, 1817.0, 1818.0, 1817.0, 1817.0, 1817.0, 1818.0, 1816.0, 1818.0, 1820.0, 1821.0, 1820.0, 1819.0, 1817.0, 1817.0, 1815.0, 1816.0, 1816.0, 1814.0, 1815.0, 1817.0, 1815.0, 1818.0, 1816.0, 1817.0, 1816.0, 1820.0, 1821.0, 1820.0, 1817.0, 1817.0, 1817.0, 1816.0, 1818.0, 1819.0]
    },
    "slices": {}
  }
}