{
  "AcquisitionMatrixPE": 100,
  "AcquisitionNumber": 1,
  "AcquisitionTime": "13:15:44.037500",
  "BandwidthPerPixelPhaseEncode": 18.519,
  "BaseResolution": 100,
  "BodyPartExamined": "BRAIN",
  "CoilCombinationMethod": "Sum of Squares",
  "ConsistencyInfo": "N4_VE11C_LATEST_20160120",
  "ConversionSoftware": "dcm2niix",
  "ConversionSoftwareVersion": "v1.0.20211006",
  "DerivedVendorReportedEchoSpacing": 0.000539986,
  "DeviceSerialNumber": "166078",
  "DwellTime": 2.1e-06,
  "EchoTime": 0.034,
  "EchoTrainLength": 100,
  "EffectiveEchoSpacing": 0.000539986,
  "FlipAngle": 90,
  "ImageOrientationPatientDICOM": [1, 0, 0, 0, 0.982935, -0.183951],
  "ImageOrientationText": "Tra>Cor(-10.6)",
  "ImageType": [
    "ORIGINAL",
    "PRIMARY",
    "M",
    "ND",
    "MOSAIC"
],
  "ImagingFrequency": 123.258,
  "InPlanePhaseEncodingDirectionDICOM": "COL",
  "InstitutionAddress": "Street StreetNo,Bei Jing,District,CN,ZIP",
  "InstitutionName": "BeiJing Normal University",
  "InstitutionalDepartmentName": "Department",
  "MRAcquisitionType": "2D",
  "MagneticFieldStrength": 3,
  "Manufacturer": "Siemens",
  "ManufacturersModelName": "Prisma",
  "Modality": "MR",
  "MultibandAccelerationFactor": 3,
  "PartialFourier": 1,
  "PatientPosition": "HFS",
  "PercentPhaseFOV": 100,
  "PercentSampling": 100,
  "PhaseEncodingDirection": "j-",
  "PhaseEncodingSteps": 100,
  "PhaseResolution": 1,
  "PixelBandwidth": 2380,
  "ProcedureStepDescription": "BNU_P2018_64CH^Zhen.ZongLei",
  "ProtocolName": "bold_100x100_s3_2x2x2_static_156",
  "PulseSequenceDetails": "%SiemensSeq%\\ep2d_bold",
  "ReceiveCoilActiveElements": "HC1-7;NC1",
  "ReceiveCoilName": "HeadNeck_64",
  "ReconMatrixPE": 100,
  "RefLinesPE": 32,
  "RepetitionTime": 2,
  "SAR": 0.0713138,
  "ScanOptions": "FS",
  "ScanningSequence": "EP",
  "SequenceName": "*epfid2d1_100",
  "SequenceVariant": "SK",
  "SeriesDescription": "bold_100x100_s3_2x2x2_static_156",
  "SeriesNumber": 5,
  "ShimSetting": [-5463, -11523, -1210, 272, -54, -382, -114, 33],
  "SliceThickness": 2,
  "SliceTiming": [1.485, 0, 0.99, 0.0825, 1.0725, 0.165, 1.155, 0.2475, 1.2375, 0.33, 1.32, 0.4125, 1.4025, 0.5775, 1.5675, 0.66, 1.65, 0.7425, 1.7325, 0.825, 1.815, 0.9075, 1.8975, 0.495, 1.485, 0, 0.99, 0.0825, 1.0725, 0.165, 1.155, 0.2475, 1.2375, 0.33, 1.32, 0.4125, 1.4025, 0.5775, 1.5675, 0.66, 1.65, 0.7425, 1.7325, 0.825, 1.815, 0.9075, 1.8975, 0.495, 1.485, 0, 0.99, 0.0825, 1.0725, 0.165, 1.155, 0.2475, 1.2375, 0.33, 1.32, 0.4125, 1.4025, 0.5775, 1.5675, 0.66, 1.65, 0.7425, 1.7325, 0.825, 1.815, 0.9075, 1.8975, 0.495],
  "SoftwareVersions": "syngo MR E11",
  "SpacingBetweenSlices": 2,
  "StationName": "AWP166078",
  "TaskName": "action",
  "TotalReadoutTime": 0.0534586,
  "TxRefAmp": 231.784,
  "dcmmeta_affine": [
    [-2.0, 0.0, 0.0, 100.67796325683594],
    [0.0, 1.96587073802948, -0.3679027259349823, -81.28649139404297],
    [0.0, 0.3679027259349823, 1.96587073802948, -70.44034576416016],
    [0.0, 0.0, 0.0, 1.0]
],
  "dcmmeta_reorient_transform": [
    [0.0, -1.0, 0.0, 99.0],
    [1.0, 0.0, 0.0, 0.0],
    [0.0, 0.0, 1.0, 0.0],
    [0.0, 0.0, 0.0, 1.0]
],
  "dcmmeta_shape": [100, 100, 72, 156],
  "dcmmeta_slice_dim": 2,
  "dcmmeta_version": 0.6,
  "global": {
    "const": {
      "AcquisitionMatrix": [100, 0, 0, 100],
      "AngioFlag": "N",
      "BitsAllocated": 16,
      "BitsStored": 12,
      "BodyPartExamined": "BRAIN",
      "Columns": 900,
      "EchoNumbers": 1,
      "EchoTime": 34.0,
      "EchoTrainLength": 100,
      "FlipAngle": 90.0,
      "HighBit": 11,
      "ImageOrientationPatient": [1.0, 0.0, 0.0, 0.0, 0.98293534700206, -0.1839513620878],
      "ImagePositionPatient": [-900.67796611786, -899.68298814414, 113.1431170533],
      "ImageType": [
        "ORIGINAL",
        "PRIMARY",
        "M",
        "ND",
        "MOSAIC"
],
      "ImagedNucleus": "1H",
      "ImagingFrequency": 123.257702,
      "InPlanePhaseEncodingDirection": "COL",
      "MRAcquisitionType": "2D",
      "MagneticFieldStrength": 3.0,
      "Manufacturer": "SIEMENS",
      "ManufacturerModelName": "Prisma",
      "Modality": "MR",
      "NumberOfAverages": 1.0,
      "NumberOfPhaseEncodingSteps": 100,
      "PercentPhaseFieldOfView": 100.0,
      "PercentSampling": 100.0,
      "PerformedProcedureStepStartTime": "125742.017000",
      "PhotometricInterpretation": "MONOCHROME2",
      "PixelBandwidth": 2380.0,
      "PixelRepresentation": 0,
      "PixelSpacing": [2.0, 2.0],
      "ProtocolName": "bold_100x100_s3_2x2x2_static_156",
      "RepetitionTime": 2000.0,
      "Rows": 900,
      "SAR": 0.07131380390722,
      "SamplesPerPixel": 1,
      "ScanOptions": "FS",
      "ScanningSequence": "EP",
      "SequenceName": "*epfid2d1_100",
      "SequenceVariant": "SK",
      "SeriesDescription": "bold_100x100_s3_2x2x2_static_156",
      "SeriesNumber": 5,
      "SeriesTime": "131547.051000",
      "SliceLocation": -54.28554209462,
      "SliceThickness": 2.0,
      "SmallestImagePixelValue": 0,
      "SoftwareVersions": "syngo MR E11",
      "SpacingBetweenSlices": 2.0000000111406,
      "SpecificCharacterSet": "ISO_IR 100",
      "StudyID": "1",
      "StudyTime": "125741.935000",
      "TransmitCoilName": "Body",
      "VariableFlipAngleFlag": "N",
      "WindowCenterWidthExplanation": "Algo1",
      "dBdt": 0.0},
    "slices": {}
  },
  "time": {
    "samples": {
      "AcquisitionNumber": [1, 2, 3, 4, 5, 6, 7, 8, 9, 10, 11, 12, 13, 14, 15, 16, 17, 18, 19, 20, 21, 22, 23, 24, 25, 26, 27, 28, 29, 30, 31, 32, 33, 34, 35, 36, 37, 38, 39, 40, 41, 42, 43, 44, 45, 46, 47, 48, 49, 50, 51, 52, 53, 54, 55, 56, 57, 58, 59, 60, 61, 62, 63, 64, 65, 66, 67, 68, 69, 70, 71, 72, 73, 74, 75, 76, 77, 78, 79, 80, 81, 82, 83, 84, 85, 86, 87, 88, 89, 90, 91, 92, 93, 94, 95, 96, 97, 98, 99, 100, 101, 102, 103, 104, 105, 106, 107, 108, 109, 110, 111, 112, 113, 114, 115, 116, 117, 118, 119, 120, 121, 122, 123, 124, 125, 126, 127, 128, 129, 130, 131, 132, 133, 134, 135, 136, 137, 138, 139, 140, 141, 142, 143, 144, 145, 146, 147, 148, 149, 150, 151, 152, 153, 154, 155, 156],
      "AcquisitionTime": ["131544.037500", "131546.037500", "131548.037500", "131550.037500", "131552.037500", "131554.037500", "131556.037500", "131558.037500", "131600.037500", "131602.037500", "131604.037500", "131606.037500", "131608.037500", "131610.037500", "131612.037500", "131614.037500", "131616.037500", "131618.037500", "131620.037500", "131622.037500", "131624.037500", "131626.037500", "131628.037500", "131630.037500", "131632.037500", "131634.037500", "131636.037500", "131638.037500", "131640.037500", "131642.037500", "131644.037500", "131646.037500", "131648.037500", "131650.037500", "131652.037500", "131654.037500", "131656.037500", "131658.037500", "131700.037500", "131702.037500", "131704.037500", "131706.037500", "131708.037500", "131710.037500", "131712.037500", "131714.037500", "131716.037500", "131718.037500", "131720.037500", "131722.037500", "131724.037500", "131726.037500", "131728.037500", "131730.037500", "131732.037500", "131734.037500", "131736.037500", "131738.037500", "131740.037500", "131742.037500", "131744.037500", "131746.037500", "131748.037500", "131750.037500", "131752.037500", "131754.037500", "131756.037500", "131758.037500", "131800.037500", "131802.037500", "131804.037500", "131806.037500", "131808.037500", "131810.037500", "131812.037500", "131814.037500", "131816.037500", "131818.037500", "131820.037500", "131822.037500", "131824.037500", "131826.037500", "131828.037500", "131830.037500", "131832.037500", "131834.037500", "131836.037500", "131838.037500", "131840.037500", "131842.037500", "131844.037500", "131846.037500", "131848.037500", "131850.037500", "131852.037500", "131854.037500", "131856.037500", "131858.037500", "131900.037500", "131902.037500", "131904.037500", "131906.037500", "131908.037500", "131910.037500", "131912.037500", "131914.037500", "131916.037500", "131918.037500", "131920.037500", "131922.037500", "131924.037500", "131926.037500", "131928.037500", "131930.037500", "131932.037500", "131934.037500", "131936.037500", "131938.037500", "131940.037500", "131942.037500", "131944.037500", "131946.037500", "131948.037500", "131950.037500", "131952.037500", "131954.037500", "131956.037500", "131958.037500", "132000.037500", "132002.037500", "132004.037500", "132006.037500", "132008.037500", "132010.037500", "132012.037500", "132014.037500", "132016.037500", "132018.037500", "132020.037500", "132022.037500", "132024.037500", "132026.037500", "132028.037500", "132030.037500", "132032.037500", "132034.037500", "132036.037500", "132038.037500", "132040.037500", "132042.037500", "132044.037500", "132046.037500", "132048.037500", "132050.037500", "132052.037500", "132054.037500"],
      "ContentTime": ["131547.055000", "131548.550000", "131550.550000", "131552.549000", "131554.549000", "131556.549000", "131558.550000", "131600.550000", "131602.551000", "131604.551000", "131606.549000", "131608.549000", "131610.550000", "131612.550000", "131614.549000", "131616.550000", "131618.550000", "131620.550000", "131622.550000", "131624.550000", "131626.549000", "131628.550000", "131630.549000", "131632.549000", "131634.549000", "131636.549000", "131638.550000", "131640.549000", "131642.549000", "131644.549000", "131646.549000", "131648.549000", "131650.549000", "131652.549000", "131654.549000", "131656.550000", "131658.549000", "131700.550000", "131702.549000", "131704.550000", "131706.550000", "131708.550000", "131710.549000", "131712.551000", "131714.551000", "131716.550000", "131718.549000", "131720.549000", "131722.550000", "131724.549000", "131726.549000", "131728.549000", "131730.551000", "131732.551000", "131734.550000", "131736.550000", "131738.549000", "131740.049000", "131742.549000", "131744.549000", "131746.550000", "131748.551000", "131750.051000", "131752.549000", "131754.549000", "131756.049000", "131758.550000", "131800.549000", "131802.549000", "131804.549000", "131806.551000", "131808.550000", "131810.550000", "131812.549000", "131814.549000", "131816.549000", "131818.549000", "131820.549000", "131822.551000", "131824.551000", "131826.549000", "131828.550000", "131830.550000", "131832.550000", "131834.550000", "131836.550000", "131838.550000", "131840.550000", "131842.550000", "131844.549000", "131846.550000", "131848.550000", "131850.549000", "131852.550000", "131854.549000", "131856.550000", "131858.551000", "131900.550000", "131902.549000", "131904.549000", "131906.550000", "131908.549000", "131910.550000", "131912.550000", "131914.550000", "131916.550000", "131918.550000", "131920.549000", "131922.549000", "131924.549000", "131926.549000", "131928.550000", "131930.549000", "131932.550000", "131934.551000", "131936.550000", "131938.549000", "131940.550000", "131942.549000", "131944.549000", "131946.550000", "131948.550000", "131950.551000", "131952.550000", "131954.550000", "131956.549000", "131958.549000", "132000.549000", "132002.550000", "132004.550000", "132006.549000", "132008.550000", "132010.549000", "132012.549000", "132014.550000", "132016.550000", "132018.549000", "132020.550000", "132022.549000", "132024.550000", "132026.550000", "132028.550000", "132030.550000", "132032.550000", "132034.550000", "132036.550000", "132038.550000", "132040.549000", "132042.551000", "132044.550000", "132046.549000", "132048.550000", "132050.550000", "132052.549000", "132054.550000", "132056.111000"],
      "InstanceCreationTime": ["131547.055000", "131548.550000", "131550.550000", "131552.549000", "131554.549000", "131556.549000", "131558.550000", "131600.550000", "131602.551000", "131604.551000", "131606.549000", "131608.549000", "131610.550000", "131612.550000", "131614.549000", "131616.550000", "131618.550000", "131620.550000", "131622.550000", "131624.550000", "131626.549000", "131628.550000", "131630.549000", "131632.549000", "131634.549000", "131636.549000", "131638.550000", "131640.549000", "131642.549000", "131644.549000", "131646.549000", "131648.549000", "131650.549000", "131652.549000", "131654.549000", "131656.550000", "131658.549000", "131700.550000", "131702.549000", "131704.550000", "131706.550000", "131708.550000", "131710.549000", "131712.551000", "131714.551000", "131716.550000", "131718.549000", "131720.549000", "131722.550000", "131724.549000", "131726.549000", "131728.549000", "131730.551000", "131732.551000", "131734.550000", "131736.550000", "131738.549000", "131740.049000", "131742.549000", "131744.549000", "131746.550000", "131748.551000", "131750.051000", "131752.549000", "131754.549000", "131756.049000", "131758.550000", "131800.549000", "131802.549000", "131804.549000", "131806.551000", "131808.550000", "131810.550000", "131812.549000", "131814.549000", "131816.549000", "131818.549000", "131820.549000", "131822.551000", "131824.551000", "131826.549000", "131828.550000", "131830.550000", "131832.550000", "131834.550000", "131836.550000", "131838.550000", "131840.550000", "131842.550000", "131844.549000", "131846.550000", "131848.550000", "131850.549000", "131852.550000", "131854.549000", "131856.550000", "131858.551000", "131900.550000", "131902.549000", "131904.549000", "131906.550000", "131908.549000", "131910.550000", "131912.550000", "131914.550000", "131916.550000", "131918.550000", "131920.549000", "131922.549000", "131924.549000", "131926.549000", "131928.550000", "131930.549000", "131932.550000", "131934.551000", "131936.550000", "131938.549000", "131940.550000", "131942.549000", "131944.549000", "131946.550000", "131948.550000", "131950.551000", "131952.550000", "131954.550000", "131956.549000", "131958.549000", "132000.549000", "132002.550000", "132004.550000", "132006.549000", "132008.550000", "132010.549000", "132012.549000", "132014.550000", "132016.550000", "132018.549000", "132020.550000", "132022.549000", "132024.550000", "132026.550000", "132028.550000", "132030.550000", "132032.550000", "132034.550000", "132036.550000", "132038.550000", "132040.549000", "132042.551000", "132044.550000", "132046.549000", "132048.550000", "132050.550000", "132052.549000", "132054.550000", "132056.111000"],
      "InstanceNumber": [1, 2, 3, 4, 5, 6, 7, 8, 9, 10, 11, 12, 13, 14, 15, 16, 17, 18, 19, 20, 21, 22, 23, 24, 25, 26, 27, 28, 29, 30, 31, 32, 33, 34, 35, 36, 37, 38, 39, 40, 41, 42, 43, 44, 45, 46, 47, 48, 49, 50, 51, 52, 53, 54, 55, 56, 57, 58, 59, 60, 61, 62, 63, 64, 65, 66, 67, 68, 69, 70, 71, 72, 73, 74, 75, 76, 77, 78, 79, 80, 81, 82, 83, 84, 85, 86, 87, 88, 89, 90, 91, 92, 93, 94, 95, 96, 97, 98, 99, 100, 101, 102, 103, 104, 105, 106, 107, 108, 109, 110, 111, 112, 113, 114, 115, 116, 117, 118, 119, 120, 121, 122, 123, 124, 125, 126, 127, 128, 129, 130, 131, 132, 133, 134, 135, 136, 137, 138, 139, 140, 141, 142, 143, 144, 145, 146, 147, 148, 149, 150, 151, 152, 153, 154, 155, 156],
      "LargestImagePixelValue": [4095, 4095, 4095, 4095, 4095, 4095, 4095, 4095, 4095, 4095, 4095, 4095, 4095, 4095, 4095, 4095, 4095, 4095, 4095, 4095, 4095, 4095, 4095, 4095, 4095, 4095, 4095, 4095, 4095, 4095, 4095, 4095, 4095, 4095, 4095, 4095, 4095, 4095, 4095, 4095, 4095, 4095, 4095, 4095, 4095, 4095, 4095, 4095, 4095, 4095, 4095, 4095, 4095, 4095, 4095, 4095, 4095, 4095, 4095, 4095, 4095, 4095, 4095, 4095, 4095, 4095, 4095, 4095, 4095, 4095, 4095, 4095, 4095, 4095, 4095, 4095, 4095, 4095, 4095, 4095, 4095, 4095, 4095, 4095, 4095, 4095, 4095, 4095, 4095, 4095, 4095, 4095, 4095, 4095, 4095, 4095, 4095, 4095, 4095, 4095, 4095, 4095, 4095, 4095, 4095, 4095, 4095, 4095, 4095, 4095, 4095, 4095, 4095, 4095, 4095, 4095, 4095, 4095, 4095, 4095, 4095, 4095, 4095, 4095, 4095, 4095, 4095, 4095, 4095, 4095, 4095, 4095, 4095, 4076, 4038, 4043, 4095, 4095, 4095, 4095, 4095, 4095, 4095, 4095, 4095, 4095, 4095, 4095, 4095, 4095, 4095, 4095, 4095, 4095, 4095, 4095],
      "WindowCenter": [828.0, 828.0, 828.0, 827.0, 825.0, 824.0, 824.0, 826.0, 828.0, 828.0, 828.0, 827.0, 828.0, 828.0, 828.0, 825.0, 825.0, 825.0, 826.0, 826.0, 827.0, 826.0, 826.0, 827.0, 827.0, 826.0, 826.0, 827.0, 828.0, 827.0, 826.0, 825.0, 826.0, 825.0, 824.0, 824.0, 826.0, 827.0, 828.0, 827.0, 826.0, 827.0, 826.0, 827.0, 827.0, 827.0, 826.0, 826.0, 826.0, 825.0, 825.0, 825.0, 827.0, 827.0, 827.0, 826.0, 826.0, 826.0, 827.0, 828.0, 828.0, 828.0, 827.0, 827.0, 825.0, 825.0, 825.0, 826.0, 826.0, 827.0, 827.0, 827.0, 828.0, 827.0, 828.0, 828.0, 828.0, 827.0, 825.0, 825.0, 826.0, 826.0, 826.0, 827.0, 828.0, 828.0, 829.0, 828.0, 828.0, 828.0, 827.0, 827.0, 828.0, 829.0, 829.0, 828.0, 827.0, 827.0, 827.0, 826.0, 827.0, 828.0, 829.0, 828.0, 827.0, 826.0, 827.0, 826.0, 825.0, 826.0, 828.0, 830.0, 830.0, 829.0, 829.0, 829.0, 828.0, 828.0, 828.0, 829.0, 829.0, 828.0, 827.0, 827.0, 826.0, 827.0, 828.0, 828.0, 827.0, 827.0, 827.0, 827.0, 828.0, 828.0, 828.0, 827.0, 828.0, 828.0, 827.0, 827.0, 827.0, 828.0, 828.0, 828.0, 827.0, 827.0, 828.0, 829.0, 829.0, 828.0, 828.0, 827.0, 827.0, 825.0, 825.0, 825.0],
      "WindowWidth": [1805.0, 1804.0, 1803.0, 1800.0, 1796.0, 1792.0, 1793.0, 1798.0, 1803.0, 1804.0, 1803.0, 1800.0, 1803.0, 1804.0, 1803.0, 1795.0, 1794.0, 1794.0, 1796.0, 1798.0, 1800.0, 1798.0, 1799.0, 1800.0, 1800.0, 1797.0, 1797.0, 1800.0, 1802.0, 1801.0, 1797.0, 1796.0, 1796.0, 1795.0, 1792.0, 1793.0, 1797.0, 1800.0, 1802.0, 1799.0, 1799.0, 1800.0, 1798.0, 1799.0, 1801.0, 1800.0, 1798.0, 1796.0, 1796.0, 1794.0, 1794.0, 1795.0, 1800.0, 1800.0, 1799.0, 1798.0, 1798.0, 1797.0, 1800.0, 1802.0, 1804.0, 1802.0, 1801.0, 1798.0, 1794.0, 1795.0, 1795.0, 1797.0, 1797.0, 1799.0, 1800.0, 1800.0, 1802.0, 1801.0, 1802.0, 1801.0, 1804.0, 1799.0, 1793.0, 1794.0, 1798.0, 1797.0, 1798.0, 1799.0, 1802.0, 1802.0, 1805.0, 1802.0, 1802.0, 1801.0, 1800.0, 1799.0, 1802.0, 1805.0, 1807.0, 1802.0, 1802.0, 1800.0, 1801.0, 1798.0, 1799.0, 1803.0, 1807.0, 1803.0, 1799.0, 1796.0, 1798.0, 1796.0, 1795.0, 1797.0, 1804.0, 1807.0, 1807.0, 1804.0, 1804.0, 1803.0, 1803.0, 1802.0, 1803.0, 1805.0, 1805.0, 1802.0, 1800.0, 1798.0, 1798.0, 1799.0, 1801.0, 1801.0, 1800.0, 1800.0, 1799.0, 1800.0, 1803.0, 1803.0, 1802.0, 1800.0, 1803.0, 1803.0, 1800.0, 1799.0, 1800.0, 1802.0, 1803.0, 1803.0, 1801.0, 1801.0, 1804.0, 1807.0, 1804.0, 1802.0, 1803.0, 1800.0, 1799.0, 1796.0, 1795.0, 1795.0]
    },
    "slices": {}
  }
}