{
  "AcquisitionMatrixPE": 100,
  "AcquisitionNumber": 1,
  "AcquisitionTime": "14:10:43.057500",
  "BandwidthPerPixelPhaseEncode": 18.519,
  "BaseResolution": 100,
  "BodyPartExamined": "BRAIN",
  "CoilCombinationMethod": "Sum of Squares",
  "ConsistencyInfo": "N4_VE11C_LATEST_20160120",
  "ConversionSoftware": "dcm2niix",
  "ConversionSoftwareVersion": "v1.0.20211006",
  "DerivedVendorReportedEchoSpacing": 0.000539986,
  "DeviceSerialNumber": "166078",
  "DwellTime": 2.1e-06,
  "EchoTime": 0.034,
  "EchoTrainLength": 100,
  "EffectiveEchoSpacing": 0.000539986,
  "FlipAngle": 90,
  "ImageOrientationPatientDICOM": [1, 0, 0, 0, 0.982935, -0.183951],
  "ImageOrientationText": "Tra>Cor(-10.6)",
  "ImageType": [
    "ORIGINAL",
    "PRIMARY",
    "M",
    "ND",
    "MOSAIC"
],
  "ImagingFrequency": 123.258,
  "InPlanePhaseEncodingDirectionDICOM": "COL",
  "InstitutionAddress": "Street StreetNo,Bei Jing,District,CN,ZIP",
  "InstitutionName": "BeiJing Normal University",
  "InstitutionalDepartmentName": "Department",
  "MRAcquisitionType": "2D",
  "MagneticFieldStrength": 3,
  "Manufacturer": "Siemens",
  "ManufacturersModelName": "Prisma",
  "Modality": "MR",
  "MultibandAccelerationFactor": 3,
  "PartialFourier": 1,
  "PatientPosition": "HFS",
  "PercentPhaseFOV": 100,
  "PercentSampling": 100,
  "PhaseEncodingDirection": "j-",
  "PhaseEncodingSteps": 100,
  "PhaseResolution": 1,
  "PixelBandwidth": 2380,
  "ProcedureStepDescription": "BNU_P2018_64CH^Zhen.ZongLei",
  "ProtocolName": "bold_100x100_s3_2x2x2_static_156",
  "PulseSequenceDetails": "%SiemensSeq%\\ep2d_bold",
  "ReceiveCoilActiveElements": "HC1-7;NC1",
  "ReceiveCoilName": "HeadNeck_64",
  "ReconMatrixPE": 100,
  "RefLinesPE": 32,
  "RepetitionTime": 2,
  "SAR": 0.0713138,
  "ScanOptions": "FS",
  "ScanningSequence": "EP",
  "SequenceName": "*epfid2d1_100",
  "SequenceVariant": "SK",
  "SeriesDescription": "bold_100x100_s3_2x2x2_static_156",
  "SeriesNumber": 16,
  "ShimSetting": [-5463, -11523, -1210, 272, -54, -382, -114, 33],
  "SliceThickness": 2,
  "SliceTiming": [1.485, 0, 0.99, 0.0825, 1.0725, 0.165, 1.155, 0.2475, 1.2375, 0.33, 1.32, 0.4125, 1.4025, 0.5775, 1.5675, 0.66, 1.65, 0.7425, 1.7325, 0.825, 1.815, 0.9075, 1.8975, 0.495, 1.485, 0, 0.99, 0.0825, 1.0725, 0.165, 1.155, 0.2475, 1.2375, 0.33, 1.32, 0.4125, 1.4025, 0.5775, 1.5675, 0.66, 1.65, 0.7425, 1.7325, 0.825, 1.815, 0.9075, 1.8975, 0.495, 1.485, 0, 0.99, 0.0825, 1.0725, 0.165, 1.155, 0.2475, 1.2375, 0.33, 1.32, 0.4125, 1.4025, 0.5775, 1.5675, 0.66, 1.65, 0.7425, 1.7325, 0.825, 1.815, 0.9075, 1.8975, 0.495],
  "SoftwareVersions": "syngo MR E11",
  "SpacingBetweenSlices": 2,
  "StationName": "AWP166078",
  "TaskName": "action",
  "TotalReadoutTime": 0.0534586,
  "TxRefAmp": 231.784,
  "dcmmeta_affine": [
    [-2.0, 0.0, 0.0, 100.67796325683594],
    [0.0, 1.96587073802948, -0.3679027259349823, -81.28649139404297],
    [0.0, 0.3679027259349823, 1.96587073802948, -70.44034576416016],
    [0.0, 0.0, 0.0, 1.0]
],
  "dcmmeta_reorient_transform": [
    [0.0, -1.0, 0.0, 99.0],
    [1.0, 0.0, 0.0, 0.0],
    [0.0, 0.0, 1.0, 0.0],
    [0.0, 0.0, 0.0, 1.0]
],
  "dcmmeta_shape": [100, 100, 72, 156],
  "dcmmeta_slice_dim": 2,
  "dcmmeta_version": 0.6,
  "global": {
    "const": {
      "AcquisitionMatrix": [100, 0, 0, 100],
      "AngioFlag": "N",
      "BitsAllocated": 16,
      "BitsStored": 12,
      "BodyPartExamined": "BRAIN",
      "Columns": 900,
      "EchoNumbers": 1,
      "EchoTime": 34.0,
      "EchoTrainLength": 100,
      "FlipAngle": 90.0,
      "HighBit": 11,
      "ImageOrientationPatient": [1.0, 0.0, 0.0, 0.0, 0.98293534700206, -0.1839513620878],
      "ImagePositionPatient": [-900.67796611786, -899.68298814414, 113.1431170533],
      "ImageType": [
        "ORIGINAL",
        "PRIMARY",
        "M",
        "ND",
        "MOSAIC"
],
      "ImagedNucleus": "1H",
      "ImagingFrequency": 123.257715,
      "InPlanePhaseEncodingDirection": "COL",
      "MRAcquisitionType": "2D",
      "MagneticFieldStrength": 3.0,
      "Manufacturer": "SIEMENS",
      "ManufacturerModelName": "Prisma",
      "Modality": "MR",
      "NumberOfAverages": 1.0,
      "NumberOfPhaseEncodingSteps": 100,
      "PercentPhaseFieldOfView": 100.0,
      "PercentSampling": 100.0,
      "PerformedProcedureStepStartTime": "125742.017000",
      "PhotometricInterpretation": "MONOCHROME2",
      "PixelBandwidth": 2380.0,
      "PixelRepresentation": 0,
      "PixelSpacing": [2.0, 2.0],
      "ProtocolName": "bold_100x100_s3_2x2x2_static_156",
      "RepetitionTime": 2000.0,
      "Rows": 900,
      "SAR": 0.07131380390722,
      "SamplesPerPixel": 1,
      "ScanOptions": "FS",
      "ScanningSequence": "EP",
      "SequenceName": "*epfid2d1_100",
      "SequenceVariant": "SK",
      "SeriesDescription": "bold_100x100_s3_2x2x2_static_156",
      "SeriesNumber": 16,
      "SeriesTime": "141046.079000",
      "SliceLocation": -54.28554209462,
      "SliceThickness": 2.0,
      "SmallestImagePixelValue": 0,
      "SoftwareVersions": "syngo MR E11",
      "SpacingBetweenSlices": 2.0000000111406,
      "SpecificCharacterSet": "ISO_IR 100",
      "StudyID": "1",
      "StudyTime": "125741.935000",
      "TransmitCoilName": "Body",
      "VariableFlipAngleFlag": "N",
      "WindowCenterWidthExplanation": "Algo1",
      "dBdt": 0.0},
    "slices": {}
  },
  "time": {
    "samples": {
      "AcquisitionNumber": [1, 2, 3, 4, 5, 6, 7, 8, 9, 10, 11, 12, 13, 14, 15, 16, 17, 18, 19, 20, 21, 22, 23, 24, 25, 26, 27, 28, 29, 30, 31, 32, 33, 34, 35, 36, 37, 38, 39, 40, 41, 42, 43, 44, 45, 46, 47, 48, 49, 50, 51, 52, 53, 54, 55, 56, 57, 58, 59, 60, 61, 62, 63, 64, 65, 66, 67, 68, 69, 70, 71, 72, 73, 74, 75, 76, 77, 78, 79, 80, 81, 82, 83, 84, 85, 86, 87, 88, 89, 90, 91, 92, 93, 94, 95, 96, 97, 98, 99, 100, 101, 102, 103, 104, 105, 106, 107, 108, 109, 110, 111, 112, 113, 114, 115, 116, 117, 118, 119, 120, 121, 122, 123, 124, 125, 126, 127, 128, 129, 130, 131, 132, 133, 134, 135, 136, 137, 138, 139, 140, 141, 142, 143, 144, 145, 146, 147, 148, 149, 150, 151, 152, 153, 154, 155, 156],
      "AcquisitionTime": ["141043.057500", "141045.057500", "141047.057500", "141049.057500", "141051.057500", "141053.057500", "141055.057500", "141057.057500", "141059.057500", "141101.057500", "141103.057500", "141105.057500", "141107.057500", "141109.057500", "141111.057500", "141113.057500", "141115.057500", "141117.057500", "141119.057500", "141121.057500", "141123.057500", "141125.057500", "141127.057500", "141129.057500", "141131.057500", "141133.057500", "141135.057500", "141137.057500", "141139.057500", "141141.057500", "141143.057500", "141145.057500", "141147.057500", "141149.057500", "141151.057500", "141153.057500", "141155.057500", "141157.057500", "141159.057500", "141201.057500", "141203.057500", "141205.057500", "141207.057500", "141209.057500", "141211.057500", "141213.057500", "141215.057500", "141217.057500", "141219.057500", "141221.057500", "141223.057500", "141225.057500", "141227.057500", "141229.057500", "141231.057500", "141233.057500", "141235.057500", "141237.057500", "141239.057500", "141241.057500", "141243.057500", "141245.057500", "141247.057500", "141249.057500", "141251.057500", "141253.057500", "141255.057500", "141257.057500", "141259.057500", "141301.057500", "141303.057500", "141305.057500", "141307.057500", "141309.057500", "141311.057500", "141313.057500", "141315.057500", "141317.057500", "141319.057500", "141321.057500", "141323.057500", "141325.057500", "141327.057500", "141329.057500", "141331.057500", "141333.057500", "141335.057500", "141337.057500", "141339.057500", "141341.057500", "141343.057500", "141345.057500", "141347.057500", "141349.057500", "141351.057500", "141353.057500", "141355.057500", "141357.057500", "141359.057500", "141401.057500", "141403.057500", "141405.057500", "141407.057500", "141409.057500", "141411.057500", "141413.057500", "141415.057500", "141417.057500", "141419.057500", "141421.057500", "141423.057500", "141425.057500", "141427.057500", "141429.057500", "141431.057500", "141433.057500", "141435.057500", "141437.057500", "141439.057500", "141441.057500", "141443.057500", "141445.057500", "141447.057500", "141449.057500", "141451.057500", "141453.057500", "141455.057500", "141457.057500", "141459.057500", "141501.057500", "141503.057500", "141505.057500", "141507.057500", "141509.057500", "141511.057500", "141513.057500", "141515.057500", "141517.057500", "141519.057500", "141521.057500", "141523.057500", "141525.057500", "141527.057500", "141529.057500", "141531.057500", "141533.057500", "141535.057500", "141537.057500", "141539.057500", "141541.057500", "141543.057500", "141545.057500", "141547.057500", "141549.057500", "141551.057500", "141553.057500"],
      "ContentTime": ["141046.083000", "141047.578000", "141049.578000", "141051.578000", "141053.578000", "141055.579000", "141057.578000", "141059.579000", "141101.579000", "141103.579000", "141105.577000", "141107.579000", "141109.579000", "141111.579000", "141113.578000", "141115.579000", "141117.578000", "141119.579000", "141121.579000", "141123.578000", "141125.578000", "141127.578000", "141129.579000", "141131.579000", "141133.578000", "141135.578000", "141137.578000", "141139.579000", "141141.578000", "141143.579000", "141145.578000", "141147.578000", "141149.579000", "141151.578000", "141153.578000", "141155.579000", "141157.579000", "141159.578000", "141201.579000", "141203.578000", "141205.578000", "141207.578000", "141209.579000", "141211.579000", "141213.579000", "141215.578000", "141217.579000", "141219.579000", "141221.579000", "141223.579000", "141225.579000", "141227.579000", "141229.579000", "141231.579000", "141233.577000", "141235.578000", "141237.578000", "141239.579000", "141241.579000", "141243.579000", "141245.579000", "141247.579000", "141249.579000", "141251.578000", "141253.578000", "141255.579000", "141257.579000", "141259.579000", "141301.578000", "141303.578000", "141305.579000", "141307.579000", "141309.579000", "141311.578000", "141313.579000", "141315.579000", "141317.579000", "141319.579000", "141321.579000", "141323.578000", "141325.577000", "141327.579000", "141329.579000", "141331.579000", "141333.578000", "141335.578000", "141337.578000", "141339.579000", "141341.578000", "141343.577000", "141345.579000", "141347.579000", "141349.578000", "141351.578000", "141353.579000", "141355.579000", "141357.078000", "141359.579000", "141401.578000", "141403.579000", "141405.579000", "141407.579000", "141409.578000", "141411.579000", "141413.579000", "141415.579000", "141417.579000", "141419.578000", "141421.579000", "141423.578000", "141425.579000", "141427.579000", "141429.579000", "141431.578000", "141433.578000", "141435.577000", "141437.578000", "141439.579000", "141441.579000", "141443.578000", "141445.579000", "141447.579000", "141449.579000", "141451.579000", "141453.578000", "141455.578000", "141457.579000", "141459.579000", "141501.578000", "141503.579000", "141505.579000", "141507.579000", "141509.579000", "141511.577000", "141513.578000", "141515.579000", "141517.578000", "141519.578000", "141521.579000", "141523.579000", "141525.579000", "141527.578000", "141529.579000", "141531.578000", "141533.578000", "141535.578000", "141537.579000", "141539.578000", "141541.578000", "141543.578000", "141545.577000", "141547.579000", "141549.578000", "141551.579000", "141553.578000", "141555.121000"],
      "InstanceCreationTime": ["141046.083000", "141047.578000", "141049.578000", "141051.578000", "141053.578000", "141055.579000", "141057.578000", "141059.579000", "141101.579000", "141103.579000", "141105.577000", "141107.579000", "141109.579000", "141111.579000", "141113.578000", "141115.579000", "141117.578000", "141119.579000", "141121.579000", "141123.578000", "141125.578000", "141127.578000", "141129.579000", "141131.579000", "141133.578000", "141135.578000", "141137.578000", "141139.579000", "141141.578000", "141143.579000", "141145.578000", "141147.578000", "141149.579000", "141151.578000", "141153.578000", "141155.579000", "141157.579000", "141159.578000", "141201.579000", "141203.578000", "141205.578000", "141207.578000", "141209.579000", "141211.579000", "141213.579000", "141215.578000", "141217.579000", "141219.579000", "141221.579000", "141223.579000", "141225.579000", "141227.579000", "141229.579000", "141231.579000", "141233.577000", "141235.578000", "141237.578000", "141239.579000", "141241.579000", "141243.579000", "141245.579000", "141247.579000", "141249.579000", "141251.578000", "141253.578000", "141255.579000", "141257.579000", "141259.579000", "141301.578000", "141303.578000", "141305.579000", "141307.579000", "141309.579000", "141311.578000", "141313.579000", "141315.579000", "141317.579000", "141319.579000", "141321.579000", "141323.578000", "141325.577000", "141327.579000", "141329.579000", "141331.579000", "141333.578000", "141335.578000", "141337.578000", "141339.579000", "141341.578000", "141343.577000", "141345.579000", "141347.579000", "141349.578000", "141351.578000", "141353.579000", "141355.579000", "141357.078000", "141359.579000", "141401.578000", "141403.579000", "141405.579000", "141407.579000", "141409.578000", "141411.579000", "141413.579000", "141415.579000", "141417.579000", "141419.578000", "141421.579000", "141423.578000", "141425.579000", "141427.579000", "141429.579000", "141431.578000", "141433.578000", "141435.577000", "141437.578000", "141439.579000", "141441.579000", "141443.578000", "141445.579000", "141447.579000", "141449.579000", "141451.579000", "141453.578000", "141455.578000", "141457.579000", "141459.579000", "141501.578000", "141503.579000", "141505.579000", "141507.579000", "141509.579000", "141511.577000", "141513.578000", "141515.579000", "141517.578000", "141519.578000", "141521.579000", "141523.579000", "141525.579000", "141527.578000", "141529.579000", "141531.578000", "141533.578000", "141535.578000", "141537.579000", "141539.578000", "141541.578000", "141543.578000", "141545.577000", "141547.579000", "141549.578000", "141551.579000", "141553.578000", "141555.121000"],
      "InstanceNumber": [1, 2, 3, 4, 5, 6, 7, 8, 9, 10, 11, 12, 13, 14, 15, 16, 17, 18, 19, 20, 21, 22, 23, 24, 25, 26, 27, 28, 29, 30, 31, 32, 33, 34, 35, 36, 37, 38, 39, 40, 41, 42, 43, 44, 45, 46, 47, 48, 49, 50, 51, 52, 53, 54, 55, 56, 57, 58, 59, 60, 61, 62, 63, 64, 65, 66, 67, 68, 69, 70, 71, 72, 73, 74, 75, 76, 77, 78, 79, 80, 81, 82, 83, 84, 85, 86, 87, 88, 89, 90, 91, 92, 93, 94, 95, 96, 97, 98, 99, 100, 101, 102, 103, 104, 105, 106, 107, 108, 109, 110, 111, 112, 113, 114, 115, 116, 117, 118, 119, 120, 121, 122, 123, 124, 125, 126, 127, 128, 129, 130, 131, 132, 133, 134, 135, 136, 137, 138, 139, 140, 141, 142, 143, 144, 145, 146, 147, 148, 149, 150, 151, 152, 153, 154, 155, 156],
      "LargestImagePixelValue": [3756, 3683, 3710, 3611, 3669, 3673, 3657, 3688, 3670, 3670, 3684, 3661, 3721, 3683, 3698, 3692, 3698, 3700, 3696, 3667, 3745, 3677, 3670, 3679, 3705, 3654, 3645, 3705, 3641, 3688, 3635, 3648, 3629, 3636, 3659, 3649, 3667, 3708, 3691, 3644, 3656, 3594, 3613, 3634, 3661, 3646, 3631, 3641, 3655, 3549, 3585, 3616, 3649, 3643, 3632, 3672, 3611, 3606, 3606, 3573, 3642, 3552, 3601, 3640, 3592, 3579, 3555, 3575, 3549, 3575, 3604, 3567, 3613, 3582, 3603, 3628, 3619, 3563, 3566, 3525, 3588, 3556, 3570, 3561, 3534, 3533, 3539, 3583, 3546, 3536, 3564, 3602, 3611, 3572, 3557, 3577, 3567, 3545, 3560, 3551, 3544, 3586, 3562, 3507, 3541, 3561, 3539, 3531, 3569, 3580, 3537, 3525, 3534, 3574, 3547, 3552, 3587, 3565, 3534, 3575, 3584, 3585, 3540, 3576, 3595, 3580, 3578, 3611, 3541, 3548, 3564, 3556, 3536, 3579, 3581, 3555, 3584, 3565, 3606, 3557, 3560, 3609, 3590, 3642, 3605, 3608, 3580, 3601, 3572, 3604, 3564, 3633, 3619, 3636, 3627, 3626],
      "WindowCenter": [822.0, 819.0, 817.0, 815.0, 816.0, 817.0, 817.0, 817.0, 818.0, 819.0, 819.0, 819.0, 820.0, 820.0, 818.0, 817.0, 817.0, 818.0, 817.0, 817.0, 818.0, 818.0, 819.0, 819.0, 819.0, 818.0, 817.0, 817.0, 816.0, 816.0, 816.0, 817.0, 817.0, 817.0, 817.0, 815.0, 815.0, 817.0, 819.0, 819.0, 818.0, 816.0, 815.0, 817.0, 818.0, 816.0, 814.0, 816.0, 818.0, 815.0, 813.0, 814.0, 815.0, 816.0, 816.0, 816.0, 816.0, 817.0, 817.0, 816.0, 816.0, 815.0, 815.0, 816.0, 816.0, 816.0, 816.0, 816.0, 815.0, 815.0, 817.0, 817.0, 816.0, 815.0, 815.0, 816.0, 817.0, 816.0, 815.0, 815.0, 816.0, 816.0, 816.0, 816.0, 815.0, 815.0, 816.0, 817.0, 816.0, 814.0, 813.0, 815.0, 816.0, 816.0, 816.0, 818.0, 818.0, 816.0, 816.0, 815.0, 815.0, 816.0, 814.0, 812.0, 814.0, 817.0, 818.0, 817.0, 815.0, 816.0, 815.0, 816.0, 816.0, 817.0, 818.0, 818.0, 816.0, 815.0, 815.0, 817.0, 816.0, 814.0, 813.0, 813.0, 814.0, 814.0, 814.0, 817.0, 817.0, 815.0, 814.0, 813.0, 814.0, 815.0, 816.0, 815.0, 815.0, 814.0, 813.0, 811.0, 813.0, 814.0, 813.0, 812.0, 812.0, 813.0, 814.0, 814.0, 814.0, 816.0, 816.0, 815.0, 814.0, 814.0, 815.0, 816.0],
      "WindowWidth": [1777.0, 1768.0, 1763.0, 1759.0, 1760.0, 1763.0, 1763.0, 1763.0, 1766.0, 1769.0, 1769.0, 1768.0, 1772.0, 1770.0, 1767.0, 1763.0, 1765.0, 1766.0, 1764.0, 1763.0, 1766.0, 1767.0, 1768.0, 1769.0, 1769.0, 1766.0, 1762.0, 1763.0, 1761.0, 1762.0, 1762.0, 1762.0, 1765.0, 1765.0, 1764.0, 1759.0, 1760.0, 1765.0, 1769.0, 1769.0, 1766.0, 1762.0, 1759.0, 1763.0, 1765.0, 1760.0, 1757.0, 1760.0, 1765.0, 1757.0, 1753.0, 1756.0, 1758.0, 1762.0, 1762.0, 1762.0, 1761.0, 1763.0, 1763.0, 1760.0, 1760.0, 1757.0, 1759.0, 1760.0, 1761.0, 1760.0, 1761.0, 1761.0, 1759.0, 1759.0, 1763.0, 1762.0, 1761.0, 1757.0, 1759.0, 1762.0, 1764.0, 1761.0, 1757.0, 1757.0, 1761.0, 1761.0, 1761.0, 1760.0, 1759.0, 1757.0, 1760.0, 1764.0, 1760.0, 1756.0, 1753.0, 1757.0, 1760.0, 1761.0, 1760.0, 1765.0, 1765.0, 1761.0, 1760.0, 1757.0, 1759.0, 1760.0, 1756.0, 1751.0, 1755.0, 1763.0, 1766.0, 1762.0, 1759.0, 1759.0, 1759.0, 1760.0, 1761.0, 1762.0, 1765.0, 1764.0, 1761.0, 1758.0, 1757.0, 1764.0, 1760.0, 1755.0, 1752.0, 1753.0, 1756.0, 1757.0, 1757.0, 1762.0, 1761.0, 1757.0, 1755.0, 1753.0, 1754.0, 1758.0, 1759.0, 1757.0, 1757.0, 1756.0, 1751.0, 1748.0, 1753.0, 1754.0, 1751.0, 1750.0, 1749.0, 1752.0, 1754.0, 1755.0, 1756.0, 1760.0, 1760.0, 1757.0, 1755.0, 1756.0, 1759.0, 1760.0]
    },
    "slices": {}
  }
}