{
  "AcquisitionMatrixPE": 100,
  "AcquisitionNumber": 1,
  "AcquisitionTime": "13:04:5.995000",
  "BandwidthPerPixelPhaseEncode": 18.519,
  "BaseResolution": 100,
  "BodyPartExamined": "BRAIN",
  "CoilCombinationMethod": "Sum of Squares",
  "ConsistencyInfo": "N4_VE11C_LATEST_20160120",
  "ConversionSoftware": "dcm2niix",
  "ConversionSoftwareVersion": "v1.0.20211006",
  "DerivedVendorReportedEchoSpacing": 0.000539986,
  "DeviceSerialNumber": "166078",
  "DwellTime": 2.1e-06,
  "EchoTime": 0.034,
  "EchoTrainLength": 100,
  "EffectiveEchoSpacing": 0.000539986,
  "FlipAngle": 90,
  "ImageOrientationPatientDICOM": [1, 0, 0, 0, 0.982935, -0.183951],
  "ImageOrientationText": "Tra>Cor(-10.6)",
  "ImageType": [
    "ORIGINAL",
    "PRIMARY",
    "M",
    "ND",
    "MOSAIC"
],
  "ImagingFrequency": 123.258,
  "InPlanePhaseEncodingDirectionDICOM": "COL",
  "InstitutionAddress": "Street StreetNo,Bei Jing,District,CN,ZIP",
  "InstitutionName": "BeiJing Normal University",
  "InstitutionalDepartmentName": "Department",
  "MRAcquisitionType": "2D",
  "MagneticFieldStrength": 3,
  "Manufacturer": "Siemens",
  "ManufacturersModelName": "Prisma",
  "Modality": "MR",
  "MultibandAccelerationFactor": 3,
  "PartialFourier": 1,
  "PatientPosition": "HFS",
  "PercentPhaseFOV": 100,
  "PercentSampling": 100,
  "PhaseEncodingDirection": "j-",
  "PhaseEncodingSteps": 100,
  "PhaseResolution": 1,
  "PixelBandwidth": 2380,
  "ProcedureStepDescription": "BNU_P2018_64CH^Zhen.ZongLei",
  "ProtocolName": "bold_100x100_s3_2x2x2_static_156",
  "PulseSequenceDetails": "%SiemensSeq%\\ep2d_bold",
  "ReceiveCoilActiveElements": "HC1-7;NC1",
  "ReceiveCoilName": "HeadNeck_64",
  "ReconMatrixPE": 100,
  "RefLinesPE": 32,
  "RepetitionTime": 2,
  "SAR": 0.0713138,
  "ScanOptions": "FS",
  "ScanningSequence": "EP",
  "SequenceName": "*epfid2d1_100",
  "SequenceVariant": "SK",
  "SeriesDescription": "bold_100x100_s3_2x2x2_static_156",
  "SeriesNumber": 3,
  "ShimSetting": [-5463, -11523, -1210, 272, -54, -382, -114, 33],
  "SliceThickness": 2,
  "SliceTiming": [1.485, 0, 0.99, 0.0825, 1.0725, 0.165, 1.155, 0.2475, 1.2375, 0.33, 1.32, 0.4125, 1.4025, 0.5775, 1.5675, 0.66, 1.65, 0.7425, 1.7325, 0.825, 1.815, 0.9075, 1.8975, 0.495, 1.485, 0, 0.99, 0.0825, 1.0725, 0.165, 1.155, 0.2475, 1.2375, 0.33, 1.32, 0.4125, 1.4025, 0.5775, 1.5675, 0.66, 1.65, 0.7425, 1.7325, 0.825, 1.815, 0.9075, 1.8975, 0.495, 1.485, 0, 0.99, 0.0825, 1.0725, 0.165, 1.155, 0.2475, 1.2375, 0.33, 1.32, 0.4125, 1.4025, 0.5775, 1.5675, 0.66, 1.65, 0.7425, 1.7325, 0.825, 1.815, 0.9075, 1.8975, 0.495],
  "SoftwareVersions": "syngo MR E11",
  "SpacingBetweenSlices": 2,
  "StationName": "AWP166078",
  "TaskName": "action",
  "TotalReadoutTime": 0.0534586,
  "TxRefAmp": 231.784,
  "dcmmeta_affine": [
    [-2.0, 0.0, 0.0, 100.67796325683594],
    [0.0, 1.96587073802948, -0.3679027259349823, -81.28649139404297],
    [0.0, 0.3679027259349823, 1.96587073802948, -70.44034576416016],
    [0.0, 0.0, 0.0, 1.0]
],
  "dcmmeta_reorient_transform": [
    [0.0, -1.0, 0.0, 99.0],
    [1.0, 0.0, 0.0, 0.0],
    [0.0, 0.0, 1.0, 0.0],
    [0.0, 0.0, 0.0, 1.0]
],
  "dcmmeta_shape": [100, 100, 72, 156],
  "dcmmeta_slice_dim": 2,
  "dcmmeta_version": 0.6,
  "global": {
    "const": {
      "AcquisitionMatrix": [100, 0, 0, 100],
      "AngioFlag": "N",
      "BitsAllocated": 16,
      "BitsStored": 12,
      "BodyPartExamined": "BRAIN",
      "Columns": 900,
      "EchoNumbers": 1,
      "EchoTime": 34.0,
      "EchoTrainLength": 100,
      "FlipAngle": 90.0,
      "HighBit": 11,
      "ImageOrientationPatient": [1.0, 0.0, 0.0, 0.0, 0.98293534700206, -0.1839513620878],
      "ImagePositionPatient": [-900.67796611786, -899.68298814414, 113.1431170533],
      "ImageType": [
        "ORIGINAL",
        "PRIMARY",
        "M",
        "ND",
        "MOSAIC"
],
      "ImagedNucleus": "1H",
      "ImagingFrequency": 123.257692,
      "InPlanePhaseEncodingDirection": "COL",
      "MRAcquisitionType": "2D",
      "MagneticFieldStrength": 3.0,
      "Manufacturer": "SIEMENS",
      "ManufacturerModelName": "Prisma",
      "Modality": "MR",
      "NumberOfAverages": 1.0,
      "NumberOfPhaseEncodingSteps": 100,
      "PercentPhaseFieldOfView": 100.0,
      "PercentSampling": 100.0,
      "PerformedProcedureStepStartTime": "125742.017000",
      "PhotometricInterpretation": "MONOCHROME2",
      "PixelBandwidth": 2380.0,
      "PixelRepresentation": 0,
      "PixelSpacing": [2.0, 2.0],
      "ProtocolName": "bold_100x100_s3_2x2x2_static_156",
      "RepetitionTime": 2000.0,
      "Rows": 900,
      "SAR": 0.07131380390722,
      "SamplesPerPixel": 1,
      "ScanOptions": "FS",
      "ScanningSequence": "EP",
      "SequenceName": "*epfid2d1_100",
      "SequenceVariant": "SK",
      "SeriesDescription": "bold_100x100_s3_2x2x2_static_156",
      "SeriesNumber": 3,
      "SeriesTime": "130408.046000",
      "SliceLocation": -54.28554209462,
      "SliceThickness": 2.0,
      "SmallestImagePixelValue": 0,
      "SoftwareVersions": "syngo MR E11",
      "SpacingBetweenSlices": 2.0000000111406,
      "SpecificCharacterSet": "ISO_IR 100",
      "StudyID": "1",
      "StudyTime": "125741.935000",
      "TransmitCoilName": "Body",
      "VariableFlipAngleFlag": "N",
      "WindowCenterWidthExplanation": "Algo1",
      "dBdt": 0.0},
    "slices": {}
  },
  "time": {
    "samples": {
      "AcquisitionNumber": [1, 2, 3, 4, 5, 6, 7, 8, 9, 10, 11, 12, 13, 14, 15, 16, 17, 18, 19, 20, 21, 22, 23, 24, 25, 26, 27, 28, 29, 30, 31, 32, 33, 34, 35, 36, 37, 38, 39, 40, 41, 42, 43, 44, 45, 46, 47, 48, 49, 50, 51, 52, 53, 54, 55, 56, 57, 58, 59, 60, 61, 62, 63, 64, 65, 66, 67, 68, 69, 70, 71, 72, 73, 74, 75, 76, 77, 78, 79, 80, 81, 82, 83, 84, 85, 86, 87, 88, 89, 90, 91, 92, 93, 94, 95, 96, 97, 98, 99, 100, 101, 102, 103, 104, 105, 106, 107, 108, 109, 110, 111, 112, 113, 114, 115, 116, 117, 118, 119, 120, 121, 122, 123, 124, 125, 126, 127, 128, 129, 130, 131, 132, 133, 134, 135, 136, 137, 138, 139, 140, 141, 142, 143, 144, 145, 146, 147, 148, 149, 150, 151, 152, 153, 154, 155, 156],
      "AcquisitionTime": ["130405.995000", "130407.995000", "130409.995000", "130411.995000", "130413.995000", "130415.995000", "130417.995000", "130419.995000", "130421.995000", "130423.995000", "130425.995000", "130427.995000", "130429.995000", "130431.995000", "130433.995000", "130435.995000", "130437.995000", "130439.995000", "130441.995000", "130443.995000", "130445.995000", "130447.995000", "130449.995000", "130451.995000", "130453.995000", "130455.995000", "130457.995000", "130459.995000", "130501.995000", "130503.995000", "130505.995000", "130507.995000", "130509.995000", "130511.995000", "130513.995000", "130515.995000", "130517.995000", "130519.995000", "130521.995000", "130523.995000", "130525.995000", "130527.995000", "130529.995000", "130531.995000", "130533.995000", "130535.995000", "130537.995000", "130539.995000", "130541.995000", "130543.995000", "130545.995000", "130547.995000", "130549.995000", "130551.995000", "130553.995000", "130555.995000", "130557.995000", "130559.995000", "130601.995000", "130603.995000", "130605.995000", "130607.995000", "130609.995000", "130611.995000", "130613.995000", "130615.995000", "130617.995000", "130619.995000", "130621.995000", "130623.995000", "130625.995000", "130627.995000", "130629.995000", "130631.995000", "130633.995000", "130635.995000", "130637.995000", "130639.995000", "130641.995000", "130643.995000", "130645.995000", "130647.995000", "130649.995000", "130651.995000", "130653.995000", "130655.995000", "130657.995000", "130659.995000", "130701.995000", "130703.995000", "130705.995000", "130707.995000", "130709.995000", "130711.995000", "130713.995000", "130715.995000", "130717.995000", "130719.995000", "130721.995000", "130723.995000", "130725.995000", "130727.995000", "130729.995000", "130731.995000", "130733.995000", "130735.995000", "130737.995000", "130739.995000", "130741.995000", "130743.995000", "130745.995000", "130747.995000", "130749.995000", "130751.995000", "130753.995000", "130755.995000", "130757.995000", "130759.995000", "130801.995000", "130803.995000", "130805.995000", "130807.995000", "130809.995000", "130811.995000", "130813.995000", "130815.995000", "130817.995000", "130819.995000", "130821.995000", "130823.995000", "130825.995000", "130827.995000", "130829.995000", "130831.995000", "130833.995000", "130835.995000", "130837.995000", "130839.995000", "130841.995000", "130843.995000", "130845.995000", "130847.995000", "130849.995000", "130851.995000", "130853.995000", "130855.995000", "130857.995000", "130859.995000", "130901.995000", "130903.995000", "130905.995000", "130907.995000", "130909.995000", "130911.995000", "130913.995000", "130915.995000"],
      "ContentTime": ["130408.050000", "130410.046000", "130412.045000", "130414.045000", "130415.546000", "130418.046000", "130420.045000", "130422.046000", "130424.046000", "130426.046000", "130428.046000", "130430.045000", "130432.045000", "130434.045000", "130436.045000", "130438.046000", "130440.046000", "130442.046000", "130444.045000", "130446.045000", "130448.046000", "130450.046000", "130452.046000", "130454.045000", "130456.046000", "130458.046000", "130500.045000", "130502.045000", "130503.545000", "130506.046000", "130508.046000", "130510.045000", "130512.045000", "130514.046000", "130516.046000", "130518.045000", "130520.046000", "130522.045000", "130524.045000", "130526.046000", "130527.545000", "130530.046000", "130531.546000", "130534.046000", "130536.045000", "130538.045000", "130540.045000", "130542.045000", "130543.545000", "130546.046000", "130548.046000", "130550.046000", "130552.046000", "130554.045000", "130556.046000", "130558.046000", "130600.045000", "130602.046000", "130604.045000", "130606.045000", "130608.047000", "130610.046000", "130612.046000", "130614.045000", "130616.046000", "130617.545000", "130620.045000", "130622.046000", "130624.045000", "130626.067000", "130628.045000", "130630.046000", "130632.046000", "130634.046000", "130636.045000", "130638.045000", "130640.045000", "130642.066000", "130644.066000", "130646.045000", "130648.045000", "130650.046000", "130652.046000", "130654.046000", "130656.045000", "130658.045000", "130659.545000", "130702.046000", "130704.046000", "130706.046000", "130708.046000", "130710.046000", "130712.045000", "130714.046000", "130716.045000", "130718.047000", "130720.046000", "130722.046000", "130724.046000", "130726.066000", "130728.046000", "130730.046000", "130732.046000", "130734.046000", "130736.046000", "130738.045000", "130740.046000", "130742.046000", "130744.045000", "130746.045000", "130748.046000", "130750.046000", "130752.046000", "130754.046000", "130756.046000", "130758.046000", "130800.046000", "130802.046000", "130804.046000", "130806.045000", "130808.046000", "130810.045000", "130812.046000", "130814.045000", "130816.046000", "130818.046000", "130820.045000", "130822.045000", "130824.045000", "130826.046000", "130828.046000", "130829.545000", "130832.045000", "130834.046000", "130836.046000", "130838.045000", "130840.045000", "130842.046000", "130844.046000", "130846.046000", "130848.046000", "130850.046000", "130852.045000", "130854.046000", "130856.045000", "130858.046000", "130900.045000", "130902.045000", "130904.047000", "130906.045000", "130908.045000", "130910.046000", "130912.045000", "130914.046000", "130916.045000", "130917.566000"],
      "InstanceCreationTime": ["130408.050000", "130410.046000", "130412.045000", "130414.045000", "130415.546000", "130418.046000", "130420.045000", "130422.046000", "130424.046000", "130426.046000", "130428.046000", "130430.045000", "130432.045000", "130434.045000", "130436.045000", "130438.046000", "130440.046000", "130442.046000", "130444.045000", "130446.045000", "130448.046000", "130450.046000", "130452.046000", "130454.045000", "130456.046000", "130458.046000", "130500.045000", "130502.045000", "130503.545000", "130506.046000", "130508.046000", "130510.045000", "130512.045000", "130514.046000", "130516.046000", "130518.045000", "130520.046000", "130522.045000", "130524.045000", "130526.046000", "130527.545000", "130530.046000", "130531.546000", "130534.046000", "130536.045000", "130538.045000", "130540.045000", "130542.045000", "130543.545000", "130546.046000", "130548.046000", "130550.046000", "130552.046000", "130554.045000", "130556.046000", "130558.046000", "130600.045000", "130602.046000", "130604.045000", "130606.045000", "130608.047000", "130610.046000", "130612.046000", "130614.045000", "130616.046000", "130617.545000", "130620.045000", "130622.046000", "130624.045000", "130626.067000", "130628.045000", "130630.046000", "130632.046000", "130634.046000", "130636.045000", "130638.045000", "130640.045000", "130642.066000", "130644.066000", "130646.045000", "130648.045000", "130650.046000", "130652.046000", "130654.046000", "130656.045000", "130658.045000", "130659.545000", "130702.046000", "130704.046000", "130706.046000", "130708.046000", "130710.046000", "130712.045000", "130714.046000", "130716.045000", "130718.047000", "130720.046000", "130722.046000", "130724.046000", "130726.066000", "130728.046000", "130730.046000", "130732.046000", "130734.046000", "130736.046000", "130738.045000", "130740.046000", "130742.046000", "130744.045000", "130746.045000", "130748.046000", "130750.046000", "130752.046000", "130754.046000", "130756.046000", "130758.046000", "130800.046000", "130802.046000", "130804.046000", "130806.045000", "130808.046000", "130810.045000", "130812.046000", "130814.045000", "130816.046000", "130818.046000", "130820.045000", "130822.045000", "130824.045000", "130826.046000", "130828.046000", "130829.545000", "130832.045000", "130834.046000", "130836.046000", "130838.045000", "130840.045000", "130842.046000", "130844.046000", "130846.046000", "130848.046000", "130850.046000", "130852.045000", "130854.046000", "130856.045000", "130858.046000", "130900.045000", "130902.045000", "130904.047000", "130906.045000", "130908.045000", "130910.046000", "130912.045000", "130914.046000", "130916.045000", "130917.566000"],
      "InstanceNumber": [1, 2, 3, 4, 5, 6, 7, 8, 9, 10, 11, 12, 13, 14, 15, 16, 17, 18, 19, 20, 21, 22, 23, 24, 25, 26, 27, 28, 29, 30, 31, 32, 33, 34, 35, 36, 37, 38, 39, 40, 41, 42, 43, 44, 45, 46, 47, 48, 49, 50, 51, 52, 53, 54, 55, 56, 57, 58, 59, 60, 61, 62, 63, 64, 65, 66, 67, 68, 69, 70, 71, 72, 73, 74, 75, 76, 77, 78, 79, 80, 81, 82, 83, 84, 85, 86, 87, 88, 89, 90, 91, 92, 93, 94, 95, 96, 97, 98, 99, 100, 101, 102, 103, 104, 105, 106, 107, 108, 109, 110, 111, 112, 113, 114, 115, 116, 117, 118, 119, 120, 121, 122, 123, 124, 125, 126, 127, 128, 129, 130, 131, 132, 133, 134, 135, 136, 137, 138, 139, 140, 141, 142, 143, 144, 145, 146, 147, 148, 149, 150, 151, 152, 153, 154, 155, 156],
      "LargestImagePixelValue": [3985, 3972, 4024, 4002, 3950, 3962, 3979, 3965, 3988, 3979, 3958, 3926, 3942, 3945, 3918, 3937, 3931, 3931, 3897, 3928, 3952, 4006, 4028, 4021, 3980, 4001, 3959, 3988, 3954, 3933, 3885, 3940, 3946, 3978, 3960, 3963, 3942, 3967, 3938, 3966, 3924, 3929, 3932, 3950, 3948, 3968, 3953, 3947, 3932, 3952, 3974, 3998, 3980, 3973, 3903, 3913, 3919, 3956, 3940, 3940, 3959, 4009, 3970, 3956, 3954, 3988, 3925, 3919, 3893, 3903, 3903, 3887, 4024, 3886, 3919, 3899, 3940, 3936, 3942, 3904, 3951, 3968, 3928, 3945, 3942, 3924, 3938, 3986, 3899, 3902, 3937, 3924, 3868, 3916, 3964, 3898, 3906, 3924, 3897, 3844, 3948, 3957, 3942, 3925, 3873, 3891, 3878, 3937, 3905, 3909, 3915, 3867, 3885, 3912, 3868, 3872, 3913, 3940, 3846, 3854, 3843, 3896, 3903, 3891, 3906, 3837, 3814, 3910, 3858, 3847, 3898, 3903, 3961, 3825, 3850, 3903, 3932, 3842, 3866, 3919, 3905, 3890, 3838, 3893, 3927, 3941, 3816, 3854, 3907, 3868, 3831, 3830, 3894, 3908, 3968, 3951],
      "WindowCenter": [824.0, 824.0, 825.0, 825.0, 823.0, 822.0, 822.0, 823.0, 824.0, 824.0, 823.0, 823.0, 823.0, 823.0, 823.0, 823.0, 823.0, 823.0, 823.0, 822.0, 823.0, 825.0, 825.0, 824.0, 823.0, 822.0, 822.0, 823.0, 823.0, 821.0, 820.0, 820.0, 821.0, 821.0, 821.0, 821.0, 821.0, 821.0, 820.0, 820.0, 820.0, 822.0, 821.0, 820.0, 820.0, 821.0, 822.0, 821.0, 820.0, 822.0, 824.0, 824.0, 823.0, 821.0, 820.0, 820.0, 821.0, 822.0, 821.0, 821.0, 823.0, 823.0, 822.0, 821.0, 821.0, 822.0, 821.0, 820.0, 820.0, 819.0, 820.0, 822.0, 823.0, 820.0, 820.0, 820.0, 823.0, 823.0, 822.0, 821.0, 821.0, 821.0, 821.0, 821.0, 822.0, 822.0, 822.0, 823.0, 823.0, 822.0, 821.0, 820.0, 821.0, 823.0, 823.0, 821.0, 821.0, 822.0, 822.0, 822.0, 822.0, 822.0, 822.0, 821.0, 820.0, 820.0, 821.0, 822.0, 822.0, 821.0, 821.0, 822.0, 824.0, 823.0, 821.0, 820.0, 821.0, 822.0, 822.0, 822.0, 822.0, 822.0, 821.0, 822.0, 822.0, 822.0, 821.0, 822.0, 822.0, 821.0, 821.0, 822.0, 822.0, 822.0, 823.0, 823.0, 822.0, 821.0, 820.0, 821.0, 822.0, 823.0, 823.0, 823.0, 822.0, 821.0, 821.0, 821.0, 822.0, 821.0, 821.0, 821.0, 822.0, 821.0, 822.0, 822.0],
      "WindowWidth": [1796.0, 1795.0, 1798.0, 1798.0, 1792.0, 1789.0, 1790.0, 1792.0, 1793.0, 1794.0, 1792.0, 1792.0, 1793.0, 1792.0, 1792.0, 1793.0, 1793.0, 1791.0, 1791.0, 1790.0, 1792.0, 1796.0, 1797.0, 1795.0, 1791.0, 1790.0, 1790.0, 1790.0, 1790.0, 1787.0, 1783.0, 1785.0, 1786.0, 1787.0, 1787.0, 1787.0, 1787.0, 1786.0, 1784.0, 1783.0, 1784.0, 1788.0, 1787.0, 1782.0, 1782.0, 1786.0, 1787.0, 1784.0, 1783.0, 1788.0, 1793.0, 1793.0, 1790.0, 1787.0, 1782.0, 1783.0, 1786.0, 1787.0, 1786.0, 1786.0, 1790.0, 1790.0, 1786.0, 1785.0, 1786.0, 1787.0, 1786.0, 1783.0, 1781.0, 1780.0, 1782.0, 1785.0, 1788.0, 1782.0, 1781.0, 1783.0, 1789.0, 1790.0, 1788.0, 1784.0, 1785.0, 1784.0, 1783.0, 1784.0, 1788.0, 1787.0, 1788.0, 1789.0, 1789.0, 1788.0, 1785.0, 1783.0, 1784.0, 1788.0, 1789.0, 1783.0, 1783.0, 1786.0, 1787.0, 1786.0, 1787.0, 1788.0, 1788.0, 1785.0, 1780.0, 1781.0, 1783.0, 1787.0, 1788.0, 1785.0, 1785.0, 1785.0, 1791.0, 1790.0, 1784.0, 1781.0, 1784.0, 1786.0, 1788.0, 1787.0, 1786.0, 1786.0, 1785.0, 1786.0, 1787.0, 1785.0, 1784.0, 1787.0, 1787.0, 1784.0, 1785.0, 1785.0, 1787.0, 1785.0, 1789.0, 1789.0, 1786.0, 1783.0, 1782.0, 1785.0, 1788.0, 1789.0, 1788.0, 1788.0, 1786.0, 1783.0, 1783.0, 1784.0, 1786.0, 1784.0, 1782.0, 1782.0, 1786.0, 1785.0, 1787.0, 1787.0]
    },
    "slices": {}
  }
}