{"AcquisitionMatrixPE": 100, "AcquisitionNumber": 1, "AcquisitionTime": "16:26:2.702500", "BaseResolution": 100, "BodyPartExamined": "BRAIN", "CoilCombinationMethod": "Sum of Squares", "ConsistencyInfo": "N4_VE11C_LATEST_20160120", "ConversionSoftware": "dcm2niix", "ConversionSoftwareVersion": "v1.0.20211006", "DeviceSerialNumber": "166078", "DwellTime": 8.8e-06, "EchoNumber": 2, "EchoTime": 0.00738, "EchoTime1": 0.00492, "EchoTime2": 0.00738, "FlipAngle": 60, "ImageOrientationPatientDICOM": [0.999877, -0.00385312, -0.0152274, -2.4748e-11, 0.969445, -0.245307], "ImageOrientationText": "Tra>Cor(-14.2)>Sag(-0.9)", "ImageType": ["ORIGINAL", "PRIMARY", "P", "ND", "PHASE"], "ImagingFrequency": 123.258, "InPlanePhaseEncodingDirectionDICOM": "ROW", "InstitutionAddress": "Street StreetNo,Bei Jing,District,CN,ZIP", "InstitutionName": "BeiJing Normal University", "InstitutionalDepartmentName": "Department", "MRAcquisitionType": "2D", "MagneticFieldStrength": 3, "Manufacturer": "Siemens", "ManufacturersModelName": "Prisma", "MatrixCoilMode": "SENSE", "Modality": "MR", "PartialFourier": 1, "PatientPosition": "HFS", "PercentPhaseFOV": 100, "PercentSampling": 100, "PhaseEncodingDirection": "i", "PhaseEncodingSteps": 100, "PhaseResolution": 1, "PixelBandwidth": 570, "ProcedureStepDescription": "BNU_P2018_64CH^Zhen.ZongLei", "ProtocolName": "field_mapping_2x2x2", "PulseSequenceDetails": "%SiemensSeq%\\gre_field_mapping", "ReceiveCoilActiveElements": "HC1-7;NC1", "ReceiveCoilName": "HeadNeck_64", "ReconMatrixPE": 100, "RepetitionTime": 0.72, "SAR": 0.141362, "ScanningSequence": "GR", "SequenceName": "*fm2d2r", "SequenceVariant": "SP", "SeriesDescription": "field_mapping_2x2x2", "SeriesNumber": 10, "ShimSetting": [-5461, -11516, -1214, 408, -14, -257, -17, 71], "SliceThickness": 2, "SliceTiming": [0.35938, 0, 0.375, 0.01562, 0.375, 0.01562, 0.39062, 0.03125, 0.40625, 0.03125, 0.40625, 0.04688, 0.42188, 0.0625, 0.42188, 0.0625, 0.4375, 0.07812, 0.45312, 0.09375, 0.45312, 0.09375, 0.46875, 0.10938, 0.48438, 0.125, 0.48438, 0.125, 0.5, 0.14062, 0.51562, 0.15625, 0.51562, 0.15625, 0.53125, 0.17188, 0.53125, 0.17188, 0.54688, 0.1875, 0.5625, 0.20312, 0.5625, 0.20312, 0.57812, 0.21875, 0.59375, 0.23438, 0.59375, 0.23438, 0.60938, 0.25, 0.625, 0.26562, 0.625, 0.26562, 0.64062, 0.28125, 0.65625, 0.28125, 0.65625, 0.29688, 0.67188, 0.3125, 0.67188, 0.3125, 0.6875, 0.32812, 0.70312, 0.34375, 0.70312, 0.34375], "SoftwareVersions": "syngo MR E11", "SpacingBetweenSlices": 2, "StationName": "AWP166078", "TxRefAmp": 254.386, "dcmmeta_affine": [[-1.9997532367706299, -4.94960010477552e-11, -0.03141462802886963, 101.1028823852539], [0.007706241682171822, 1.9388906955718994, -0.4905538558959961, -75.41456604003906], [-0.030454769730567932, 0.49061477184295654, 1.9386520385742188, -78.94245910644531], [0.0, 0.0, 0.0, 1.0]], "dcmmeta_reorient_transform": [[0.0, -1.0, 0.0, 99.0], [1.0, 0.0, 0.0, 0.0], [0.0, 0.0, -1.0, 71.0], [0.0, 0.0, 0.0, 1.0]], "dcmmeta_shape": [100, 100, 72], "dcmmeta_slice_dim": 2, "dcmmeta_version": 0.6, "global": {"const": {"AcquisitionMatrix": [0, 100, 100, 0], "AcquisitionNumber": 1, "AngioFlag": "N", "BitsAllocated": 16, "BitsStored": 12, "BodyPartExamined": "BRAIN", "Columns": 100, "EchoNumbers": 2, "EchoTime": 7.38, "EchoTrainLength": 0, "FlipAngle": 60.0, "HighBit": 11, "ImageOrientationPatient": [0.99987663248854, -0.0038531208308, -0.0152273853052, -2.4748e-11, 0.96944534967997, -0.2453073867291], "ImageType": ["ORIGINAL", "PRIMARY", "P", "ND"], "ImagedNucleus": "1H", "ImagingFrequency": 123.257677, "InPlanePhaseEncodingDirection": "ROW", "MRAcquisitionType": "2D", "MagneticFieldStrength": 3.0, "Manufacturer": "SIEMENS", "ManufacturerModelName": "Prisma", "Modality": "MR", "NumberOfAverages": 1.0, "NumberOfPhaseEncodingSteps": 100, "PercentPhaseFieldOfView": 100.0, "PercentSampling": 100.0, "PerformedProcedureStepStartTime": "154549.336000", "PhotometricInterpretation": "MONOCHROME2", "PixelBandwidth": 570.0, "PixelRepresentation": 0, "PixelSpacing": [2.0, 2.0], "ProtocolName": "field_mapping_2x2x2", "RepetitionTime": 720.0, "RescaleIntercept": -4096.0, "RescaleSlope": 2.0, "RescaleType": "US", "Rows": 100, "SAR": 0.14136168020439, "SamplesPerPixel": 1, "ScanningSequence": "GR", "SequenceName": "*fm2d2r", "SequenceVariant": "SP", "SeriesDescription": "field_mapping_2x2x2", "SeriesNumber": 10, "SeriesTime": "162826.849000", "SliceThickness": 2.0, "SoftwareVersions": "syngo MR E11", "SpacingBetweenSlices": 2.0, "SpecificCharacterSet": "ISO_IR 100", "StudyID": "1", "StudyTime": "154549.241000", "TransmitCoilName": "Body", "VariableFlipAngleFlag": "N", "WindowCenterWidthExplanation": "Algo1", "dBdt": 0.0}, "slices": {"AcquisitionTime": ["162602.702500", "162602.342500", "162602.712500", "162602.352500", "162602.722500", "162602.362500", "162602.732500", "162602.372500", "162602.742500", "162602.382500", "162602.752500", "162602.392500", "162602.762500", "162602.402500", "162602.772500", "162602.412500", "162602.782500", "162602.422500", "162602.792500", "162602.432500", "162602.802500", "162602.442500", "162602.812500", "162602.452500", "162602.822500", "162602.462500", "162602.832500", "162602.472500", "162602.842500", "162602.482500", "162602.852500", "162602.492500", "162602.862500", "162602.502500", "162602.872500", "162602.512500", "162602.882500", "162602.522500", "162602.892500", "162602.532500", "162602.902500", "162602.542500", "162602.912500", "162602.552500", "162602.922500", "162602.562500", "162602.932500", "162602.572500", "162602.942500", "162602.582500", "162602.952500", "162602.592500", "162602.962500", "162602.602500", "162602.972500", "162602.612500", "162602.982500", "162602.622500", "162602.992500", "162602.632500", "162603.002500", "162602.642500", "162603.012500", "162602.652500", "162603.022500", "162602.662500", "162603.032500", "162602.672500", "162603.042500", "162602.682500", "162603.052500", "162602.692500"], "ContentTime": ["162826.920000", "162826.850000", "162826.922000", "162826.852000", "162826.923000", "162826.854000", "162826.925000", "162826.856000", "162826.927000", "162826.858000", "162826.929000", "162826.860000", "162826.931000", "162826.862000", "162826.933000", "162826.864000", "162826.935000", "162826.866000", "162826.937000", "162826.868000", "162826.938000", "162826.870000", "162826.940000", "162826.871000", "162826.942000", "162826.873000", "162826.944000", "162826.875000", "162826.946000", "162826.877000", "162826.948000", "162826.879000", "162826.950000", "162826.881000", "162826.952000", "162826.883000", "162826.954000", "162826.885000", "162826.956000", "162826.887000", "162826.958000", "162826.889000", "162826.960000", "162826.891000", "162826.962000", "162826.893000", "162826.964000", "162826.894000", "162826.966000", "162826.897000", "162826.968000", "162826.898000", "162826.970000", "162826.901000", "162826.972000", "162826.902000", "162826.974000", "162826.904000", "162826.976000", "162826.906000", "162826.978000", "162826.908000", "162826.980000", "162826.910000", "162826.982000", "162826.912000", "162826.984000", "162826.914000", "162826.986000", "162826.916000", "162826.988000", "162826.918000"], "CsaImage.GSWDDataType": ["measured", "predicted", "measured", "predicted", "measured", "predicted", "measured", "predicted", "measured", "predicted", "measured", "predicted", "measured", "predicted", "measured", "predicted", "measured", "predicted", "measured", "predicted", "measured", "predicted", "measured", "predicted", "measured", "predicted", "measured", "predicted", "measured", "predicted", "measured", "predicted", "measured", "predicted", "measured", "predicted", "measured", "predicted", "measured", "predicted", "measured", "predicted", "measured", "predicted", "measured", "predicted", "measured", "predicted", "measured", "predicted", "measured", "predicted", "measured", "predicted", "measured", "predicted", "measured", "predicted", "measured", "predicted", "measured", "predicted", "measured", "predicted", "measured", "predicted", "measured", "predicted", "measured", "measured", "measured", "measured"], "CsaImage.ICE_Dims": ["X_2_1_1_1_1_1_37_1_1_1_1_201", "X_2_1_1_1_1_1_1_1_1_2_1_201", "X_2_1_1_1_1_1_38_1_1_3_1_201", "X_2_1_1_1_1_1_2_1_1_4_1_201", "X_2_1_1_1_1_1_39_1_1_5_1_201", "X_2_1_1_1_1_1_3_1_1_6_1_201", "X_2_1_1_1_1_1_40_1_1_7_1_201", "X_2_1_1_1_1_1_4_1_1_8_1_201", "X_2_1_1_1_1_1_41_1_1_9_1_201", "X_2_1_1_1_1_1_5_1_1_10_1_201", "X_2_1_1_1_1_1_42_1_1_11_1_201", "X_2_1_1_1_1_1_6_1_1_12_1_201", "X_2_1_1_1_1_1_43_1_1_13_1_201", "X_2_1_1_1_1_1_7_1_1_14_1_201", "X_2_1_1_1_1_1_44_1_1_15_1_201", "X_2_1_1_1_1_1_8_1_1_16_1_201", "X_2_1_1_1_1_1_45_1_1_17_1_201", "X_2_1_1_1_1_1_9_1_1_18_1_201", "X_2_1_1_1_1_1_46_1_1_19_1_201", "X_2_1_1_1_1_1_10_1_1_20_1_201", "X_2_1_1_1_1_1_47_1_1_21_1_201", "X_2_1_1_1_1_1_11_1_1_22_1_201", "X_2_1_1_1_1_1_48_1_1_23_1_201", "X_2_1_1_1_1_1_12_1_1_24_1_201", "X_2_1_1_1_1_1_49_1_1_25_1_201", "X_2_1_1_1_1_1_13_1_1_26_1_201", "X_2_1_1_1_1_1_50_1_1_27_1_201", "X_2_1_1_1_1_1_14_1_1_28_1_201", "X_2_1_1_1_1_1_51_1_1_29_1_201", "X_2_1_1_1_1_1_15_1_1_30_1_201", "X_2_1_1_1_1_1_52_1_1_31_1_201", "X_2_1_1_1_1_1_16_1_1_32_1_201", "X_2_1_1_1_1_1_53_1_1_33_1_201", "X_2_1_1_1_1_1_17_1_1_34_1_201", "X_2_1_1_1_1_1_54_1_1_35_1_201", "X_2_1_1_1_1_1_18_1_1_36_1_201", "X_2_1_1_1_1_1_55_1_1_37_1_201", "X_2_1_1_1_1_1_19_1_1_38_1_201", "X_2_1_1_1_1_1_56_1_1_39_1_201", "X_2_1_1_1_1_1_20_1_1_40_1_201", "X_2_1_1_1_1_1_57_1_1_41_1_201", "X_2_1_1_1_1_1_21_1_1_42_1_201", "X_2_1_1_1_1_1_58_1_1_43_1_201", "X_2_1_1_1_1_1_22_1_1_44_1_201", "X_2_1_1_1_1_1_59_1_1_45_1_201", "X_2_1_1_1_1_1_23_1_1_46_1_201", "X_2_1_1_1_1_1_60_1_1_47_1_201", "X_2_1_1_1_1_1_24_1_1_48_1_201", "X_2_1_1_1_1_1_61_1_1_49_1_201", "X_2_1_1_1_1_1_25_1_1_50_1_201", "X_2_1_1_1_1_1_62_1_1_51_1_201", "X_2_1_1_1_1_1_26_1_1_52_1_201", "X_2_1_1_1_1_1_63_1_1_53_1_201", "X_2_1_1_1_1_1_27_1_1_54_1_201", "X_2_1_1_1_1_1_64_1_1_55_1_201", "X_2_1_1_1_1_1_28_1_1_56_1_201", "X_2_1_1_1_1_1_65_1_1_57_1_201", "X_2_1_1_1_1_1_29_1_1_58_1_201", "X_2_1_1_1_1_1_66_1_1_59_1_201", "X_2_1_1_1_1_1_30_1_1_60_1_201", "X_2_1_1_1_1_1_67_1_1_61_1_201", "X_2_1_1_1_1_1_31_1_1_62_1_201", "X_2_1_1_1_1_1_68_1_1_63_1_201", "X_2_1_1_1_1_1_32_1_1_64_1_201", "X_2_1_1_1_1_1_69_1_1_65_1_201", "X_2_1_1_1_1_1_33_1_1_66_1_201", "X_2_1_1_1_1_1_70_1_1_67_1_201", "X_2_1_1_1_1_1_34_1_1_68_1_201", "X_2_1_1_1_1_1_71_1_1_69_1_201", "X_2_1_1_1_1_1_35_1_1_70_1_201", "X_2_1_1_1_1_1_72_1_1_71_1_201", "X_2_1_1_1_1_1_36_1_1_72_1_201"], "CsaImage.ProtocolSliceNumber": [0, 1, 2, 3, 4, 5, 6, 7, 8, 9, 10, 11, 12, 13, 14, 15, 16, 17, 18, 19, 20, 21, 22, 23, 24, 25, 26, 27, 28, 29, 30, 31, 32, 33, 34, 35, 36, 37, 38, 39, 40, 41, 42, 43, 44, 45, 46, 47, 48, 49, 50, 51, 52, 53, 54, 55, 56, 57, 58, 59, 60, 61, 62, 63, 64, 65, 66, 67, 68, 69, 70, 71], "CsaImage.RFSWDDataType": ["measured", "predicted", "measured", "predicted", "measured", "predicted", "measured", "predicted", "measured", "predicted", "measured", "predicted", "measured", "predicted", "measured", "predicted", "measured", "predicted", "measured", "predicted", "measured", "predicted", "measured", "predicted", "measured", "predicted", "measured", "predicted", "measured", "predicted", "measured", "predicted", "measured", "predicted", "measured", "predicted", "measured", "predicted", "measured", "predicted", "measured", "predicted", "measured", "predicted", "measured", "predicted", "measured", "predicted", "measured", "predicted", "measured", "predicted", "measured", "predicted", "measured", "predicted", "measured", "predicted", "measured", "predicted", "measured", "predicted", "measured", "predicted", "measured", "measured", "measured", "measured", "measured", "measured", "measured", "measured"], "CsaImage.SlicePosition_PCS": [[-101.10288272, -116.53564233, -30.37155637], [-101.07146809, -116.04508752, -28.43290433], [-101.04005346, -115.55453271, -26.49425229], [-101.00863884, -115.06397981, -24.55560406], [-100.97722421, -114.573425, -22.61695203], [-100.94580958, -114.08287019, -20.67829999], [-100.91439495, -113.59231729, -18.73964795], [-100.88298032, -113.10176248, -16.80099591], [-100.8515657, -112.61120767, -14.86234387], [-100.82015107, -112.12065382, -12.92369183], [-100.78873644, -111.63009996, -10.98504361], [-100.75732181, -111.13954515, -9.04639157], [-100.72590718, -110.64899129, -7.10773953], [-100.6944925, -110.15843649, -5.16908749], [-100.66307787, -109.66788263, -3.23043546], [-100.63166324, -109.17732782, -1.29178342], [-100.60024861, -108.68677396, 0.64686671], [-100.56883398, -108.19622011, 2.58551875], [-100.53741936, -107.7056653, 4.52417079], [-100.50600473, -107.21511144, 6.46282092], [-100.47459007, -106.72455663, 8.40147296], [-100.44317544, -106.23400278, 10.340125], [-100.41176081, -105.74344892, 12.27877608], [-100.38034619, -105.25289411, 14.21742812], [-100.34893156, -104.76234026, 16.15607921], [-100.3175169, -104.27178592, 18.09473077], [-100.28610227, -103.78123159, 20.03338233], [-100.25468764, -103.29067726, 21.97203389], [-100.223273, -102.80012292, 23.91068546], [-100.19185837, -102.30956859, 25.84933687], [-100.16044373, -101.81901474, 27.78798834], [-100.1290291, -101.3284604, 29.7266399], [-100.09761447, -100.83790607, 31.66529123], [-100.06619983, -100.34735174, 33.60394279], [-100.0347852, -99.85679764, 35.54259483], [-100.00337056, -99.36624331, 37.48124591], [-99.97195593, -98.87568922, 39.419897], [-99.94054129, -98.38513488, 41.35854903], [-99.90912666, -97.89458067, 43.29720012], [-99.87771203, -97.40402634, 45.23585216], [-99.84629739, -96.91347212, 47.1745042], [-99.81488276, -96.42291788, 49.11315433], [-99.78346812, -95.93236364, 51.05180637], [-99.75205349, -95.44180936, 52.9904584], [-99.72063885, -94.95125515, 54.92910854], [-99.68922422, -94.46070094, 56.86776057], [-99.65780959, -93.9701466, 58.80641071], [-99.62639493, -93.47959251, 60.74506274], [-99.59498031, -92.98903818, 62.68371478], [-99.56356568, -92.49848384, 64.62236682], [-99.53215105, -92.00792951, 66.56101886], [-99.50073642, -91.51737518, 68.4996709], [-99.46932176, -91.02682132, 70.43832294], [-99.43790714, -90.53626699, 72.37697116], [-99.40649251, -90.04571266, 74.3156232], [-99.37507788, -89.55515832, 76.25427524], [-99.34366325, -89.06460399, 78.19292728], [-99.31224862, -88.57405014, 80.13157932], [-99.280834, -88.0834958, 82.07023135], [-99.24941931, -87.59294099, 84.00888339], [-99.21800468, -87.10238714, 85.94753162], [-99.18659005, -86.61183328, 87.88618365], [-99.15517542, -86.12127847, 89.82483569], [-99.1237608, -85.63072462, 91.76349155], [-99.09234617, -85.14016981, 93.70213596], [-99.06093154, -84.64961595, 95.64078799], [-99.02951691, -84.1590621, 97.57944003], [-98.99810228, -83.66850729, 99.51809207], [-98.96668766, -83.17795343, 101.45674411], [-98.93527303, -82.68739862, 103.39539615], [-98.9038584, -82.19684476, 105.33404819], [-98.87244377, -81.70629091, 107.27270023]], "CsaImage.TimeAfterStart": [1.0825, 0.7225, 1.0925, 0.7325, 1.1025, 0.7425, 1.1125, 0.7525, 1.1225, 0.7625, 1.1325, 0.7725, 1.1425, 0.7825, 1.1525, 0.7925, 1.1625, 0.8025, 1.1725, 0.8125, 1.1825, 0.8225, 1.1925, 0.8325, 1.2025, 0.8425, 1.2125, 0.8525, 1.2225, 0.8625, 1.2325, 0.8725, 1.2425, 0.8825, 1.2525, 0.8925, 1.2625, 0.9025, 1.2725, 0.9125, 1.2825, 0.9225, 1.2925, 0.9325, 1.3025, 0.9425, 1.3125, 0.9525, 1.3225, 0.9625, 1.3325, 0.9725, 1.3425, 0.9825, 1.3525, 0.9925, 1.3625, 1.0025, 1.3725, 1.0125, 1.3825, 1.0225, 1.3925, 1.0325, 1.4025, 1.0425, 1.4125, 1.0525, 1.4225, 1.0625, 1.4325, 1.0725], "ImagePositionPatient": [[-101.10288272022, -116.53564233377, -30.371556365906], [-101.07146809219, -116.0450875242, -28.432904327332], [-101.04005346416, -115.55453271463, -26.494252288758], [-101.00863883613, -115.06397981241, -24.555604064881], [-100.9772242081, -114.57342500284, -22.616952026307], [-100.94580958007, -114.08287019327, -20.678299987732], [-100.91439495204, -113.59231729104, -18.739647949158], [-100.88298032402, -113.10176248147, -16.800995910584], [-100.85156569599, -112.6112076719, -14.86234387201], [-100.82015106796, -112.12065381601, -12.923691833435], [-100.78873643993, -111.63009996011, -10.985043609558], [-100.7573218119, -111.13954515054, -9.0463915709843], [-100.72590718387, -110.64899129465, -7.10773953241], [-100.69449249624, -110.15843648507, -5.1690874938358], [-100.66307786821, -109.66788262918, -3.2304354552616], [-100.63166324018, -109.17732781961, -1.2917834166874], [-100.60024861215, -108.68677396371, 0.6468667145382], [-100.56883398412, -108.19622010782, 2.5855187531124], [-100.53741935609, -107.70566529825, 4.5241707916866], [-100.50600472806, -107.21511144235, 6.4628209229122], [-100.47459007023, -106.72455663278, 8.4014729614864], [-100.4431754422, -106.23400277688, 10.340125000061], [-100.41176081418, -105.74344892099, 12.278776084961], [-100.38034618615, -105.25289411142, 14.217428123535], [-100.34893155812, -104.76234025552, 16.156079208435], [-100.31751690029, -104.27178592279, 18.094730770172], [-100.28610227226, -103.78123159006, 20.033382331909], [-100.25468764423, -103.29067725732, 21.972033893646], [-100.2232730013, -102.80012292459, 23.910685455383], [-100.19185837327, -102.30956859186, 25.849336868108], [-100.16044373034, -101.81901473596, 27.787988340438], [-100.12902910231, -101.32846040323, 29.726639902176], [-100.09761446683, -100.83790607049, 31.665291225494], [-100.06619983135, -100.34735173776, 33.603942787231], [-100.0347851996, -99.856797643446, 35.542594825805], [-100.00337056412, -99.366243310713, 37.481245910705], [-99.971955928639, -98.875689216398, 39.419896995605], [-99.94054129316, -98.385134883665, 41.358549034179], [-99.909126661406, -97.894580670141, 43.297200119079], [-99.877712025926, -97.404026337408, 45.235852157653], [-99.846297390447, -96.913472123884, 47.174504196228], [-99.814882762418, -96.422917880558, 49.113154327453], [-99.783468119488, -95.932363637232, 51.051806366027], [-99.752053491459, -95.441809364103, 52.990458404602], [-99.720638848529, -94.951255150579, 54.929108535827], [-99.6892242205, -94.460700937056, 56.867760574401], [-99.657809592471, -93.970146604322, 58.806410705627], [-99.62639493464, -93.479592510008, 60.745062744201], [-99.594980306611, -92.989038177275, 62.683714782776], [-99.563565678582, -92.498483844542, 64.62236682135], [-99.532151050554, -92.007929511808, 66.561018859924], [-99.500736422525, -91.517375179075, 68.499670898498], [-99.469321764694, -91.026821323179, 70.438322937072], [-99.437907136665, -90.536266990446, 72.376971160949], [-99.406492508636, -90.045712657713, 74.315623199524], [-99.375077880607, -89.55515832498, 76.254275238098], [-99.343663252578, -89.064603992247, 78.192927276672], [-99.312248624549, -88.574050136351, 80.131579315246], [-99.28083399652, -88.083495803617, 82.07023135382], [-99.249419308887, -87.592940994047, 84.008883392395], [-99.218004680858, -87.102387138151, 85.947531616272], [-99.186590052829, -86.611833282255, 87.886183654846], [-99.1551754248, -86.121278472685, 89.82483569342], [-99.123760796771, -85.630724616789, 91.763491546692], [-99.092346168742, -85.140169807219, 93.702135955871], [-99.060931540714, -84.649615951323, 95.640787994445], [-99.029516912685, -84.159062095427, 97.57944003302], [-98.998102284656, -83.668507285856, 99.518092071594], [-98.966687656627, -83.17795342996, 101.45674411017], [-98.935273028598, -82.68739862039, 103.39539614874], [-98.903858400569, -82.196844764494, 105.33404818732], [-98.87244377254, -81.706290908598, 107.27270022589]], "InstanceCreationTime": ["162826.920000", "162826.850000", "162826.922000", "162826.852000", "162826.923000", "162826.854000", "162826.925000", "162826.856000", "162826.927000", "162826.858000", "162826.929000", "162826.860000", "162826.931000", "162826.862000", "162826.933000", "162826.864000", "162826.935000", "162826.866000", "162826.937000", "162826.868000", "162826.938000", "162826.870000", "162826.940000", "162826.871000", "162826.942000", "162826.873000", "162826.944000", "162826.875000", "162826.946000", "162826.877000", "162826.948000", "162826.879000", "162826.950000", "162826.881000", "162826.952000", "162826.883000", "162826.954000", "162826.885000", "162826.956000", "162826.887000", "162826.958000", "162826.889000", "162826.960000", "162826.891000", "162826.962000", "162826.893000", "162826.964000", "162826.894000", "162826.966000", "162826.897000", "162826.968000", "162826.898000", "162826.970000", "162826.901000", "162826.972000", "162826.902000", "162826.974000", "162826.904000", "162826.976000", "162826.906000", "162826.978000", "162826.908000", "162826.980000", "162826.910000", "162826.982000", "162826.912000", "162826.984000", "162826.914000", "162826.986000", "162826.916000", "162826.988000", "162826.918000"], "InstanceNumber": [1, 2, 3, 4, 5, 6, 7, 8, 9, 10, 11, 12, 13, 14, 15, 16, 17, 18, 19, 20, 21, 22, 23, 24, 25, 26, 27, 28, 29, 30, 31, 32, 33, 34, 35, 36, 37, 38, 39, 40, 41, 42, 43, 44, 45, 46, 47, 48, 49, 50, 51, 52, 53, 54, 55, 56, 57, 58, 59, 60, 61, 62, 63, 64, 65, 66, 67, 68, 69, 70, 71, 72], "LargestImagePixelValue": [4095, 4095, 4095, 4094, 4094, 4092, 4094, 4094, 4094, 4094, 4095, 4095, 4091, 4094, 4094, 4095, 4094, 4093, 4095, 4094, 4094, 4093, 4092, 4093, 4093, 4094, 4094, 4074, 4093, 4091, 4094, 4093, 4093, 4090, 4088, 4094, 4090, 4092, 4095, 4095, 4091, 4094, 4090, 4094, 4094, 4094, 4095, 4094, 4093, 4092, 4090, 4093, 4095, 4094, 4092, 4093, 4090, 4093, 4095, 4094, 4095, 4093, 4095, 4094, 4093, 4095, 4093, 4094, 4095, 4094, 4095, 4093], "SliceLocation": [-59.611513886008, -57.611513229329, -55.611512572651, -53.611516081485, -51.611515424807, -49.611514768128, -47.611514579279, -45.6115139226, -43.611513265922, -41.611512843158, -39.611516118078, -37.611515461399, -35.611515038635, -33.611514381021, -31.611513958257, -29.611513301578, -27.611514727656, -25.611514304892, -23.611513648214, -21.611515074292, -19.611514417145, -17.611513994381, -15.611514496038, -13.611513839359, -11.611514341017, -9.6115142630377, -7.6115141855269, -5.6115141080162, -3.6115140302713, -1.6115140972014, 0.38848577692169, 2.3884858544324, 4.3884857009549, 6.3884857785827, 8.3884862598839, 10.388485875301, 12.38848543224, 14.388485972078, 16.388485558197, 18.388486098036, 20.388486608635, 22.388485277584, 24.38848579561, 26.388486320712, 28.388484982586, 30.388485493068, 32.388484183947, 34.388484665658, 36.388485205379, 38.3884857451, 40.388486284822, 42.388486824543, 44.388487247775, 46.388484089812, 48.388484629533, 50.388485169255, 52.388485708976, 54.38848613174, 56.388486671461, 58.388487329076, 60.388484054156, 62.38848447692, 64.388485133598, 66.388489254047, 68.388482515357, 70.388482938121, 72.388483360885, 74.388484017563, 76.388484440327, 78.388485097006, 80.38848551977, 82.388485942534], "SmallestImagePixelValue": [0, 0, 0, 2, 0, 0, 0, 0, 0, 0, 0, 0, 0, 0, 0, 0, 17, 0, 2, 4, 5, 3, 0, 0, 0, 4, 0, 5, 0, 0, 0, 4, 0, 0, 3, 0, 1, 6, 0, 1, 1, 0, 7, 0, 4, 3, 0, 0, 0, 0, 1, 0, 3, 2, 0, 0, 0, 1, 0, 1, 0, 0, 0, 0, 0, 2, 0, 0, 0, 0, 0, 0], "WindowCenter": [-176.0, -242.0, -224.0, -308.0, -260.0, -226.0, -90.0, -34.0, -58.0, -130.0, -196.0, -258.0, -236.0, -234.0, -196.0, -142.0, -174.0, -266.0, -350.0, -368.0, -324.0, -204.0, -164.0, -162.0, -156.0, -184.0, -172.0, -190.0, -194.0, -212.0, -184.0, -166.0, -154.0, -128.0, -112.0, -134.0, -234.0, -88.0, -70.0, -80.0, -190.0, -56.0, -10.0, -150.0, -14.0, -152.0, -140.0, 14.0, -56.0, -16.0, -172.0, -48.0, -68.0, -42.0, -214.0, -72.0, -90.0, -236.0, -124.0, -48.0, -68.0, -76.0, -44.0, -58.0, -132.0, -138.0, -178.0, -180.0, -230.0, -256.0, -306.0, -312.0], "WindowWidth": [6114.0, 6130.0, 6174.0, 6126.0, 6230.0, 6224.0, 6296.0, 6316.0, 6266.0, 6176.0, 6134.0, 6090.0, 6078.0, 5956.0, 5944.0, 5946.0, 5964.0, 5890.0, 5814.0, 5706.0, 5666.0, 5564.0, 5592.0, 5450.0, 5586.0, 5596.0, 5628.0, 5468.0, 5526.0, 5348.0, 5398.0, 5428.0, 5414.0, 5406.0, 5374.0, 5120.0, 4612.0, 5180.0, 5256.0, 5002.0, 4576.0, 5040.0, 5248.0, 4560.0, 5136.0, 4572.0, 4576.0, 5388.0, 5008.0, 5214.0, 4604.0, 5150.0, 5162.0, 5220.0, 4638.0, 5308.0, 5286.0, 4700.0, 5134.0, 5570.0, 5606.0, 5700.0, 5756.0, 5874.0, 5940.0, 5988.0, 6038.0, 6096.0, 6196.0, 6240.0, 6232.0, 6318.0]}}, "IntendedFor": ["ses-action01/func/sub-27_ses-action01_task-action_run-08_bold.nii.gz", "ses-action01/func/sub-27_ses-action01_task-action_run-07_bold.nii.gz", "ses-action01/func/sub-27_ses-action01_task-action_run-05_bold.nii.gz", "ses-action01/func/sub-27_ses-action01_task-action_run-03_bold.nii.gz", "ses-action01/func/sub-27_ses-action01_task-action_run-01_bold.nii.gz", "ses-action01/func/sub-27_ses-action01_task-action_run-11_bold.nii.gz", "ses-action01/func/sub-27_ses-action01_task-action_run-02_bold.nii.gz", "ses-action01/func/sub-27_ses-action01_task-action_run-12_bold.nii.gz", "ses-action01/func/sub-27_ses-action01_task-action_run-10_bold.nii.gz", "ses-action01/func/sub-27_ses-action01_task-action_run-06_bold.nii.gz", "ses-action01/func/sub-27_ses-action01_task-action_run-09_bold.nii.gz", "ses-action01/func/sub-27_ses-action01_task-action_run-04_bold.nii.gz"]}