{
  "AcquisitionMatrixPE": 100,
  "AcquisitionNumber": 1,
  "AcquisitionTime": "16:06:45.357500",
  "BandwidthPerPixelPhaseEncode": 18.519,
  "BaseResolution": 100,
  "BodyPartExamined": "BRAIN",
  "CoilCombinationMethod": "Sum of Squares",
  "ConsistencyInfo": "N4_VE11C_LATEST_20160120",
  "ConversionSoftware": "dcm2niix",
  "ConversionSoftwareVersion": "v1.0.20211006",
  "DerivedVendorReportedEchoSpacing": 0.000539986,
  "DeviceSerialNumber": "166078",
  "DwellTime": 2.1e-06,
  "EchoTime": 0.034,
  "EchoTrainLength": 100,
  "EffectiveEchoSpacing": 0.000539986,
  "FlipAngle": 90,
  "ImageOrientationPatientDICOM": [0.999877, -0.00385315, -0.0152274, 2.82793e-08, 0.969445, -0.245307],
  "ImageOrientationText": "Tra>Cor(-14.2)>Sag(-0.9)",
  "ImageType": [
    "ORIGINAL",
    "PRIMARY",
    "M",
    "ND",
    "MOSAIC"
],
  "ImagingFrequency": 123.258,
  "InPlanePhaseEncodingDirectionDICOM": "COL",
  "InstitutionAddress": "Street StreetNo,Bei Jing,District,CN,ZIP",
  "InstitutionName": "BeiJing Normal University",
  "InstitutionalDepartmentName": "Department",
  "MRAcquisitionType": "2D",
  "MagneticFieldStrength": 3,
  "Manufacturer": "Siemens",
  "ManufacturersModelName": "Prisma",
  "Modality": "MR",
  "MultibandAccelerationFactor": 3,
  "PartialFourier": 1,
  "PatientPosition": "HFS",
  "PercentPhaseFOV": 100,
  "PercentSampling": 100,
  "PhaseEncodingDirection": "j-",
  "PhaseEncodingSteps": 100,
  "PhaseResolution": 1,
  "PixelBandwidth": 2380,
  "ProcedureStepDescription": "BNU_P2018_64CH^Zhen.ZongLei",
  "ProtocolName": "bold_100x100_s3_2x2x2_static_156",
  "PulseSequenceDetails": "%SiemensSeq%\\ep2d_bold",
  "ReceiveCoilActiveElements": "HC1-7;NC1",
  "ReceiveCoilName": "HeadNeck_64",
  "ReconMatrixPE": 100,
  "RefLinesPE": 32,
  "RepetitionTime": 2,
  "SAR": 0.085349,
  "ScanOptions": "FS",
  "ScanningSequence": "EP",
  "SequenceName": "*epfid2d1_100",
  "SequenceVariant": "SK",
  "SeriesDescription": "bold_100x100_s3_2x2x2_static_156",
  "SeriesNumber": 6,
  "ShimSetting": [-5461, -11516, -1214, 408, -14, -257, -17, 71],
  "SliceThickness": 2,
  "SliceTiming": [1.485, 0, 0.99, 0.0825, 1.0725, 0.165, 1.155, 0.2475, 1.2375, 0.33, 1.32, 0.4125, 1.4025, 0.5775, 1.5675, 0.66, 1.65, 0.7425, 1.7325, 0.825, 1.815, 0.9075, 1.8975, 0.495, 1.485, 0, 0.99, 0.0825, 1.0725, 0.165, 1.155, 0.2475, 1.2375, 0.33, 1.32, 0.4125, 1.4025, 0.5775, 1.5675, 0.66, 1.65, 0.7425, 1.7325, 0.825, 1.815, 0.9075, 1.8975, 0.495, 1.485, 0, 0.99, 0.0825, 1.0725, 0.165, 1.155, 0.2475, 1.2375, 0.33, 1.32, 0.4125, 1.4025, 0.5775, 1.5675, 0.66, 1.65, 0.7425, 1.7325, 0.825, 1.815, 0.9075, 1.8975, 0.495],
  "SoftwareVersions": "syngo MR E11",
  "SpacingBetweenSlices": 2,
  "StationName": "AWP166078",
  "TaskName": "action",
  "TotalReadoutTime": 0.0534586,
  "TxRefAmp": 254.386,
  "dcmmeta_affine": [
    [-1.9997532367706299, 5.6558612016033294e-08, -0.03141465410590172, 101.1028823852539],
    [0.007706301286816597, 1.9388906955718994, -0.4905542731285095, -75.41454315185547],
    [-0.03045477531850338, 0.49061480164527893, 1.938651442527771, -78.94242095947266],
    [0.0, 0.0, 0.0, 1.0]
],
  "dcmmeta_reorient_transform": [
    [0.0, -1.0, 0.0, 99.0],
    [1.0, 0.0, 0.0, 0.0],
    [0.0, 0.0, 1.0, 0.0],
    [0.0, 0.0, 0.0, 1.0]
],
  "dcmmeta_shape": [100, 100, 72, 156],
  "dcmmeta_slice_dim": 2,
  "dcmmeta_version": 0.6,
  "global": {
    "const": {
      "AcquisitionMatrix": [100, 0, 0, 100],
      "AngioFlag": "N",
      "BitsAllocated": 16,
      "BitsStored": 12,
      "BodyPartExamined": "BRAIN",
      "Columns": 900,
      "EchoNumbers": 1,
      "EchoTime": 34.0,
      "EchoTrainLength": 100,
      "FlipAngle": 90.0,
      "HighBit": 11,
      "ImageOrientationPatient": [0.99987663233824, -0.0038531507434, -0.0152273876053, 2.8279306e-08, 0.96944534759021, -0.2453073949878],
      "ImagePositionPatient": [-901.00421402963, -889.009396611, 178.05627076443],
      "ImageType": [
        "ORIGINAL",
        "PRIMARY",
        "M",
        "ND",
        "MOSAIC"
],
      "ImagedNucleus": "1H",
      "ImagingFrequency": 123.257674,
      "InPlanePhaseEncodingDirection": "COL",
      "MRAcquisitionType": "2D",
      "MagneticFieldStrength": 3.0,
      "Manufacturer": "SIEMENS",
      "ManufacturerModelName": "Prisma",
      "Modality": "MR",
      "NumberOfAverages": 1.0,
      "NumberOfPhaseEncodingSteps": 100,
      "PercentPhaseFieldOfView": 100.0,
      "PercentSampling": 100.0,
      "PerformedProcedureStepStartTime": "154549.336000",
      "PhotometricInterpretation": "MONOCHROME2",
      "PixelBandwidth": 2380.0,
      "PixelRepresentation": 0,
      "PixelSpacing": [2.0, 2.0],
      "ProtocolName": "bold_100x100_s3_2x2x2_static_156",
      "RepetitionTime": 2000.0,
      "Rows": 900,
      "SAR": 0.08534904778381,
      "SamplesPerPixel": 1,
      "ScanOptions": "FS",
      "ScanningSequence": "EP",
      "SequenceName": "*epfid2d1_100",
      "SequenceVariant": "SK",
      "SeriesDescription": "bold_100x100_s3_2x2x2_static_156",
      "SeriesNumber": 6,
      "SeriesTime": "160647.404000",
      "SliceLocation": -59.611513932321,
      "SliceThickness": 2.0,
      "SmallestImagePixelValue": 0,
      "SoftwareVersions": "syngo MR E11",
      "SpacingBetweenSlices": 1.9999999975851,
      "SpecificCharacterSet": "ISO_IR 100",
      "StudyID": "1",
      "StudyTime": "154549.241000",
      "TransmitCoilName": "Body",
      "VariableFlipAngleFlag": "N",
      "WindowCenterWidthExplanation": "Algo1",
      "dBdt": 0.0},
    "slices": {}
  },
  "time": {
    "samples": {
      "AcquisitionNumber": [1, 2, 3, 4, 5, 6, 7, 8, 9, 10, 11, 12, 13, 14, 15, 16, 17, 18, 19, 20, 21, 22, 23, 24, 25, 26, 27, 28, 29, 30, 31, 32, 33, 34, 35, 36, 37, 38, 39, 40, 41, 42, 43, 44, 45, 46, 47, 48, 49, 50, 51, 52, 53, 54, 55, 56, 57, 58, 59, 60, 61, 62, 63, 64, 65, 66, 67, 68, 69, 70, 71, 72, 73, 74, 75, 76, 77, 78, 79, 80, 81, 82, 83, 84, 85, 86, 87, 88, 89, 90, 91, 92, 93, 94, 95, 96, 97, 98, 99, 100, 101, 102, 103, 104, 105, 106, 107, 108, 109, 110, 111, 112, 113, 114, 115, 116, 117, 118, 119, 120, 121, 122, 123, 124, 125, 126, 127, 128, 129, 130, 131, 132, 133, 134, 135, 136, 137, 138, 139, 140, 141, 142, 143, 144, 145, 146, 147, 148, 149, 150, 151, 152, 153, 154, 155, 156],
      "AcquisitionTime": ["160645.357500", "160647.357500", "160649.357500", "160651.357500", "160653.357500", "160655.357500", "160657.357500", "160659.357500", "160701.357500", "160703.357500", "160705.357500", "160707.357500", "160709.357500", "160711.357500", "160713.357500", "160715.357500", "160717.357500", "160719.357500", "160721.357500", "160723.357500", "160725.357500", "160727.357500", "160729.357500", "160731.357500", "160733.357500", "160735.357500", "160737.357500", "160739.357500", "160741.357500", "160743.357500", "160745.357500", "160747.357500", "160749.357500", "160751.357500", "160753.357500", "160755.357500", "160757.357500", "160759.357500", "160801.357500", "160803.357500", "160805.357500", "160807.357500", "160809.357500", "160811.357500", "160813.357500", "160815.357500", "160817.357500", "160819.357500", "160821.357500", "160823.357500", "160825.357500", "160827.357500", "160829.357500", "160831.357500", "160833.357500", "160835.357500", "160837.357500", "160839.357500", "160841.357500", "160843.357500", "160845.357500", "160847.357500", "160849.357500", "160851.357500", "160853.357500", "160855.357500", "160857.357500", "160859.357500", "160901.357500", "160903.357500", "160905.357500", "160907.357500", "160909.357500", "160911.357500", "160913.357500", "160915.357500", "160917.357500", "160919.357500", "160921.357500", "160923.357500", "160925.357500", "160927.357500", "160929.357500", "160931.357500", "160933.357500", "160935.357500", "160937.357500", "160939.357500", "160941.357500", "160943.357500", "160945.357500", "160947.357500", "160949.357500", "160951.357500", "160953.357500", "160955.357500", "160957.357500", "160959.357500", "161001.357500", "161003.357500", "161005.357500", "161007.357500", "161009.357500", "161011.357500", "161013.357500", "161015.357500", "161017.357500", "161019.357500", "161021.357500", "161023.357500", "161025.357500", "161027.357500", "161029.357500", "161031.357500", "161033.357500", "161035.357500", "161037.357500", "161039.357500", "161041.357500", "161043.357500", "161045.357500", "161047.357500", "161049.357500", "161051.357500", "161053.357500", "161055.357500", "161057.357500", "161059.357500", "161101.357500", "161103.357500", "161105.357500", "161107.357500", "161109.357500", "161111.357500", "161113.357500", "161115.357500", "161117.357500", "161119.357500", "161121.357500", "161123.357500", "161125.357500", "161127.357500", "161129.357500", "161131.357500", "161133.357500", "161135.357500", "161137.357500", "161139.357500", "161141.357500", "161143.357500", "161145.357500", "161147.357500", "161149.357500", "161151.357500", "161153.357500", "161155.357500"],
      "ContentTime": ["160647.408000", "160648.903000", "160650.904000", "160652.903000", "160654.903000", "160656.903000", "160658.903000", "160700.904000", "160702.903000", "160704.903000", "160706.903000", "160708.904000", "160710.904000", "160712.903000", "160714.904000", "160716.903000", "160718.903000", "160720.903000", "160722.904000", "160724.904000", "160726.904000", "160728.904000", "160730.903000", "160732.904000", "160734.904000", "160736.904000", "160738.904000", "160740.903000", "160742.903000", "160744.904000", "160746.903000", "160748.902000", "160750.903000", "160752.903000", "160754.904000", "160756.903000", "160758.904000", "160800.903000", "160802.904000", "160804.904000", "160806.903000", "160809.403000", "160810.904000", "160812.904000", "160814.904000", "160816.903000", "160818.904000", "160820.904000", "160822.903000", "160824.903000", "160826.903000", "160828.904000", "160830.904000", "160832.904000", "160834.904000", "160836.903000", "160838.904000", "160840.904000", "160842.903000", "160844.903000", "160846.904000", "160848.904000", "160850.904000", "160852.904000", "160854.904000", "160856.903000", "160858.903000", "160900.903000", "160902.903000", "160904.904000", "160906.903000", "160908.904000", "160910.903000", "160912.903000", "160914.904000", "160916.904000", "160918.903000", "160920.904000", "160922.903000", "160924.903000", "160926.903000", "160928.903000", "160930.904000", "160932.904000", "160934.904000", "160936.903000", "160938.904000", "160940.903000", "160942.903000", "160944.904000", "160946.903000", "160948.904000", "160950.904000", "160952.903000", "160954.903000", "160956.904000", "160958.904000", "161000.904000", "161002.904000", "161004.904000", "161006.904000", "161008.904000", "161010.903000", "161012.904000", "161014.903000", "161016.904000", "161018.903000", "161020.903000", "161022.903000", "161024.904000", "161026.904000", "161028.904000", "161030.904000", "161032.904000", "161034.903000", "161036.904000", "161038.903000", "161040.904000", "161042.904000", "161044.903000", "161046.903000", "161048.904000", "161050.903000", "161052.903000", "161054.904000", "161056.903000", "161058.903000", "161100.903000", "161102.903000", "161104.903000", "161106.904000", "161108.904000", "161110.903000", "161112.904000", "161114.903000", "161117.403000", "161118.903000", "161120.904000", "161122.904000", "161124.904000", "161126.904000", "161128.904000", "161130.903000", "161132.904000", "161134.903000", "161136.903000", "161138.903000", "161140.904000", "161142.904000", "161144.904000", "161146.903000", "161148.904000", "161150.903000", "161152.904000", "161154.904000", "161156.730000"],
      "InstanceCreationTime": ["160647.408000", "160648.903000", "160650.904000", "160652.903000", "160654.903000", "160656.903000", "160658.903000", "160700.904000", "160702.903000", "160704.903000", "160706.903000", "160708.904000", "160710.904000", "160712.903000", "160714.904000", "160716.903000", "160718.903000", "160720.903000", "160722.904000", "160724.904000", "160726.904000", "160728.904000", "160730.903000", "160732.904000", "160734.904000", "160736.904000", "160738.904000", "160740.903000", "160742.903000", "160744.904000", "160746.903000", "160748.902000", "160750.903000", "160752.903000", "160754.904000", "160756.903000", "160758.904000", "160800.903000", "160802.904000", "160804.904000", "160806.903000", "160809.403000", "160810.904000", "160812.904000", "160814.904000", "160816.903000", "160818.904000", "160820.904000", "160822.903000", "160824.903000", "160826.903000", "160828.904000", "160830.904000", "160832.904000", "160834.904000", "160836.903000", "160838.904000", "160840.904000", "160842.903000", "160844.903000", "160846.904000", "160848.904000", "160850.904000", "160852.904000", "160854.904000", "160856.903000", "160858.903000", "160900.903000", "160902.903000", "160904.904000", "160906.903000", "160908.904000", "160910.903000", "160912.903000", "160914.904000", "160916.904000", "160918.903000", "160920.904000", "160922.903000", "160924.903000", "160926.903000", "160928.903000", "160930.904000", "160932.904000", "160934.904000", "160936.903000", "160938.904000", "160940.903000", "160942.903000", "160944.904000", "160946.903000", "160948.904000", "160950.904000", "160952.903000", "160954.903000", "160956.904000", "160958.904000", "161000.904000", "161002.904000", "161004.904000", "161006.904000", "161008.904000", "161010.903000", "161012.904000", "161014.903000", "161016.904000", "161018.903000", "161020.903000", "161022.903000", "161024.904000", "161026.904000", "161028.904000", "161030.904000", "161032.904000", "161034.903000", "161036.904000", "161038.903000", "161040.904000", "161042.904000", "161044.903000", "161046.903000", "161048.904000", "161050.903000", "161052.903000", "161054.904000", "161056.903000", "161058.903000", "161100.903000", "161102.903000", "161104.903000", "161106.904000", "161108.904000", "161110.903000", "161112.904000", "161114.903000", "161117.403000", "161118.903000", "161120.904000", "161122.904000", "161124.904000", "161126.904000", "161128.904000", "161130.903000", "161132.904000", "161134.903000", "161136.903000", "161138.903000", "161140.904000", "161142.904000", "161144.904000", "161146.903000", "161148.904000", "161150.903000", "161152.904000", "161154.904000", "161156.730000"],
      "InstanceNumber": [1, 2, 3, 4, 5, 6, 7, 8, 9, 10, 11, 12, 13, 14, 15, 16, 17, 18, 19, 20, 21, 22, 23, 24, 25, 26, 27, 28, 29, 30, 31, 32, 33, 34, 35, 36, 37, 38, 39, 40, 41, 42, 43, 44, 45, 46, 47, 48, 49, 50, 51, 52, 53, 54, 55, 56, 57, 58, 59, 60, 61, 62, 63, 64, 65, 66, 67, 68, 69, 70, 71, 72, 73, 74, 75, 76, 77, 78, 79, 80, 81, 82, 83, 84, 85, 86, 87, 88, 89, 90, 91, 92, 93, 94, 95, 96, 97, 98, 99, 100, 101, 102, 103, 104, 105, 106, 107, 108, 109, 110, 111, 112, 113, 114, 115, 116, 117, 118, 119, 120, 121, 122, 123, 124, 125, 126, 127, 128, 129, 130, 131, 132, 133, 134, 135, 136, 137, 138, 139, 140, 141, 142, 143, 144, 145, 146, 147, 148, 149, 150, 151, 152, 153, 154, 155, 156],
      "LargestImagePixelValue": [3545, 3451, 3464, 3408, 3379, 3404, 3383, 3380, 3383, 3377, 3386, 3387, 3402, 3399, 3392, 3410, 3387, 3395, 3366, 3394, 3389, 3389, 3397, 3396, 3377, 3419, 3394, 3382, 3399, 3410, 3423, 3398, 3379, 3410, 3413, 3404, 3415, 3411, 3388, 3389, 3399, 3385, 3418, 3409, 3412, 3390, 3376, 3412, 3413, 3402, 3405, 3386, 3383, 3371, 3402, 3408, 3392, 3384, 3386, 3400, 3404, 3394, 3410, 3435, 3382, 3432, 3405, 3399, 3414, 3412, 3388, 3362, 3400, 3366, 3363, 3422, 3383, 3373, 3388, 3427, 3402, 3414, 3391, 3408, 3412, 3383, 3386, 3397, 3396, 3367, 3397, 3407, 3397, 3411, 3409, 3413, 3408, 3390, 3399, 3418, 3400, 3454, 3478, 3421, 3408, 3406, 3390, 3419, 3425, 3454, 3436, 3454, 3432, 3436, 3413, 3401, 3393, 3460, 3418, 3406, 3445, 3421, 3400, 3421, 3455, 3464, 3435, 3380, 3445, 3357, 3393, 3381, 3393, 3355, 3373, 3423, 3412, 3480, 3478, 3436, 3444, 3442, 3435, 3421, 3449, 3491, 3409, 3444, 3485, 3445, 3456, 3415, 3470, 3458, 3454, 3450],
      "WindowCenter": [799.0, 797.0, 796.0, 796.0, 795.0, 795.0, 794.0, 794.0, 794.0, 795.0, 795.0, 795.0, 796.0, 798.0, 798.0, 797.0, 796.0, 798.0, 799.0, 799.0, 800.0, 801.0, 799.0, 798.0, 796.0, 795.0, 795.0, 795.0, 796.0, 799.0, 800.0, 797.0, 795.0, 795.0, 795.0, 794.0, 793.0, 793.0, 792.0, 793.0, 795.0, 798.0, 798.0, 796.0, 796.0, 795.0, 794.0, 794.0, 795.0, 797.0, 799.0, 798.0, 796.0, 793.0, 792.0, 793.0, 794.0, 796.0, 796.0, 796.0, 796.0, 795.0, 798.0, 799.0, 798.0, 797.0, 796.0, 795.0, 798.0, 799.0, 799.0, 799.0, 801.0, 802.0, 802.0, 800.0, 797.0, 795.0, 794.0, 794.0, 793.0, 794.0, 794.0, 796.0, 799.0, 799.0, 797.0, 797.0, 797.0, 798.0, 799.0, 797.0, 795.0, 795.0, 795.0, 796.0, 797.0, 798.0, 797.0, 797.0, 795.0, 795.0, 796.0, 797.0, 799.0, 802.0, 804.0, 802.0, 798.0, 796.0, 794.0, 794.0, 794.0, 796.0, 796.0, 795.0, 794.0, 794.0, 795.0, 796.0, 798.0, 797.0, 795.0, 795.0, 794.0, 796.0, 798.0, 797.0, 800.0, 799.0, 800.0, 802.0, 805.0, 805.0, 802.0, 799.0, 797.0, 797.0, 799.0, 799.0, 798.0, 796.0, 794.0, 794.0, 795.0, 795.0, 795.0, 797.0, 799.0, 800.0, 801.0, 799.0, 796.0, 794.0, 794.0, 794.0],
      "WindowWidth": [1714.0, 1708.0, 1706.0, 1704.0, 1703.0, 1702.0, 1700.0, 1699.0, 1700.0, 1703.0, 1703.0, 1702.0, 1706.0, 1710.0, 1710.0, 1707.0, 1706.0, 1709.0, 1711.0, 1713.0, 1717.0, 1717.0, 1713.0, 1709.0, 1704.0, 1703.0, 1701.0, 1701.0, 1706.0, 1713.0, 1714.0, 1707.0, 1703.0, 1702.0, 1702.0, 1698.0, 1698.0, 1696.0, 1694.0, 1696.0, 1702.0, 1709.0, 1710.0, 1705.0, 1704.0, 1702.0, 1699.0, 1700.0, 1703.0, 1707.0, 1713.0, 1711.0, 1705.0, 1698.0, 1695.0, 1696.0, 1700.0, 1704.0, 1704.0, 1706.0, 1705.0, 1703.0, 1709.0, 1713.0, 1710.0, 1707.0, 1705.0, 1703.0, 1709.0, 1712.0, 1712.0, 1714.0, 1717.0, 1721.0, 1721.0, 1715.0, 1708.0, 1703.0, 1699.0, 1699.0, 1698.0, 1700.0, 1700.0, 1704.0, 1711.0, 1711.0, 1707.0, 1706.0, 1707.0, 1711.0, 1711.0, 1708.0, 1703.0, 1701.0, 1702.0, 1704.0, 1708.0, 1711.0, 1708.0, 1706.0, 1702.0, 1701.0, 1704.0, 1708.0, 1714.0, 1720.0, 1725.0, 1721.0, 1709.0, 1703.0, 1700.0, 1699.0, 1700.0, 1704.0, 1703.0, 1700.0, 1700.0, 1700.0, 1701.0, 1706.0, 1709.0, 1707.0, 1703.0, 1702.0, 1699.0, 1704.0, 1709.0, 1708.0, 1714.0, 1713.0, 1714.0, 1720.0, 1729.0, 1728.0, 1720.0, 1711.0, 1706.0, 1707.0, 1711.0, 1711.0, 1709.0, 1703.0, 1698.0, 1699.0, 1701.0, 1702.0, 1701.0, 1705.0, 1711.0, 1716.0, 1717.0, 1711.0, 1704.0, 1699.0, 1697.0, 1700.0]
    },
    "slices": {}
  }
}