{
  "AcquisitionMatrixPE": 100,
  "AcquisitionNumber": 1,
  "AcquisitionTime": "11:05:46.770000",
  "BandwidthPerPixelPhaseEncode": 18.519,
  "BaseResolution": 100,
  "BodyPartExamined": "BRAIN",
  "CoilCombinationMethod": "Sum of Squares",
  "ConsistencyInfo": "N4_VE11C_LATEST_20160120",
  "ConversionSoftware": "dcm2niix",
  "ConversionSoftwareVersion": "v1.0.20211006",
  "DerivedVendorReportedEchoSpacing": 0.000539986,
  "DeviceSerialNumber": "166078",
  "DwellTime": 2.1e-06,
  "EchoTime": 0.034,
  "EchoTrainLength": 100,
  "EffectiveEchoSpacing": 0.000539986,
  "FlipAngle": 90,
  "ImageOrientationPatientDICOM": [1, 0, 0, 0, 0.982287, -0.187381],
  "ImageOrientationText": "Tra>Cor(-10.8)",
  "ImageType": [
    "ORIGINAL",
    "PRIMARY",
    "M",
    "ND",
    "MOSAIC"
],
  "ImagingFrequency": 123.258,
  "InPlanePhaseEncodingDirectionDICOM": "COL",
  "InstitutionAddress": "Street StreetNo,Bei Jing,District,CN,ZIP",
  "InstitutionName": "BeiJing Normal University",
  "InstitutionalDepartmentName": "Department",
  "MRAcquisitionType": "2D",
  "MagneticFieldStrength": 3,
  "Manufacturer": "Siemens",
  "ManufacturersModelName": "Prisma",
  "Modality": "MR",
  "MultibandAccelerationFactor": 3,
  "PartialFourier": 1,
  "PatientPosition": "HFS",
  "PercentPhaseFOV": 100,
  "PercentSampling": 100,
  "PhaseEncodingDirection": "j-",
  "PhaseEncodingSteps": 100,
  "PhaseResolution": 1,
  "PixelBandwidth": 2380,
  "ProcedureStepDescription": "BNU_P2018_64CH^Zhen.ZongLei",
  "ProtocolName": "bold_100x100_s3_2x2x2_static_156",
  "PulseSequenceDetails": "%SiemensSeq%\\ep2d_bold",
  "ReceiveCoilActiveElements": "HC1-7;NC1",
  "ReceiveCoilName": "HeadNeck_64",
  "ReconMatrixPE": 100,
  "RefLinesPE": 32,
  "RepetitionTime": 2,
  "SAR": 0.0657312,
  "ScanOptions": "FS",
  "ScanningSequence": "EP",
  "SequenceName": "*epfid2d1_100",
  "SequenceVariant": "SK",
  "SeriesDescription": "bold_100x100_s3_2x2x2_static_156",
  "SeriesNumber": 12,
  "ShimSetting": [-5449, -11519, -1240, 401, 12, -122, -268, 48],
  "SliceThickness": 2,
  "SliceTiming": [1.4825, 0, 0.9875, 0.0825, 1.07, 0.165, 1.1525, 0.2475, 1.235, 0.33, 1.3175, 0.4125, 1.4, 0.5775, 1.565, 0.66, 1.6475, 0.7425, 1.73, 0.825, 1.8125, 0.905, 1.895, 0.495, 1.4825, 0, 0.9875, 0.0825, 1.07, 0.165, 1.1525, 0.2475, 1.235, 0.33, 1.3175, 0.4125, 1.4, 0.5775, 1.565, 0.66, 1.6475, 0.7425, 1.73, 0.825, 1.8125, 0.905, 1.895, 0.495, 1.4825, 0, 0.9875, 0.0825, 1.07, 0.165, 1.1525, 0.2475, 1.235, 0.33, 1.3175, 0.4125, 1.4, 0.5775, 1.565, 0.66, 1.6475, 0.7425, 1.73, 0.825, 1.8125, 0.905, 1.895, 0.495],
  "SoftwareVersions": "syngo MR E11",
  "SpacingBetweenSlices": 2,
  "StationName": "AWP166078",
  "TaskName": "action",
  "TotalReadoutTime": 0.0534586,
  "TxRefAmp": 217.597,
  "dcmmeta_affine": [
    [-2.0, 0.0, 0.0, 101.3559341430664],
    [0.0, 1.9645744562149048, -0.374762624502182, -76.79542541503906],
    [0.0, 0.374762624502182, 1.9645744562149048, -80.04765319824219],
    [0.0, 0.0, 0.0, 1.0]
],
  "dcmmeta_reorient_transform": [
    [0.0, -1.0, 0.0, 99.0],
    [1.0, 0.0, 0.0, 0.0],
    [0.0, 0.0, 1.0, 0.0],
    [0.0, 0.0, 0.0, 1.0]
],
  "dcmmeta_shape": [100, 100, 72, 156],
  "dcmmeta_slice_dim": 2,
  "dcmmeta_version": 0.6,
  "global": {
    "const": {
      "AcquisitionMatrix": [100, 0, 0, 100],
      "AngioFlag": "N",
      "BitsAllocated": 16,
      "BitsStored": 12,
      "BodyPartExamined": "BRAIN",
      "Columns": 900,
      "EchoNumbers": 1,
      "EchoTime": 34.0,
      "EchoTrainLength": 100,
      "FlipAngle": 90.0,
      "HighBit": 11,
      "ImageOrientationPatient": [1.0, 0.0, 0.0, 0.0, 0.98228725047307, -0.1873813159257],
      "ImagePositionPatient": [-901.35593223572, -903.52724681553, 106.95890012293],
      "ImageType": [
        "ORIGINAL",
        "PRIMARY",
        "M",
        "ND",
        "MOSAIC"
],
      "ImagedNucleus": "1H",
      "ImagingFrequency": 123.257721,
      "InPlanePhaseEncodingDirection": "COL",
      "MRAcquisitionType": "2D",
      "MagneticFieldStrength": 3.0,
      "Manufacturer": "SIEMENS",
      "ManufacturerModelName": "Prisma",
      "Modality": "MR",
      "NumberOfAverages": 1.0,
      "NumberOfPhaseEncodingSteps": 100,
      "PercentPhaseFieldOfView": 100.0,
      "PercentSampling": 100.0,
      "PerformedProcedureStepStartTime": "101525.996000",
      "PhotometricInterpretation": "MONOCHROME2",
      "PixelBandwidth": 2380.0,
      "PixelRepresentation": 0,
      "PixelSpacing": [2.0, 2.0],
      "ProtocolName": "bold_100x100_s3_2x2x2_static_156",
      "RepetitionTime": 2000.0,
      "Rows": 900,
      "SAR": 0.06573117809029,
      "SamplesPerPixel": 1,
      "ScanOptions": "FS",
      "ScanningSequence": "EP",
      "SequenceName": "*epfid2d1_100",
      "SequenceVariant": "SK",
      "SeriesDescription": "bold_100x100_s3_2x2x2_static_156",
      "SeriesNumber": 12,
      "SeriesTime": "110549.450000",
      "SliceLocation": -64.239760567648,
      "SliceThickness": 2.0,
      "SmallestImagePixelValue": 0,
      "SoftwareVersions": "syngo MR E11",
      "SpacingBetweenSlices": 2.000000014055,
      "SpecificCharacterSet": "ISO_IR 100",
      "StudyID": "1",
      "StudyTime": "101525.906000",
      "TransmitCoilName": "Body",
      "VariableFlipAngleFlag": "N",
      "WindowCenterWidthExplanation": "Algo1",
      "dBdt": 0.0},
    "slices": {}
  },
  "time": {
    "samples": {
      "AcquisitionNumber": [1, 2, 3, 4, 5, 6, 7, 8, 9, 10, 11, 12, 13, 14, 15, 16, 17, 18, 19, 20, 21, 22, 23, 24, 25, 26, 27, 28, 29, 30, 31, 32, 33, 34, 35, 36, 37, 38, 39, 40, 41, 42, 43, 44, 45, 46, 47, 48, 49, 50, 51, 52, 53, 54, 55, 56, 57, 58, 59, 60, 61, 62, 63, 64, 65, 66, 67, 68, 69, 70, 71, 72, 73, 74, 75, 76, 77, 78, 79, 80, 81, 82, 83, 84, 85, 86, 87, 88, 89, 90, 91, 92, 93, 94, 95, 96, 97, 98, 99, 100, 101, 102, 103, 104, 105, 106, 107, 108, 109, 110, 111, 112, 113, 114, 115, 116, 117, 118, 119, 120, 121, 122, 123, 124, 125, 126, 127, 128, 129, 130, 131, 132, 133, 134, 135, 136, 137, 138, 139, 140, 141, 142, 143, 144, 145, 146, 147, 148, 149, 150, 151, 152, 153, 154, 155, 156],
      "AcquisitionTime": ["110546.770000", "110548.770000", "110550.770000", "110552.770000", "110554.770000", "110556.770000", "110558.770000", "110600.770000", "110602.770000", "110604.770000", "110606.770000", "110608.770000", "110610.770000", "110612.770000", "110614.770000", "110616.770000", "110618.770000", "110620.770000", "110622.770000", "110624.770000", "110626.770000", "110628.770000", "110630.770000", "110632.770000", "110634.770000", "110636.770000", "110638.770000", "110640.770000", "110642.770000", "110644.770000", "110646.770000", "110648.770000", "110650.770000", "110652.770000", "110654.770000", "110656.770000", "110658.770000", "110700.770000", "110702.770000", "110704.770000", "110706.770000", "110708.770000", "110710.770000", "110712.770000", "110714.770000", "110716.770000", "110718.770000", "110720.770000", "110722.770000", "110724.770000", "110726.770000", "110728.770000", "110730.770000", "110732.770000", "110734.770000", "110736.770000", "110738.770000", "110740.770000", "110742.770000", "110744.770000", "110746.770000", "110748.770000", "110750.770000", "110752.770000", "110754.770000", "110756.770000", "110758.770000", "110800.770000", "110802.770000", "110804.770000", "110806.770000", "110808.770000", "110810.770000", "110812.770000", "110814.770000", "110816.770000", "110818.770000", "110820.770000", "110822.770000", "110824.770000", "110826.770000", "110828.770000", "110830.770000", "110832.770000", "110834.770000", "110836.770000", "110838.770000", "110840.770000", "110842.770000", "110844.770000", "110846.770000", "110848.770000", "110850.770000", "110852.770000", "110854.770000", "110856.770000", "110858.770000", "110900.770000", "110902.770000", "110904.770000", "110906.770000", "110908.770000", "110910.770000", "110912.770000", "110914.770000", "110916.770000", "110918.770000", "110920.770000", "110922.770000", "110924.770000", "110926.770000", "110928.770000", "110930.770000", "110932.770000", "110934.770000", "110936.770000", "110938.770000", "110940.770000", "110942.770000", "110944.770000", "110946.770000", "110948.770000", "110950.770000", "110952.770000", "110954.770000", "110956.770000", "110958.770000", "111000.770000", "111002.770000", "111004.770000", "111006.770000", "111008.770000", "111010.770000", "111012.770000", "111014.770000", "111016.770000", "111018.770000", "111020.770000", "111022.770000", "111024.770000", "111026.770000", "111028.770000", "111030.770000", "111032.770000", "111034.770000", "111036.770000", "111038.770000", "111040.770000", "111042.770000", "111044.770000", "111046.770000", "111048.770000", "111050.770000", "111052.770000", "111054.770000", "111056.770000"],
      "ContentTime": ["110549.454000", "110550.950000", "110552.950000", "110554.950000", "110556.950000", "110558.950000", "110600.951000", "110602.951000", "110604.950000", "110606.950000", "110608.950000", "110610.950000", "110612.950000", "110614.950000", "110616.950000", "110618.951000", "110620.951000", "110622.950000", "110624.950000", "110626.950000", "110628.950000", "110630.951000", "110632.950000", "110634.950000", "110636.951000", "110638.971000", "110640.950000", "110642.950000", "110644.950000", "110646.950000", "110648.949000", "110650.950000", "110652.950000", "110654.951000", "110656.950000", "110658.950000", "110700.950000", "110702.950000", "110704.950000", "110706.950000", "110708.950000", "110710.951000", "110712.951000", "110714.950000", "110716.950000", "110718.950000", "110720.950000", "110722.950000", "110724.950000", "110726.950000", "110728.951000", "110730.951000", "110732.950000", "110734.950000", "110736.969000", "110738.950000", "110740.950000", "110742.950000", "110744.950000", "110746.951000", "110748.951000", "110750.970000", "110752.951000", "110754.950000", "110756.950000", "110758.950000", "110800.951000", "110802.951000", "110804.950000", "110806.950000", "110808.950000", "110810.950000", "110812.950000", "110814.969000", "110816.950000", "110818.950000", "110820.950000", "110822.950000", "110824.950000", "110826.950000", "110828.950000", "110830.950000", "110832.950000", "110834.950000", "110836.949000", "110838.970000", "110840.950000", "110842.950000", "110844.950000", "110846.950000", "110848.950000", "110850.950000", "110852.950000", "110854.949000", "110856.950000", "110858.950000", "110900.950000", "110902.950000", "110904.950000", "110906.950000", "110908.949000", "110910.949000", "110912.950000", "110914.950000", "110916.950000", "110918.969000", "110920.949000", "110922.949000", "110924.949000", "110926.949000", "110928.949000", "110930.950000", "110932.950000", "110934.949000", "110936.949000", "110938.950000", "110940.949000", "110942.950000", "110944.949000", "110946.949000", "110948.950000", "110950.951000", "110952.949000", "110954.949000", "110956.950000", "110958.950000", "111000.950000", "111002.949000", "111004.949000", "111006.950000", "111008.951000", "111010.969000", "111012.950000", "111014.949000", "111016.949000", "111018.950000", "111020.949000", "111022.951000", "111024.950000", "111026.949000", "111028.950000", "111030.950000", "111032.950000", "111034.950000", "111036.970000", "111038.950000", "111040.950000", "111042.950000", "111044.949000", "111046.950000", "111048.949000", "111050.950000", "111052.949000", "111054.950000", "111056.950000", "111058.632000"],
      "InstanceCreationTime": ["110549.454000", "110550.950000", "110552.950000", "110554.950000", "110556.950000", "110558.950000", "110600.951000", "110602.951000", "110604.950000", "110606.950000", "110608.950000", "110610.950000", "110612.950000", "110614.950000", "110616.950000", "110618.951000", "110620.951000", "110622.950000", "110624.950000", "110626.950000", "110628.950000", "110630.951000", "110632.950000", "110634.950000", "110636.951000", "110638.971000", "110640.950000", "110642.950000", "110644.950000", "110646.950000", "110648.949000", "110650.950000", "110652.950000", "110654.951000", "110656.950000", "110658.950000", "110700.950000", "110702.950000", "110704.950000", "110706.950000", "110708.950000", "110710.951000", "110712.951000", "110714.950000", "110716.950000", "110718.950000", "110720.950000", "110722.950000", "110724.950000", "110726.950000", "110728.951000", "110730.951000", "110732.950000", "110734.950000", "110736.969000", "110738.950000", "110740.950000", "110742.950000", "110744.950000", "110746.951000", "110748.951000", "110750.970000", "110752.951000", "110754.950000", "110756.950000", "110758.950000", "110800.951000", "110802.951000", "110804.950000", "110806.950000", "110808.950000", "110810.950000", "110812.950000", "110814.969000", "110816.950000", "110818.950000", "110820.950000", "110822.950000", "110824.950000", "110826.950000", "110828.950000", "110830.950000", "110832.950000", "110834.950000", "110836.949000", "110838.970000", "110840.950000", "110842.950000", "110844.950000", "110846.950000", "110848.950000", "110850.950000", "110852.950000", "110854.949000", "110856.950000", "110858.950000", "110900.950000", "110902.950000", "110904.950000", "110906.950000", "110908.949000", "110910.949000", "110912.950000", "110914.950000", "110916.950000", "110918.969000", "110920.949000", "110922.949000", "110924.949000", "110926.949000", "110928.949000", "110930.950000", "110932.950000", "110934.949000", "110936.949000", "110938.950000", "110940.949000", "110942.950000", "110944.949000", "110946.949000", "110948.950000", "110950.951000", "110952.949000", "110954.949000", "110956.950000", "110958.950000", "111000.950000", "111002.949000", "111004.949000", "111006.950000", "111008.951000", "111010.969000", "111012.950000", "111014.949000", "111016.949000", "111018.950000", "111020.949000", "111022.951000", "111024.950000", "111026.949000", "111028.950000", "111030.950000", "111032.950000", "111034.950000", "111036.970000", "111038.950000", "111040.950000", "111042.950000", "111044.949000", "111046.950000", "111048.949000", "111050.950000", "111052.949000", "111054.950000", "111056.950000", "111058.632000"],
      "InstanceNumber": [1, 2, 3, 4, 5, 6, 7, 8, 9, 10, 11, 12, 13, 14, 15, 16, 17, 18, 19, 20, 21, 22, 23, 24, 25, 26, 27, 28, 29, 30, 31, 32, 33, 34, 35, 36, 37, 38, 39, 40, 41, 42, 43, 44, 45, 46, 47, 48, 49, 50, 51, 52, 53, 54, 55, 56, 57, 58, 59, 60, 61, 62, 63, 64, 65, 66, 67, 68, 69, 70, 71, 72, 73, 74, 75, 76, 77, 78, 79, 80, 81, 82, 83, 84, 85, 86, 87, 88, 89, 90, 91, 92, 93, 94, 95, 96, 97, 98, 99, 100, 101, 102, 103, 104, 105, 106, 107, 108, 109, 110, 111, 112, 113, 114, 115, 116, 117, 118, 119, 120, 121, 122, 123, 124, 125, 126, 127, 128, 129, 130, 131, 132, 133, 134, 135, 136, 137, 138, 139, 140, 141, 142, 143, 144, 145, 146, 147, 148, 149, 150, 151, 152, 153, 154, 155, 156],
      "LargestImagePixelValue": [3031, 2998, 2959, 2988, 2955, 2957, 3049, 2985, 2980, 2993, 2976, 3014, 3014, 2972, 2990, 3015, 3031, 2944, 2905, 2897, 2963, 2975, 2979, 2998, 2886, 2906, 2952, 2917, 2965, 2930, 2925, 2930, 2948, 2966, 2912, 2904, 2987, 2948, 2924, 2930, 2932, 2938, 2901, 2905, 2920, 2907, 2944, 2948, 2912, 2921, 2920, 2922, 2944, 2895, 2928, 2905, 2929, 2927, 2926, 2892, 2897, 2925, 2961, 2933, 2940, 2929, 2912, 2918, 2913, 2937, 2927, 2908, 2906, 2895, 2908, 2912, 2898, 2927, 2944, 2915, 2931, 2907, 2883, 2924, 2929, 2929, 2917, 2940, 2949, 2944, 2916, 2917, 2907, 2905, 2954, 2895, 2928, 2928, 2907, 2902, 2922, 2925, 2929, 2921, 2962, 2978, 2924, 2921, 2935, 2936, 2916, 2965, 2937, 2924, 2883, 2911, 2923, 2905, 2935, 2902, 2918, 2877, 2960, 2929, 2912, 2932, 2941, 2936, 2955, 2948, 2940, 2932, 2932, 2938, 2959, 2932, 2945, 2954, 2984, 2928, 2969, 2942, 2960, 2929, 2925, 2939, 2927, 2935, 2939, 2934, 2962, 2928, 2932, 2952, 2960, 2949],
      "WindowCenter": [746.0, 744.0, 743.0, 743.0, 742.0, 741.0, 742.0, 744.0, 745.0, 744.0, 743.0, 743.0, 743.0, 743.0, 743.0, 743.0, 743.0, 742.0, 740.0, 741.0, 743.0, 744.0, 744.0, 743.0, 740.0, 738.0, 740.0, 741.0, 743.0, 740.0, 738.0, 738.0, 738.0, 741.0, 740.0, 738.0, 740.0, 742.0, 742.0, 743.0, 741.0, 739.0, 738.0, 740.0, 742.0, 742.0, 741.0, 740.0, 739.0, 740.0, 742.0, 742.0, 743.0, 742.0, 742.0, 741.0, 741.0, 742.0, 743.0, 742.0, 739.0, 738.0, 738.0, 738.0, 741.0, 742.0, 743.0, 745.0, 746.0, 745.0, 742.0, 740.0, 740.0, 741.0, 741.0, 741.0, 738.0, 737.0, 738.0, 739.0, 742.0, 742.0, 741.0, 741.0, 741.0, 740.0, 738.0, 737.0, 738.0, 739.0, 740.0, 741.0, 743.0, 745.0, 744.0, 741.0, 739.0, 740.0, 741.0, 741.0, 740.0, 740.0, 740.0, 741.0, 744.0, 745.0, 743.0, 742.0, 739.0, 738.0, 738.0, 738.0, 740.0, 741.0, 743.0, 745.0, 746.0, 746.0, 746.0, 745.0, 746.0, 747.0, 747.0, 745.0, 743.0, 741.0, 739.0, 739.0, 739.0, 737.0, 739.0, 741.0, 742.0, 742.0, 742.0, 741.0, 739.0, 739.0, 740.0, 739.0, 740.0, 741.0, 743.0, 741.0, 741.0, 743.0, 743.0, 743.0, 743.0, 742.0, 742.0, 740.0, 741.0, 741.0, 740.0, 739.0],
      "WindowWidth": [1612.0, 1606.0, 1605.0, 1603.0, 1601.0, 1598.0, 1602.0, 1608.0, 1610.0, 1606.0, 1603.0, 1603.0, 1604.0, 1603.0, 1604.0, 1603.0, 1603.0, 1601.0, 1596.0, 1600.0, 1605.0, 1608.0, 1608.0, 1604.0, 1596.0, 1591.0, 1596.0, 1600.0, 1603.0, 1597.0, 1591.0, 1591.0, 1592.0, 1598.0, 1597.0, 1591.0, 1596.0, 1601.0, 1603.0, 1603.0, 1599.0, 1593.0, 1591.0, 1595.0, 1601.0, 1601.0, 1598.0, 1596.0, 1594.0, 1596.0, 1603.0, 1603.0, 1606.0, 1602.0, 1600.0, 1598.0, 1600.0, 1602.0, 1603.0, 1601.0, 1593.0, 1591.0, 1591.0, 1591.0, 1598.0, 1602.0, 1605.0, 1609.0, 1613.0, 1610.0, 1602.0, 1596.0, 1597.0, 1599.0, 1598.0, 1597.0, 1592.0, 1589.0, 1590.0, 1593.0, 1601.0, 1603.0, 1598.0, 1599.0, 1599.0, 1596.0, 1591.0, 1589.0, 1589.0, 1593.0, 1597.0, 1599.0, 1604.0, 1609.0, 1606.0, 1599.0, 1593.0, 1595.0, 1600.0, 1598.0, 1597.0, 1596.0, 1595.0, 1598.0, 1605.0, 1609.0, 1605.0, 1600.0, 1594.0, 1590.0, 1589.0, 1591.0, 1595.0, 1600.0, 1605.0, 1609.0, 1614.0, 1613.0, 1614.0, 1611.0, 1614.0, 1615.0, 1615.0, 1608.0, 1604.0, 1598.0, 1593.0, 1593.0, 1592.0, 1589.0, 1593.0, 1599.0, 1601.0, 1600.0, 1600.0, 1598.0, 1593.0, 1593.0, 1595.0, 1594.0, 1597.0, 1600.0, 1604.0, 1600.0, 1599.0, 1604.0, 1605.0, 1604.0, 1605.0, 1602.0, 1602.0, 1597.0, 1598.0, 1599.0, 1597.0, 1594.0]
    },
    "slices": {}
  }
}