{
  "AcquisitionMatrixPE": 100,
  "AcquisitionNumber": 1,
  "AcquisitionTime": "16:58:41.770000",
  "BandwidthPerPixelPhaseEncode": 18.519,
  "BaseResolution": 100,
  "BodyPartExamined": "BRAIN",
  "CoilCombinationMethod": "Sum of Squares",
  "ConsistencyInfo": "N4_VE11C_LATEST_20160120",
  "ConversionSoftware": "dcm2niix",
  "ConversionSoftwareVersion": "v1.0.20211006",
  "DerivedVendorReportedEchoSpacing": 0.000539986,
  "DeviceSerialNumber": "166078",
  "DwellTime": 2.1e-06,
  "EchoTime": 0.034,
  "EchoTrainLength": 100,
  "EffectiveEchoSpacing": 0.000539986,
  "FlipAngle": 90,
  "ImageOrientationPatientDICOM": [0.999877, -0.00385315, -0.0152274, 2.82793e-08, 0.969445, -0.245307],
  "ImageOrientationText": "Tra>Cor(-14.2)>Sag(-0.9)",
  "ImageType": [
    "ORIGINAL",
    "PRIMARY",
    "M",
    "ND",
    "MOSAIC"
],
  "ImagingFrequency": 123.258,
  "InPlanePhaseEncodingDirectionDICOM": "COL",
  "InstitutionAddress": "Street StreetNo,Bei Jing,District,CN,ZIP",
  "InstitutionName": "BeiJing Normal University",
  "InstitutionalDepartmentName": "Department",
  "MRAcquisitionType": "2D",
  "MagneticFieldStrength": 3,
  "Manufacturer": "Siemens",
  "ManufacturersModelName": "Prisma",
  "Modality": "MR",
  "MultibandAccelerationFactor": 3,
  "PartialFourier": 1,
  "PatientPosition": "HFS",
  "PercentPhaseFOV": 100,
  "PercentSampling": 100,
  "PhaseEncodingDirection": "j-",
  "PhaseEncodingSteps": 100,
  "PhaseResolution": 1,
  "PixelBandwidth": 2380,
  "ProcedureStepDescription": "BNU_P2018_64CH^Zhen.ZongLei",
  "ProtocolName": "bold_100x100_s3_2x2x2_static_156",
  "PulseSequenceDetails": "%SiemensSeq%\\ep2d_bold",
  "ReceiveCoilActiveElements": "HC1-7;NC1",
  "ReceiveCoilName": "HeadNeck_64",
  "ReconMatrixPE": 100,
  "RefLinesPE": 32,
  "RepetitionTime": 2,
  "SAR": 0.085349,
  "ScanOptions": "FS",
  "ScanningSequence": "EP",
  "SequenceName": "*epfid2d1_100",
  "SequenceVariant": "SK",
  "SeriesDescription": "bold_100x100_s3_2x2x2_static_156",
  "SeriesNumber": 16,
  "ShimSetting": [-5461, -11516, -1214, 408, -14, -257, -17, 71],
  "SliceThickness": 2,
  "SliceTiming": [1.4825, 0, 0.9875, 0.0825, 1.07, 0.165, 1.1525, 0.2475, 1.235, 0.33, 1.3175, 0.4125, 1.4, 0.575, 1.565, 0.6575, 1.6475, 0.74, 1.73, 0.8225, 1.8125, 0.905, 1.895, 0.4925, 1.4825, 0, 0.9875, 0.0825, 1.07, 0.165, 1.1525, 0.2475, 1.235, 0.33, 1.3175, 0.4125, 1.4, 0.575, 1.565, 0.6575, 1.6475, 0.74, 1.73, 0.8225, 1.8125, 0.905, 1.895, 0.4925, 1.4825, 0, 0.9875, 0.0825, 1.07, 0.165, 1.1525, 0.2475, 1.235, 0.33, 1.3175, 0.4125, 1.4, 0.575, 1.565, 0.6575, 1.6475, 0.74, 1.73, 0.8225, 1.8125, 0.905, 1.895, 0.4925],
  "SoftwareVersions": "syngo MR E11",
  "SpacingBetweenSlices": 2,
  "StationName": "AWP166078",
  "TaskName": "action",
  "TotalReadoutTime": 0.0534586,
  "TxRefAmp": 254.386,
  "dcmmeta_affine": [
    [-1.9997532367706299, 5.6558612016033294e-08, -0.03141465410590172, 101.1028823852539],
    [0.007706301286816597, 1.9388906955718994, -0.4905542731285095, -75.41454315185547],
    [-0.03045477531850338, 0.49061480164527893, 1.938651442527771, -78.94242095947266],
    [0.0, 0.0, 0.0, 1.0]
],
  "dcmmeta_reorient_transform": [
    [0.0, -1.0, 0.0, 99.0],
    [1.0, 0.0, 0.0, 0.0],
    [0.0, 0.0, 1.0, 0.0],
    [0.0, 0.0, 0.0, 1.0]
],
  "dcmmeta_shape": [100, 100, 72, 156],
  "dcmmeta_slice_dim": 2,
  "dcmmeta_version": 0.6,
  "global": {
    "const": {
      "AcquisitionMatrix": [100, 0, 0, 100],
      "AngioFlag": "N",
      "BitsAllocated": 16,
      "BitsStored": 12,
      "BodyPartExamined": "BRAIN",
      "Columns": 900,
      "EchoNumbers": 1,
      "EchoTime": 34.0,
      "EchoTrainLength": 100,
      "FlipAngle": 90.0,
      "HighBit": 11,
      "ImageOrientationPatient": [0.99987663233824, -0.0038531507434, -0.0152273876053, 2.8279306e-08, 0.96944534759021, -0.2453073949878],
      "ImagePositionPatient": [-901.00421402963, -889.009396611, 178.05627076443],
      "ImageType": [
        "ORIGINAL",
        "PRIMARY",
        "M",
        "ND",
        "MOSAIC"
],
      "ImagedNucleus": "1H",
      "ImagingFrequency": 123.257687,
      "InPlanePhaseEncodingDirection": "COL",
      "MRAcquisitionType": "2D",
      "MagneticFieldStrength": 3.0,
      "Manufacturer": "SIEMENS",
      "ManufacturerModelName": "Prisma",
      "Modality": "MR",
      "NumberOfAverages": 1.0,
      "NumberOfPhaseEncodingSteps": 100,
      "PercentPhaseFieldOfView": 100.0,
      "PercentSampling": 100.0,
      "PerformedProcedureStepStartTime": "154549.336000",
      "PhotometricInterpretation": "MONOCHROME2",
      "PixelBandwidth": 2380.0,
      "PixelRepresentation": 0,
      "PixelSpacing": [2.0, 2.0],
      "ProtocolName": "bold_100x100_s3_2x2x2_static_156",
      "RepetitionTime": 2000.0,
      "Rows": 900,
      "SAR": 0.08534904778381,
      "SamplesPerPixel": 1,
      "ScanOptions": "FS",
      "ScanningSequence": "EP",
      "SequenceName": "*epfid2d1_100",
      "SequenceVariant": "SK",
      "SeriesDescription": "bold_100x100_s3_2x2x2_static_156",
      "SeriesNumber": 16,
      "SeriesTime": "165844.386000",
      "SliceLocation": -59.611513932321,
      "SliceThickness": 2.0,
      "SmallestImagePixelValue": 0,
      "SoftwareVersions": "syngo MR E11",
      "SpacingBetweenSlices": 1.9999999975851,
      "SpecificCharacterSet": "ISO_IR 100",
      "StudyID": "1",
      "StudyTime": "154549.241000",
      "TransmitCoilName": "Body",
      "VariableFlipAngleFlag": "N",
      "WindowCenterWidthExplanation": "Algo1",
      "dBdt": 0.0},
    "slices": {}
  },
  "time": {
    "samples": {
      "AcquisitionNumber": [1, 2, 3, 4, 5, 6, 7, 8, 9, 10, 11, 12, 13, 14, 15, 16, 17, 18, 19, 20, 21, 22, 23, 24, 25, 26, 27, 28, 29, 30, 31, 32, 33, 34, 35, 36, 37, 38, 39, 40, 41, 42, 43, 44, 45, 46, 47, 48, 49, 50, 51, 52, 53, 54, 55, 56, 57, 58, 59, 60, 61, 62, 63, 64, 65, 66, 67, 68, 69, 70, 71, 72, 73, 74, 75, 76, 77, 78, 79, 80, 81, 82, 83, 84, 85, 86, 87, 88, 89, 90, 91, 92, 93, 94, 95, 96, 97, 98, 99, 100, 101, 102, 103, 104, 105, 106, 107, 108, 109, 110, 111, 112, 113, 114, 115, 116, 117, 118, 119, 120, 121, 122, 123, 124, 125, 126, 127, 128, 129, 130, 131, 132, 133, 134, 135, 136, 137, 138, 139, 140, 141, 142, 143, 144, 145, 146, 147, 148, 149, 150, 151, 152, 153, 154, 155, 156],
      "AcquisitionTime": ["165841.770000", "165843.770000", "165845.770000", "165847.770000", "165849.770000", "165851.770000", "165853.770000", "165855.770000", "165857.770000", "165859.770000", "165901.770000", "165903.770000", "165905.770000", "165907.770000", "165909.770000", "165911.770000", "165913.770000", "165915.770000", "165917.770000", "165919.770000", "165921.770000", "165923.770000", "165925.770000", "165927.770000", "165929.770000", "165931.770000", "165933.770000", "165935.770000", "165937.770000", "165939.770000", "165941.770000", "165943.770000", "165945.770000", "165947.770000", "165949.770000", "165951.770000", "165953.770000", "165955.770000", "165957.770000", "165959.770000", "170001.770000", "170003.770000", "170005.770000", "170007.770000", "170009.770000", "170011.770000", "170013.770000", "170015.770000", "170017.770000", "170019.770000", "170021.770000", "170023.770000", "170025.770000", "170027.770000", "170029.770000", "170031.770000", "170033.770000", "170035.770000", "170037.770000", "170039.770000", "170041.770000", "170043.770000", "170045.770000", "170047.770000", "170049.770000", "170051.770000", "170053.770000", "170055.770000", "170057.770000", "170059.770000", "170101.770000", "170103.770000", "170105.770000", "170107.770000", "170109.770000", "170111.770000", "170113.770000", "170115.770000", "170117.770000", "170119.770000", "170121.770000", "170123.770000", "170125.770000", "170127.770000", "170129.770000", "170131.770000", "170133.770000", "170135.770000", "170137.770000", "170139.770000", "170141.770000", "170143.770000", "170145.770000", "170147.770000", "170149.770000", "170151.770000", "170153.770000", "170155.770000", "170157.770000", "170159.770000", "170201.770000", "170203.770000", "170205.770000", "170207.770000", "170209.770000", "170211.770000", "170213.770000", "170215.770000", "170217.770000", "170219.770000", "170221.770000", "170223.770000", "170225.770000", "170227.770000", "170229.770000", "170231.770000", "170233.770000", "170235.770000", "170237.770000", "170239.770000", "170241.770000", "170243.770000", "170245.770000", "170247.770000", "170249.770000", "170251.770000", "170253.770000", "170255.770000", "170257.770000", "170259.770000", "170301.770000", "170303.770000", "170305.770000", "170307.770000", "170309.770000", "170311.770000", "170313.770000", "170315.770000", "170317.770000", "170319.770000", "170321.770000", "170323.770000", "170325.770000", "170327.770000", "170329.770000", "170331.770000", "170333.770000", "170335.770000", "170337.770000", "170339.770000", "170341.770000", "170343.770000", "170345.770000", "170347.770000", "170349.770000", "170351.770000"],
      "ContentTime": ["165844.390000", "165845.886000", "165847.886000", "165849.887000", "165851.887000", "165853.887000", "165855.887000", "165857.887000", "165859.887000", "165901.886000", "165903.886000", "165905.886000", "165907.887000", "165909.887000", "165911.887000", "165913.887000", "165915.887000", "165917.886000", "165919.886000", "165921.886000", "165923.887000", "165925.887000", "165927.887000", "165929.887000", "165931.887000", "165933.886000", "165935.886000", "165937.886000", "165939.886000", "165941.887000", "165943.887000", "165945.887000", "165947.887000", "165949.886000", "165951.887000", "165953.885000", "165955.886000", "165957.886000", "165959.887000", "170001.907000", "170003.887000", "170005.886000", "170007.886000", "170009.886000", "170011.886000", "170013.886000", "170015.886000", "170017.887000", "170019.887000", "170021.886000", "170023.887000", "170025.887000", "170027.886000", "170029.886000", "170031.886000", "170033.887000", "170035.887000", "170037.886000", "170039.886000", "170041.886000", "170043.886000", "170045.886000", "170047.886000", "170049.886000", "170051.906000", "170053.887000", "170055.887000", "170057.886000", "170059.886000", "170101.886000", "170103.886000", "170105.886000", "170107.885000", "170109.886000", "170111.886000", "170113.886000", "170115.886000", "170117.886000", "170119.886000", "170121.885000", "170123.886000", "170125.885000", "170127.886000", "170129.886000", "170131.886000", "170133.886000", "170135.887000", "170137.886000", "170139.886000", "170141.885000", "170143.886000", "170145.886000", "170147.887000", "170149.886000", "170151.887000", "170153.887000", "170155.906000", "170157.886000", "170159.886000", "170201.886000", "170203.887000", "170205.887000", "170207.887000", "170209.886000", "170211.886000", "170213.885000", "170215.885000", "170217.885000", "170219.886000", "170221.886000", "170223.886000", "170225.887000", "170227.887000", "170229.887000", "170231.885000", "170233.885000", "170235.886000", "170237.886000", "170239.886000", "170241.886000", "170243.887000", "170245.887000", "170247.885000", "170249.885000", "170251.885000", "170253.886000", "170255.886000", "170257.886000", "170259.886000", "170301.886000", "170303.886000", "170305.885000", "170307.885000", "170309.885000", "170311.886000", "170313.886000", "170315.886000", "170317.887000", "170319.886000", "170321.886000", "170323.885000", "170325.885000", "170327.885000", "170329.886000", "170331.886000", "170333.887000", "170335.886000", "170337.886000", "170339.886000", "170341.885000", "170343.885000", "170345.887000", "170347.886000", "170349.886000", "170351.887000", "170353.649000"],
      "InstanceCreationTime": ["165844.390000", "165845.886000", "165847.886000", "165849.887000", "165851.887000", "165853.887000", "165855.887000", "165857.887000", "165859.887000", "165901.886000", "165903.886000", "165905.886000", "165907.887000", "165909.887000", "165911.887000", "165913.887000", "165915.887000", "165917.886000", "165919.886000", "165921.886000", "165923.887000", "165925.887000", "165927.887000", "165929.887000", "165931.887000", "165933.886000", "165935.886000", "165937.886000", "165939.886000", "165941.887000", "165943.887000", "165945.887000", "165947.887000", "165949.886000", "165951.887000", "165953.885000", "165955.886000", "165957.886000", "165959.887000", "170001.907000", "170003.887000", "170005.886000", "170007.886000", "170009.886000", "170011.886000", "170013.886000", "170015.886000", "170017.887000", "170019.887000", "170021.886000", "170023.887000", "170025.887000", "170027.886000", "170029.886000", "170031.886000", "170033.887000", "170035.887000", "170037.886000", "170039.886000", "170041.886000", "170043.886000", "170045.886000", "170047.886000", "170049.886000", "170051.906000", "170053.887000", "170055.887000", "170057.886000", "170059.886000", "170101.886000", "170103.886000", "170105.886000", "170107.885000", "170109.886000", "170111.886000", "170113.886000", "170115.886000", "170117.886000", "170119.886000", "170121.885000", "170123.886000", "170125.885000", "170127.886000", "170129.886000", "170131.886000", "170133.886000", "170135.887000", "170137.886000", "170139.886000", "170141.885000", "170143.886000", "170145.886000", "170147.887000", "170149.886000", "170151.887000", "170153.887000", "170155.906000", "170157.886000", "170159.886000", "170201.886000", "170203.887000", "170205.887000", "170207.887000", "170209.886000", "170211.886000", "170213.885000", "170215.885000", "170217.885000", "170219.886000", "170221.886000", "170223.886000", "170225.887000", "170227.887000", "170229.887000", "170231.885000", "170233.885000", "170235.886000", "170237.886000", "170239.886000", "170241.886000", "170243.887000", "170245.887000", "170247.885000", "170249.885000", "170251.885000", "170253.886000", "170255.886000", "170257.886000", "170259.886000", "170301.886000", "170303.886000", "170305.885000", "170307.885000", "170309.885000", "170311.886000", "170313.886000", "170315.886000", "170317.887000", "170319.886000", "170321.886000", "170323.885000", "170325.885000", "170327.885000", "170329.886000", "170331.886000", "170333.887000", "170335.886000", "170337.886000", "170339.886000", "170341.885000", "170343.885000", "170345.887000", "170347.886000", "170349.886000", "170351.887000", "170353.649000"],
      "InstanceNumber": [1, 2, 3, 4, 5, 6, 7, 8, 9, 10, 11, 12, 13, 14, 15, 16, 17, 18, 19, 20, 21, 22, 23, 24, 25, 26, 27, 28, 29, 30, 31, 32, 33, 34, 35, 36, 37, 38, 39, 40, 41, 42, 43, 44, 45, 46, 47, 48, 49, 50, 51, 52, 53, 54, 55, 56, 57, 58, 59, 60, 61, 62, 63, 64, 65, 66, 67, 68, 69, 70, 71, 72, 73, 74, 75, 76, 77, 78, 79, 80, 81, 82, 83, 84, 85, 86, 87, 88, 89, 90, 91, 92, 93, 94, 95, 96, 97, 98, 99, 100, 101, 102, 103, 104, 105, 106, 107, 108, 109, 110, 111, 112, 113, 114, 115, 116, 117, 118, 119, 120, 121, 122, 123, 124, 125, 126, 127, 128, 129, 130, 131, 132, 133, 134, 135, 136, 137, 138, 139, 140, 141, 142, 143, 144, 145, 146, 147, 148, 149, 150, 151, 152, 153, 154, 155, 156],
      "LargestImagePixelValue": [3030, 2953, 3007, 2960, 2991, 2916, 2966, 2901, 2898, 2905, 2875, 2908, 2876, 2867, 2898, 2881, 2875, 2870, 2851, 2875, 2891, 2870, 2864, 2881, 2847, 2874, 2881, 2890, 2885, 2884, 2890, 2866, 2905, 2962, 3005, 2957, 2970, 2924, 2890, 3055, 2889, 2904, 2897, 2884, 2918, 2876, 2892, 2907, 2903, 2873, 2902, 2904, 2903, 2875, 2912, 2904, 2938, 3010, 2926, 2927, 2902, 2947, 2916, 2882, 2924, 2913, 2930, 3030, 3037, 2999, 2979, 2913, 2951, 2946, 2965, 3007, 2939, 2884, 2946, 2941, 2932, 2967, 2922, 2919, 2937, 2937, 2954, 2913, 2901, 2902, 2910, 2935, 2969, 2933, 2928, 2934, 2913, 2926, 2945, 2909, 2938, 2916, 2940, 2973, 2978, 2961, 2977, 3133, 2963, 2941, 3103, 2942, 2946, 2975, 2909, 2892, 2891, 2928, 2956, 2962, 3046, 2966, 2997, 2993, 2981, 2960, 2921, 2929, 2911, 2946, 2943, 2923, 2973, 2990, 3100, 2912, 2934, 2882, 2897, 2932, 2920, 2946, 2927, 2964, 3009, 2942, 2922, 2904, 2922, 2933, 2937, 2885, 2915, 2951, 2914, 2914],
      "WindowCenter": [777.0, 775.0, 775.0, 773.0, 773.0, 773.0, 774.0, 773.0, 774.0, 774.0, 775.0, 774.0, 773.0, 773.0, 773.0, 773.0, 773.0, 773.0, 773.0, 775.0, 775.0, 775.0, 776.0, 778.0, 777.0, 776.0, 775.0, 774.0, 772.0, 771.0, 771.0, 771.0, 771.0, 773.0, 775.0, 777.0, 778.0, 779.0, 778.0, 778.0, 774.0, 774.0, 773.0, 772.0, 772.0, 772.0, 771.0, 771.0, 771.0, 770.0, 770.0, 771.0, 771.0, 770.0, 770.0, 771.0, 772.0, 775.0, 777.0, 777.0, 776.0, 775.0, 775.0, 774.0, 774.0, 773.0, 773.0, 773.0, 774.0, 776.0, 778.0, 779.0, 779.0, 777.0, 774.0, 774.0, 774.0, 772.0, 772.0, 771.0, 770.0, 770.0, 769.0, 769.0, 770.0, 771.0, 773.0, 776.0, 777.0, 777.0, 775.0, 774.0, 774.0, 774.0, 775.0, 776.0, 775.0, 775.0, 775.0, 773.0, 773.0, 773.0, 772.0, 773.0, 772.0, 772.0, 772.0, 774.0, 775.0, 776.0, 778.0, 775.0, 775.0, 776.0, 777.0, 778.0, 777.0, 775.0, 774.0, 774.0, 774.0, 772.0, 772.0, 773.0, 774.0, 776.0, 776.0, 775.0, 773.0, 772.0, 771.0, 770.0, 771.0, 772.0, 775.0, 776.0, 776.0, 775.0, 773.0, 772.0, 772.0, 772.0, 771.0, 772.0, 773.0, 774.0, 777.0, 777.0, 775.0, 774.0, 775.0, 775.0, 774.0, 773.0, 773.0, 772.0],
      "WindowWidth": [1654.0, 1648.0, 1647.0, 1643.0, 1642.0, 1643.0, 1645.0, 1644.0, 1646.0, 1647.0, 1647.0, 1647.0, 1644.0, 1642.0, 1644.0, 1643.0, 1642.0, 1644.0, 1644.0, 1647.0, 1649.0, 1649.0, 1651.0, 1655.0, 1653.0, 1650.0, 1648.0, 1645.0, 1641.0, 1639.0, 1639.0, 1637.0, 1639.0, 1642.0, 1647.0, 1652.0, 1656.0, 1658.0, 1657.0, 1656.0, 1647.0, 1646.0, 1642.0, 1641.0, 1641.0, 1641.0, 1640.0, 1640.0, 1640.0, 1637.0, 1637.0, 1638.0, 1638.0, 1637.0, 1636.0, 1637.0, 1640.0, 1647.0, 1653.0, 1654.0, 1650.0, 1647.0, 1648.0, 1646.0, 1646.0, 1644.0, 1642.0, 1642.0, 1646.0, 1650.0, 1654.0, 1659.0, 1660.0, 1655.0, 1647.0, 1646.0, 1645.0, 1641.0, 1640.0, 1637.0, 1637.0, 1637.0, 1635.0, 1635.0, 1635.0, 1638.0, 1643.0, 1649.0, 1654.0, 1653.0, 1647.0, 1644.0, 1645.0, 1647.0, 1649.0, 1651.0, 1649.0, 1649.0, 1648.0, 1645.0, 1645.0, 1643.0, 1641.0, 1642.0, 1641.0, 1640.0, 1640.0, 1645.0, 1647.0, 1651.0, 1655.0, 1648.0, 1648.0, 1651.0, 1654.0, 1657.0, 1654.0, 1649.0, 1646.0, 1645.0, 1646.0, 1642.0, 1640.0, 1643.0, 1645.0, 1650.0, 1651.0, 1647.0, 1643.0, 1641.0, 1639.0, 1636.0, 1639.0, 1641.0, 1647.0, 1649.0, 1651.0, 1648.0, 1643.0, 1641.0, 1641.0, 1642.0, 1639.0, 1639.0, 1642.0, 1646.0, 1653.0, 1654.0, 1649.0, 1645.0, 1647.0, 1647.0, 1646.0, 1643.0, 1641.0, 1640.0]
    },
    "slices": {}
  }
}