{
  "AcquisitionMatrixPE": 100,
  "AcquisitionNumber": 1,
  "AcquisitionTime": "15:54:27.597500",
  "BandwidthPerPixelPhaseEncode": 18.519,
  "BaseResolution": 100,
  "BodyPartExamined": "BRAIN",
  "CoilCombinationMethod": "Sum of Squares",
  "ConsistencyInfo": "N4_VE11C_LATEST_20160120",
  "ConversionSoftware": "dcm2niix",
  "ConversionSoftwareVersion": "v1.0.20211006",
  "DerivedVendorReportedEchoSpacing": 0.000539986,
  "DeviceSerialNumber": "166078",
  "DwellTime": 2.1e-06,
  "EchoTime": 0.034,
  "EchoTrainLength": 100,
  "EffectiveEchoSpacing": 0.000539986,
  "FlipAngle": 90,
  "ImageOrientationPatientDICOM": [0.999877, -0.00385315, -0.0152274, 2.82793e-08, 0.969445, -0.245307],
  "ImageOrientationText": "Tra>Cor(-14.2)>Sag(-0.9)",
  "ImageType": [
    "ORIGINAL",
    "PRIMARY",
    "M",
    "ND",
    "MOSAIC"
],
  "ImagingFrequency": 123.258,
  "InPlanePhaseEncodingDirectionDICOM": "COL",
  "InstitutionAddress": "Street StreetNo,Bei Jing,District,CN,ZIP",
  "InstitutionName": "BeiJing Normal University",
  "InstitutionalDepartmentName": "Department",
  "MRAcquisitionType": "2D",
  "MagneticFieldStrength": 3,
  "Manufacturer": "Siemens",
  "ManufacturersModelName": "Prisma",
  "Modality": "MR",
  "MultibandAccelerationFactor": 3,
  "PartialFourier": 1,
  "PatientPosition": "HFS",
  "PercentPhaseFOV": 100,
  "PercentSampling": 100,
  "PhaseEncodingDirection": "j-",
  "PhaseEncodingSteps": 100,
  "PhaseResolution": 1,
  "PixelBandwidth": 2380,
  "ProcedureStepDescription": "BNU_P2018_64CH^Zhen.ZongLei",
  "ProtocolName": "bold_100x100_s3_2x2x2_static_156",
  "PulseSequenceDetails": "%SiemensSeq%\\ep2d_bold",
  "ReceiveCoilActiveElements": "HC1-7;NC1",
  "ReceiveCoilName": "HeadNeck_64",
  "ReconMatrixPE": 100,
  "RefLinesPE": 32,
  "RepetitionTime": 2,
  "SAR": 0.085349,
  "ScanOptions": "FS",
  "ScanningSequence": "EP",
  "SequenceName": "*epfid2d1_100",
  "SequenceVariant": "SK",
  "SeriesDescription": "bold_100x100_s3_2x2x2_static_156",
  "SeriesNumber": 4,
  "ShimSetting": [-5461, -11516, -1214, 408, -14, -257, -17, 71],
  "SliceThickness": 2,
  "SliceTiming": [1.485, 0, 0.99, 0.0825, 1.0725, 0.165, 1.155, 0.2475, 1.2375, 0.33, 1.32, 0.4125, 1.4025, 0.5775, 1.5675, 0.66, 1.65, 0.7425, 1.7325, 0.825, 1.815, 0.9075, 1.8975, 0.495, 1.485, 0, 0.99, 0.0825, 1.0725, 0.165, 1.155, 0.2475, 1.2375, 0.33, 1.32, 0.4125, 1.4025, 0.5775, 1.5675, 0.66, 1.65, 0.7425, 1.7325, 0.825, 1.815, 0.9075, 1.8975, 0.495, 1.485, 0, 0.99, 0.0825, 1.0725, 0.165, 1.155, 0.2475, 1.2375, 0.33, 1.32, 0.4125, 1.4025, 0.5775, 1.5675, 0.66, 1.65, 0.7425, 1.7325, 0.825, 1.815, 0.9075, 1.8975, 0.495],
  "SoftwareVersions": "syngo MR E11",
  "SpacingBetweenSlices": 2,
  "StationName": "AWP166078",
  "TaskName": "action",
  "TotalReadoutTime": 0.0534586,
  "TxRefAmp": 254.386,
  "dcmmeta_affine": [
    [-1.9997532367706299, 5.6558612016033294e-08, -0.03141465410590172, 101.1028823852539],
    [0.007706301286816597, 1.9388906955718994, -0.4905542731285095, -75.41454315185547],
    [-0.03045477531850338, 0.49061480164527893, 1.938651442527771, -78.94242095947266],
    [0.0, 0.0, 0.0, 1.0]
],
  "dcmmeta_reorient_transform": [
    [0.0, -1.0, 0.0, 99.0],
    [1.0, 0.0, 0.0, 0.0],
    [0.0, 0.0, 1.0, 0.0],
    [0.0, 0.0, 0.0, 1.0]
],
  "dcmmeta_shape": [100, 100, 72, 156],
  "dcmmeta_slice_dim": 2,
  "dcmmeta_version": 0.6,
  "global": {
    "const": {
      "AcquisitionMatrix": [100, 0, 0, 100],
      "AngioFlag": "N",
      "BitsAllocated": 16,
      "BitsStored": 12,
      "BodyPartExamined": "BRAIN",
      "Columns": 900,
      "EchoNumbers": 1,
      "EchoTime": 34.0,
      "EchoTrainLength": 100,
      "FlipAngle": 90.0,
      "HighBit": 11,
      "ImageOrientationPatient": [0.99987663233824, -0.0038531507434, -0.0152273876053, 2.8279306e-08, 0.96944534759021, -0.2453073949878],
      "ImagePositionPatient": [-901.00421402963, -889.009396611, 178.05627076443],
      "ImageType": [
        "ORIGINAL",
        "PRIMARY",
        "M",
        "ND",
        "MOSAIC"
],
      "ImagedNucleus": "1H",
      "ImagingFrequency": 123.25767,
      "InPlanePhaseEncodingDirection": "COL",
      "MRAcquisitionType": "2D",
      "MagneticFieldStrength": 3.0,
      "Manufacturer": "SIEMENS",
      "ManufacturerModelName": "Prisma",
      "Modality": "MR",
      "NumberOfAverages": 1.0,
      "NumberOfPhaseEncodingSteps": 100,
      "PercentPhaseFieldOfView": 100.0,
      "PercentSampling": 100.0,
      "PerformedProcedureStepStartTime": "154549.336000",
      "PhotometricInterpretation": "MONOCHROME2",
      "PixelBandwidth": 2380.0,
      "PixelRepresentation": 0,
      "PixelSpacing": [2.0, 2.0],
      "ProtocolName": "bold_100x100_s3_2x2x2_static_156",
      "RepetitionTime": 2000.0,
      "Rows": 900,
      "SAR": 0.08534904778381,
      "SamplesPerPixel": 1,
      "ScanOptions": "FS",
      "ScanningSequence": "EP",
      "SequenceName": "*epfid2d1_100",
      "SequenceVariant": "SK",
      "SeriesDescription": "bold_100x100_s3_2x2x2_static_156",
      "SeriesNumber": 4,
      "SeriesTime": "155430.078000",
      "SliceLocation": -59.611513932321,
      "SliceThickness": 2.0,
      "SmallestImagePixelValue": 0,
      "SoftwareVersions": "syngo MR E11",
      "SpacingBetweenSlices": 1.9999999975851,
      "SpecificCharacterSet": "ISO_IR 100",
      "StudyID": "1",
      "StudyTime": "154549.241000",
      "TransmitCoilName": "Body",
      "VariableFlipAngleFlag": "N",
      "WindowCenterWidthExplanation": "Algo1",
      "dBdt": 0.0},
    "slices": {}
  },
  "time": {
    "samples": {
      "AcquisitionNumber": [1, 2, 3, 4, 5, 6, 7, 8, 9, 10, 11, 12, 13, 14, 15, 16, 17, 18, 19, 20, 21, 22, 23, 24, 25, 26, 27, 28, 29, 30, 31, 32, 33, 34, 35, 36, 37, 38, 39, 40, 41, 42, 43, 44, 45, 46, 47, 48, 49, 50, 51, 52, 53, 54, 55, 56, 57, 58, 59, 60, 61, 62, 63, 64, 65, 66, 67, 68, 69, 70, 71, 72, 73, 74, 75, 76, 77, 78, 79, 80, 81, 82, 83, 84, 85, 86, 87, 88, 89, 90, 91, 92, 93, 94, 95, 96, 97, 98, 99, 100, 101, 102, 103, 104, 105, 106, 107, 108, 109, 110, 111, 112, 113, 114, 115, 116, 117, 118, 119, 120, 121, 122, 123, 124, 125, 126, 127, 128, 129, 130, 131, 132, 133, 134, 135, 136, 137, 138, 139, 140, 141, 142, 143, 144, 145, 146, 147, 148, 149, 150, 151, 152, 153, 154, 155, 156],
      "AcquisitionTime": ["155427.597500", "155429.597500", "155431.597500", "155433.597500", "155435.597500", "155437.597500", "155439.597500", "155441.597500", "155443.597500", "155445.597500", "155447.597500", "155449.597500", "155451.597500", "155453.597500", "155455.597500", "155457.597500", "155459.597500", "155501.597500", "155503.597500", "155505.597500", "155507.597500", "155509.597500", "155511.597500", "155513.597500", "155515.597500", "155517.597500", "155519.597500", "155521.597500", "155523.597500", "155525.597500", "155527.597500", "155529.597500", "155531.597500", "155533.597500", "155535.597500", "155537.597500", "155539.597500", "155541.597500", "155543.597500", "155545.597500", "155547.597500", "155549.597500", "155551.597500", "155553.597500", "155555.597500", "155557.597500", "155559.597500", "155601.597500", "155603.597500", "155605.597500", "155607.597500", "155609.597500", "155611.597500", "155613.597500", "155615.597500", "155617.597500", "155619.597500", "155621.597500", "155623.597500", "155625.597500", "155627.597500", "155629.597500", "155631.597500", "155633.597500", "155635.597500", "155637.597500", "155639.597500", "155641.597500", "155643.597500", "155645.597500", "155647.597500", "155649.597500", "155651.597500", "155653.597500", "155655.597500", "155657.597500", "155659.597500", "155701.597500", "155703.597500", "155705.597500", "155707.597500", "155709.597500", "155711.597500", "155713.597500", "155715.597500", "155717.597500", "155719.597500", "155721.597500", "155723.597500", "155725.597500", "155727.597500", "155729.597500", "155731.597500", "155733.597500", "155735.597500", "155737.597500", "155739.597500", "155741.597500", "155743.597500", "155745.597500", "155747.597500", "155749.597500", "155751.597500", "155753.597500", "155755.597500", "155757.597500", "155759.597500", "155801.597500", "155803.597500", "155805.597500", "155807.597500", "155809.597500", "155811.597500", "155813.597500", "155815.597500", "155817.597500", "155819.597500", "155821.597500", "155823.597500", "155825.597500", "155827.597500", "155829.597500", "155831.597500", "155833.597500", "155835.597500", "155837.597500", "155839.597500", "155841.597500", "155843.597500", "155845.597500", "155847.597500", "155849.597500", "155851.597500", "155853.597500", "155855.597500", "155857.597500", "155859.597500", "155901.597500", "155903.597500", "155905.597500", "155907.597500", "155909.597500", "155911.597500", "155913.597500", "155915.597500", "155917.597500", "155919.597500", "155921.597500", "155923.597500", "155925.597500", "155927.597500", "155929.597500", "155931.597500", "155933.597500", "155935.597500", "155937.597500"],
      "ContentTime": ["155430.081000", "155431.561000", "155433.562000", "155435.562000", "155437.561000", "155439.560000", "155441.560000", "155443.562000", "155445.562000", "155447.561000", "155449.561000", "155451.562000", "155453.561000", "155455.560000", "155457.560000", "155459.560000", "155501.561000", "155503.561000", "155505.561000", "155507.561000", "155509.561000", "155511.561000", "155513.561000", "155515.561000", "155517.562000", "155519.562000", "155521.561000", "155523.562000", "155525.561000", "155527.561000", "155529.560000", "155531.561000", "155533.561000", "155535.562000", "155537.562000", "155539.562000", "155541.562000", "155543.562000", "155545.563000", "155547.560000", "155549.560000", "155551.560000", "155553.562000", "155555.561000", "155557.562000", "155559.562000", "155601.561000", "155603.562000", "155605.560000", "155607.561000", "155609.561000", "155611.562000", "155613.562000", "155615.562000", "155617.562000", "155619.562000", "155621.561000", "155623.560000", "155625.561000", "155627.562000", "155629.561000", "155631.561000", "155633.561000", "155635.562000", "155637.561000", "155639.561000", "155641.061000", "155643.561000", "155645.561000", "155647.562000", "155649.561000", "155651.562000", "155653.562000", "155655.561000", "155657.560000", "155659.561000", "155701.561000", "155703.562000", "155705.562000", "155707.562000", "155709.562000", "155711.561000", "155713.562000", "155715.561000", "155717.560000", "155719.560000", "155721.562000", "155723.561000", "155725.562000", "155727.561000", "155729.561000", "155731.561000", "155733.560000", "155735.560000", "155737.561000", "155739.561000", "155741.561000", "155743.561000", "155745.561000", "155747.561000", "155749.561000", "155751.560000", "155753.560000", "155755.561000", "155757.561000", "155759.561000", "155801.561000", "155803.562000", "155805.561000", "155807.561000", "155809.560000", "155811.561000", "155813.562000", "155815.562000", "155817.561000", "155819.562000", "155821.562000", "155823.562000", "155825.560000", "155827.561000", "155829.562000", "155831.562000", "155833.561000", "155835.561000", "155837.562000", "155839.562000", "155841.562000", "155843.560000", "155845.560000", "155847.562000", "155849.562000", "155851.562000", "155853.562000", "155855.562000", "155857.562000", "155859.560000", "155901.561000", "155903.561000", "155905.562000", "155907.562000", "155909.562000", "155911.561000", "155913.562000", "155915.562000", "155917.561000", "155919.560000", "155921.561000", "155923.562000", "155925.562000", "155927.562000", "155929.562000", "155931.562000", "155933.562000", "155935.561000", "155937.561000", "155939.180000"],
      "InstanceCreationTime": ["155430.081000", "155431.561000", "155433.562000", "155435.562000", "155437.561000", "155439.560000", "155441.560000", "155443.562000", "155445.562000", "155447.561000", "155449.561000", "155451.562000", "155453.561000", "155455.560000", "155457.560000", "155459.560000", "155501.561000", "155503.561000", "155505.561000", "155507.561000", "155509.561000", "155511.561000", "155513.561000", "155515.561000", "155517.562000", "155519.562000", "155521.561000", "155523.562000", "155525.561000", "155527.561000", "155529.560000", "155531.561000", "155533.561000", "155535.562000", "155537.562000", "155539.562000", "155541.562000", "155543.562000", "155545.563000", "155547.560000", "155549.560000", "155551.560000", "155553.562000", "155555.561000", "155557.562000", "155559.562000", "155601.561000", "155603.562000", "155605.560000", "155607.561000", "155609.561000", "155611.562000", "155613.562000", "155615.562000", "155617.562000", "155619.562000", "155621.561000", "155623.560000", "155625.561000", "155627.562000", "155629.561000", "155631.561000", "155633.561000", "155635.562000", "155637.561000", "155639.561000", "155641.061000", "155643.561000", "155645.561000", "155647.562000", "155649.561000", "155651.562000", "155653.562000", "155655.561000", "155657.560000", "155659.561000", "155701.561000", "155703.562000", "155705.562000", "155707.562000", "155709.562000", "155711.561000", "155713.562000", "155715.561000", "155717.560000", "155719.560000", "155721.562000", "155723.561000", "155725.562000", "155727.561000", "155729.561000", "155731.561000", "155733.560000", "155735.560000", "155737.561000", "155739.561000", "155741.561000", "155743.561000", "155745.561000", "155747.561000", "155749.561000", "155751.560000", "155753.560000", "155755.561000", "155757.561000", "155759.561000", "155801.561000", "155803.562000", "155805.561000", "155807.561000", "155809.560000", "155811.561000", "155813.562000", "155815.562000", "155817.561000", "155819.562000", "155821.562000", "155823.562000", "155825.560000", "155827.561000", "155829.562000", "155831.562000", "155833.561000", "155835.561000", "155837.562000", "155839.562000", "155841.562000", "155843.560000", "155845.560000", "155847.562000", "155849.562000", "155851.562000", "155853.562000", "155855.562000", "155857.562000", "155859.560000", "155901.561000", "155903.561000", "155905.562000", "155907.562000", "155909.562000", "155911.561000", "155913.562000", "155915.562000", "155917.561000", "155919.560000", "155921.561000", "155923.562000", "155925.562000", "155927.562000", "155929.562000", "155931.562000", "155933.562000", "155935.561000", "155937.561000", "155939.180000"],
      "InstanceNumber": [1, 2, 3, 4, 5, 6, 7, 8, 9, 10, 11, 12, 13, 14, 15, 16, 17, 18, 19, 20, 21, 22, 23, 24, 25, 26, 27, 28, 29, 30, 31, 32, 33, 34, 35, 36, 37, 38, 39, 40, 41, 42, 43, 44, 45, 46, 47, 48, 49, 50, 51, 52, 53, 54, 55, 56, 57, 58, 59, 60, 61, 62, 63, 64, 65, 66, 67, 68, 69, 70, 71, 72, 73, 74, 75, 76, 77, 78, 79, 80, 81, 82, 83, 84, 85, 86, 87, 88, 89, 90, 91, 92, 93, 94, 95, 96, 97, 98, 99, 100, 101, 102, 103, 104, 105, 106, 107, 108, 109, 110, 111, 112, 113, 114, 115, 116, 117, 118, 119, 120, 121, 122, 123, 124, 125, 126, 127, 128, 129, 130, 131, 132, 133, 134, 135, 136, 137, 138, 139, 140, 141, 142, 143, 144, 145, 146, 147, 148, 149, 150, 151, 152, 153, 154, 155, 156],
      "LargestImagePixelValue": [3637, 3550, 3510, 3509, 3487, 3517, 3513, 3505, 3568, 3524, 3557, 3553, 3540, 3570, 3561, 3569, 3577, 3558, 3546, 3572, 3538, 3544, 3589, 3539, 3540, 3577, 3554, 3572, 3596, 3587, 3602, 3533, 3570, 3559, 3569, 3559, 3581, 3572, 3576, 3608, 3590, 3557, 3568, 3619, 3584, 3579, 3556, 3556, 3607, 3604, 3597, 3557, 3564, 3593, 3604, 3600, 3551, 3550, 3534, 3566, 3576, 3540, 3583, 3586, 3620, 3594, 3540, 3541, 3593, 3595, 3570, 3592, 3589, 3571, 3584, 3602, 3623, 3619, 3640, 3579, 3587, 3605, 3616, 3618, 3606, 3623, 3654, 3514, 3486, 3526, 3545, 3496, 3464, 3504, 3517, 3519, 3565, 3537, 3495, 3525, 3542, 3550, 3534, 3543, 3580, 3549, 3578, 3542, 3550, 3511, 3531, 3535, 3574, 3542, 3529, 3584, 3558, 3528, 3551, 3584, 3608, 3615, 3595, 3632, 3588, 3586, 3550, 3528, 3545, 3509, 3557, 3594, 3590, 3593, 3561, 3635, 3617, 3585, 3622, 3606, 3562, 3562, 3607, 3582, 3573, 3583, 3576, 3569, 3570, 3563, 3560, 3659, 3577, 3550, 3571, 3523],
      "WindowCenter": [805.0, 803.0, 802.0, 802.0, 803.0, 805.0, 804.0, 804.0, 803.0, 803.0, 804.0, 804.0, 803.0, 803.0, 804.0, 803.0, 804.0, 805.0, 805.0, 805.0, 805.0, 804.0, 805.0, 805.0, 805.0, 805.0, 804.0, 803.0, 804.0, 806.0, 806.0, 805.0, 804.0, 804.0, 804.0, 803.0, 803.0, 802.0, 802.0, 800.0, 800.0, 800.0, 800.0, 800.0, 801.0, 802.0, 802.0, 803.0, 803.0, 804.0, 805.0, 805.0, 806.0, 806.0, 805.0, 805.0, 805.0, 805.0, 806.0, 805.0, 804.0, 803.0, 803.0, 804.0, 807.0, 807.0, 804.0, 802.0, 802.0, 801.0, 800.0, 800.0, 800.0, 800.0, 800.0, 801.0, 801.0, 802.0, 802.0, 803.0, 804.0, 804.0, 805.0, 806.0, 807.0, 807.0, 804.0, 804.0, 804.0, 803.0, 802.0, 801.0, 800.0, 800.0, 799.0, 799.0, 799.0, 798.0, 799.0, 800.0, 801.0, 802.0, 803.0, 803.0, 804.0, 803.0, 803.0, 801.0, 800.0, 801.0, 803.0, 804.0, 803.0, 801.0, 799.0, 799.0, 799.0, 801.0, 804.0, 804.0, 803.0, 802.0, 802.0, 801.0, 801.0, 800.0, 801.0, 802.0, 805.0, 805.0, 804.0, 803.0, 803.0, 805.0, 806.0, 809.0, 808.0, 805.0, 802.0, 801.0, 800.0, 799.0, 799.0, 799.0, 799.0, 799.0, 800.0, 800.0, 800.0, 802.0, 803.0, 803.0, 804.0, 806.0, 808.0, 806.0],
      "WindowWidth": [1731.0, 1725.0, 1723.0, 1724.0, 1724.0, 1730.0, 1728.0, 1727.0, 1727.0, 1726.0, 1727.0, 1727.0, 1725.0, 1725.0, 1727.0, 1726.0, 1727.0, 1729.0, 1729.0, 1730.0, 1730.0, 1729.0, 1730.0, 1730.0, 1731.0, 1731.0, 1727.0, 1726.0, 1729.0, 1734.0, 1735.0, 1730.0, 1729.0, 1729.0, 1729.0, 1727.0, 1725.0, 1723.0, 1722.0, 1719.0, 1718.0, 1717.0, 1717.0, 1719.0, 1720.0, 1722.0, 1724.0, 1725.0, 1727.0, 1727.0, 1730.0, 1731.0, 1732.0, 1732.0, 1732.0, 1731.0, 1731.0, 1732.0, 1732.0, 1731.0, 1728.0, 1725.0, 1725.0, 1727.0, 1736.0, 1736.0, 1727.0, 1722.0, 1723.0, 1719.0, 1717.0, 1717.0, 1717.0, 1717.0, 1718.0, 1719.0, 1721.0, 1723.0, 1724.0, 1724.0, 1727.0, 1728.0, 1730.0, 1732.0, 1735.0, 1736.0, 1728.0, 1727.0, 1728.0, 1726.0, 1723.0, 1719.0, 1717.0, 1716.0, 1714.0, 1713.0, 1713.0, 1712.0, 1714.0, 1717.0, 1720.0, 1723.0, 1725.0, 1726.0, 1727.0, 1724.0, 1724.0, 1721.0, 1718.0, 1718.0, 1725.0, 1728.0, 1725.0, 1719.0, 1714.0, 1715.0, 1714.0, 1720.0, 1728.0, 1727.0, 1723.0, 1722.0, 1721.0, 1721.0, 1718.0, 1718.0, 1719.0, 1724.0, 1731.0, 1732.0, 1728.0, 1724.0, 1725.0, 1730.0, 1734.0, 1741.0, 1739.0, 1730.0, 1723.0, 1718.0, 1717.0, 1714.0, 1713.0, 1713.0, 1714.0, 1715.0, 1718.0, 1716.0, 1718.0, 1721.0, 1724.0, 1725.0, 1727.0, 1733.0, 1738.0, 1733.0]
    },
    "slices": {}
  }
}