{
  "AcquisitionMatrixPE": 100,
  "AcquisitionNumber": 1,
  "AcquisitionTime": "16:35:10.007500",
  "BandwidthPerPixelPhaseEncode": 18.519,
  "BaseResolution": 100,
  "BodyPartExamined": "BRAIN",
  "CoilCombinationMethod": "Sum of Squares",
  "ConsistencyInfo": "N4_VE11C_LATEST_20160120",
  "ConversionSoftware": "dcm2niix",
  "ConversionSoftwareVersion": "v1.0.20211006",
  "DerivedVendorReportedEchoSpacing": 0.000539986,
  "DeviceSerialNumber": "166078",
  "DwellTime": 2.1e-06,
  "EchoTime": 0.034,
  "EchoTrainLength": 100,
  "EffectiveEchoSpacing": 0.000539986,
  "FlipAngle": 90,
  "ImageOrientationPatientDICOM": [0.999877, -0.00385315, -0.0152274, 2.82793e-08, 0.969445, -0.245307],
  "ImageOrientationText": "Tra>Cor(-14.2)>Sag(-0.9)",
  "ImageType": [
    "ORIGINAL",
    "PRIMARY",
    "M",
    "ND",
    "MOSAIC"
],
  "ImagingFrequency": 123.258,
  "InPlanePhaseEncodingDirectionDICOM": "COL",
  "InstitutionAddress": "Street StreetNo,Bei Jing,District,CN,ZIP",
  "InstitutionName": "BeiJing Normal University",
  "InstitutionalDepartmentName": "Department",
  "MRAcquisitionType": "2D",
  "MagneticFieldStrength": 3,
  "Manufacturer": "Siemens",
  "ManufacturersModelName": "Prisma",
  "Modality": "MR",
  "MultibandAccelerationFactor": 3,
  "PartialFourier": 1,
  "PatientPosition": "HFS",
  "PercentPhaseFOV": 100,
  "PercentSampling": 100,
  "PhaseEncodingDirection": "j-",
  "PhaseEncodingSteps": 100,
  "PhaseResolution": 1,
  "PixelBandwidth": 2380,
  "ProcedureStepDescription": "BNU_P2018_64CH^Zhen.ZongLei",
  "ProtocolName": "bold_100x100_s3_2x2x2_static_156",
  "PulseSequenceDetails": "%SiemensSeq%\\ep2d_bold",
  "ReceiveCoilActiveElements": "HC1-7;NC1",
  "ReceiveCoilName": "HeadNeck_64",
  "ReconMatrixPE": 100,
  "RefLinesPE": 32,
  "RepetitionTime": 2,
  "SAR": 0.085349,
  "ScanOptions": "FS",
  "ScanningSequence": "EP",
  "SequenceName": "*epfid2d1_100",
  "SequenceVariant": "SK",
  "SeriesDescription": "bold_100x100_s3_2x2x2_static_156",
  "SeriesNumber": 12,
  "ShimSetting": [-5461, -11516, -1214, 408, -14, -257, -17, 71],
  "SliceThickness": 2,
  "SliceTiming": [1.485, 0, 0.99, 0.0825, 1.0725, 0.165, 1.155, 0.2475, 1.2375, 0.33, 1.32, 0.4125, 1.4025, 0.5775, 1.5675, 0.66, 1.65, 0.7425, 1.7325, 0.825, 1.815, 0.9075, 1.8975, 0.495, 1.485, 0, 0.99, 0.0825, 1.0725, 0.165, 1.155, 0.2475, 1.2375, 0.33, 1.32, 0.4125, 1.4025, 0.5775, 1.5675, 0.66, 1.65, 0.7425, 1.7325, 0.825, 1.815, 0.9075, 1.8975, 0.495, 1.485, 0, 0.99, 0.0825, 1.0725, 0.165, 1.155, 0.2475, 1.2375, 0.33, 1.32, 0.4125, 1.4025, 0.5775, 1.5675, 0.66, 1.65, 0.7425, 1.7325, 0.825, 1.815, 0.9075, 1.8975, 0.495],
  "SoftwareVersions": "syngo MR E11",
  "SpacingBetweenSlices": 2,
  "StationName": "AWP166078",
  "TaskName": "action",
  "TotalReadoutTime": 0.0534586,
  "TxRefAmp": 254.386,
  "dcmmeta_affine": [
    [-1.9997532367706299, 5.6558612016033294e-08, -0.03141465410590172, 101.1028823852539],
    [0.007706301286816597, 1.9388906955718994, -0.4905542731285095, -75.41454315185547],
    [-0.03045477531850338, 0.49061480164527893, 1.938651442527771, -78.94242095947266],
    [0.0, 0.0, 0.0, 1.0]
],
  "dcmmeta_reorient_transform": [
    [0.0, -1.0, 0.0, 99.0],
    [1.0, 0.0, 0.0, 0.0],
    [0.0, 0.0, 1.0, 0.0],
    [0.0, 0.0, 0.0, 1.0]
],
  "dcmmeta_shape": [100, 100, 72, 156],
  "dcmmeta_slice_dim": 2,
  "dcmmeta_version": 0.6,
  "global": {
    "const": {
      "AcquisitionMatrix": [100, 0, 0, 100],
      "AngioFlag": "N",
      "BitsAllocated": 16,
      "BitsStored": 12,
      "BodyPartExamined": "BRAIN",
      "Columns": 900,
      "EchoNumbers": 1,
      "EchoTime": 34.0,
      "EchoTrainLength": 100,
      "FlipAngle": 90.0,
      "HighBit": 11,
      "ImageOrientationPatient": [0.99987663233824, -0.0038531507434, -0.0152273876053, 2.8279306e-08, 0.96944534759021, -0.2453073949878],
      "ImagePositionPatient": [-901.00421402963, -889.009396611, 178.05627076443],
      "ImageType": [
        "ORIGINAL",
        "PRIMARY",
        "M",
        "ND",
        "MOSAIC"
],
      "ImagedNucleus": "1H",
      "ImagingFrequency": 123.257676,
      "InPlanePhaseEncodingDirection": "COL",
      "MRAcquisitionType": "2D",
      "MagneticFieldStrength": 3.0,
      "Manufacturer": "SIEMENS",
      "ManufacturerModelName": "Prisma",
      "Modality": "MR",
      "NumberOfAverages": 1.0,
      "NumberOfPhaseEncodingSteps": 100,
      "PercentPhaseFieldOfView": 100.0,
      "PercentSampling": 100.0,
      "PerformedProcedureStepStartTime": "154549.336000",
      "PhotometricInterpretation": "MONOCHROME2",
      "PixelBandwidth": 2380.0,
      "PixelRepresentation": 0,
      "PixelSpacing": [2.0, 2.0],
      "ProtocolName": "bold_100x100_s3_2x2x2_static_156",
      "RepetitionTime": 2000.0,
      "Rows": 900,
      "SAR": 0.08534904778381,
      "SamplesPerPixel": 1,
      "ScanOptions": "FS",
      "ScanningSequence": "EP",
      "SequenceName": "*epfid2d1_100",
      "SequenceVariant": "SK",
      "SeriesDescription": "bold_100x100_s3_2x2x2_static_156",
      "SeriesNumber": 12,
      "SeriesTime": "163512.988000",
      "SliceLocation": -59.611513932321,
      "SliceThickness": 2.0,
      "SmallestImagePixelValue": 0,
      "SoftwareVersions": "syngo MR E11",
      "SpacingBetweenSlices": 1.9999999975851,
      "SpecificCharacterSet": "ISO_IR 100",
      "StudyID": "1",
      "StudyTime": "154549.241000",
      "TransmitCoilName": "Body",
      "VariableFlipAngleFlag": "N",
      "WindowCenterWidthExplanation": "Algo1",
      "dBdt": 0.0},
    "slices": {}
  },
  "time": {
    "samples": {
      "AcquisitionNumber": [1, 2, 3, 4, 5, 6, 7, 8, 9, 10, 11, 12, 13, 14, 15, 16, 17, 18, 19, 20, 21, 22, 23, 24, 25, 26, 27, 28, 29, 30, 31, 32, 33, 34, 35, 36, 37, 38, 39, 40, 41, 42, 43, 44, 45, 46, 47, 48, 49, 50, 51, 52, 53, 54, 55, 56, 57, 58, 59, 60, 61, 62, 63, 64, 65, 66, 67, 68, 69, 70, 71, 72, 73, 74, 75, 76, 77, 78, 79, 80, 81, 82, 83, 84, 85, 86, 87, 88, 89, 90, 91, 92, 93, 94, 95, 96, 97, 98, 99, 100, 101, 102, 103, 104, 105, 106, 107, 108, 109, 110, 111, 112, 113, 114, 115, 116, 117, 118, 119, 120, 121, 122, 123, 124, 125, 126, 127, 128, 129, 130, 131, 132, 133, 134, 135, 136, 137, 138, 139, 140, 141, 142, 143, 144, 145, 146, 147, 148, 149, 150, 151, 152, 153, 154, 155, 156],
      "AcquisitionTime": ["163510.007500", "163512.007500", "163514.007500", "163516.007500", "163518.007500", "163520.007500", "163522.007500", "163524.007500", "163526.007500", "163528.007500", "163530.007500", "163532.007500", "163534.007500", "163536.007500", "163538.007500", "163540.007500", "163542.007500", "163544.007500", "163546.007500", "163548.007500", "163550.007500", "163552.007500", "163554.007500", "163556.007500", "163558.007500", "163600.007500", "163602.007500", "163604.007500", "163606.007500", "163608.007500", "163610.007500", "163612.007500", "163614.007500", "163616.007500", "163618.007500", "163620.007500", "163622.007500", "163624.007500", "163626.007500", "163628.007500", "163630.007500", "163632.007500", "163634.007500", "163636.007500", "163638.007500", "163640.007500", "163642.007500", "163644.007500", "163646.007500", "163648.007500", "163650.007500", "163652.007500", "163654.007500", "163656.007500", "163658.007500", "163700.007500", "163702.007500", "163704.007500", "163706.007500", "163708.007500", "163710.007500", "163712.007500", "163714.007500", "163716.007500", "163718.007500", "163720.007500", "163722.007500", "163724.007500", "163726.007500", "163728.007500", "163730.007500", "163732.007500", "163734.007500", "163736.007500", "163738.007500", "163740.007500", "163742.007500", "163744.007500", "163746.007500", "163748.007500", "163750.007500", "163752.007500", "163754.007500", "163756.007500", "163758.007500", "163800.007500", "163802.007500", "163804.007500", "163806.007500", "163808.007500", "163810.007500", "163812.007500", "163814.007500", "163816.007500", "163818.007500", "163820.007500", "163822.007500", "163824.007500", "163826.007500", "163828.007500", "163830.007500", "163832.007500", "163834.007500", "163836.007500", "163838.007500", "163840.007500", "163842.007500", "163844.007500", "163846.007500", "163848.007500", "163850.007500", "163852.007500", "163854.007500", "163856.007500", "163858.007500", "163900.007500", "163902.007500", "163904.007500", "163906.007500", "163908.007500", "163910.007500", "163912.007500", "163914.007500", "163916.007500", "163918.007500", "163920.007500", "163922.007500", "163924.007500", "163926.007500", "163928.007500", "163930.007500", "163932.007500", "163934.007500", "163936.007500", "163938.007500", "163940.007500", "163942.007500", "163944.007500", "163946.007500", "163948.007500", "163950.007500", "163952.007500", "163954.007500", "163956.007500", "163958.007500", "164000.007500", "164002.007500", "164004.007500", "164006.007500", "164008.007500", "164010.007500", "164012.007500", "164014.007500", "164016.007500", "164018.007500", "164020.007500"],
      "ContentTime": ["163512.992000", "163513.988000", "163516.487000", "163518.488000", "163520.488000", "163522.486000", "163523.986000", "163525.987000", "163527.986000", "163530.487000", "163531.987000", "163533.987000", "163535.988000", "163537.987000", "163539.987000", "163541.986000", "163544.487000", "163545.986000", "163548.488000", "163549.987000", "163552.488000", "163554.487000", "163556.488000", "163558.487000", "163600.486000", "163602.486000", "163604.486000", "163605.987000", "163608.487000", "163610.488000", "163612.488000", "163613.987000", "163615.987000", "163617.986000", "163620.486000", "163622.487000", "163623.987000", "163626.488000", "163628.487000", "163630.488000", "163631.987000", "163634.486000", "163636.487000", "163637.986000", "163639.988000", "163642.487000", "163643.987000", "163646.487000", "163648.487000", "163650.486000", "163652.487000", "163654.486000", "163655.987000", "163657.988000", "163700.488000", "163702.488000", "163704.488000", "163705.987000", "163708.487000", "163710.486000", "163712.487000", "163714.487000", "163716.488000", "163717.988000", "163720.487000", "163722.487000", "163724.487000", "163726.487000", "163728.487000", "163730.486000", "163732.487000", "163734.487000", "163735.988000", "163738.487000", "163739.987000", "163741.987000", "163744.486000", "163746.487000", "163748.487000", "163749.987000", "163751.987000", "163754.488000", "163755.988000", "163757.987000", "163800.486000", "163802.487000", "163804.486000", "163806.486000", "163807.988000", "163810.487000", "163812.487000", "163813.987000", "163815.988000", "163817.987000", "163819.986000", "163822.487000", "163823.987000", "163826.488000", "163827.987000", "163830.488000", "163832.487000", "163834.486000", "163836.486000", "163837.987000", "163840.486000", "163842.487000", "163844.488000", "163846.488000", "163848.487000", "163850.487000", "163852.487000", "163853.986000", "163856.487000", "163858.487000", "163859.987000", "163902.487000", "163903.988000", "163906.488000", "163908.487000", "163910.486000", "163912.486000", "163913.987000", "163915.986000", "163918.487000", "163920.487000", "163922.488000", "163924.488000", "163925.987000", "163928.487000", "163930.487000", "163932.486000", "163934.486000", "163936.488000", "163937.988000", "163940.488000", "163942.487000", "163943.987000", "163946.487000", "163947.986000", "163950.486000", "163952.488000", "163954.488000", "163956.487000", "163958.488000", "163959.988000", "164002.486000", "164003.986000", "164006.486000", "164007.986000", "164009.987000", "164011.988000", "164014.487000", "164016.487000", "164018.487000", "164020.487000", "164022.033000"],
      "InstanceCreationTime": ["163512.992000", "163513.988000", "163516.487000", "163518.488000", "163520.488000", "163522.486000", "163523.986000", "163525.987000", "163527.986000", "163530.487000", "163531.987000", "163533.987000", "163535.988000", "163537.987000", "163539.987000", "163541.986000", "163544.487000", "163545.986000", "163548.488000", "163549.987000", "163552.488000", "163554.487000", "163556.488000", "163558.487000", "163600.486000", "163602.486000", "163604.486000", "163605.987000", "163608.487000", "163610.488000", "163612.488000", "163613.987000", "163615.987000", "163617.986000", "163620.486000", "163622.487000", "163623.987000", "163626.488000", "163628.487000", "163630.488000", "163631.987000", "163634.486000", "163636.487000", "163637.986000", "163639.988000", "163642.487000", "163643.987000", "163646.487000", "163648.487000", "163650.486000", "163652.487000", "163654.486000", "163655.987000", "163657.988000", "163700.488000", "163702.488000", "163704.488000", "163705.987000", "163708.487000", "163710.486000", "163712.487000", "163714.487000", "163716.488000", "163717.988000", "163720.487000", "163722.487000", "163724.487000", "163726.487000", "163728.487000", "163730.486000", "163732.487000", "163734.487000", "163735.988000", "163738.487000", "163739.987000", "163741.987000", "163744.486000", "163746.487000", "163748.487000", "163749.987000", "163751.987000", "163754.488000", "163755.988000", "163757.987000", "163800.486000", "163802.487000", "163804.486000", "163806.486000", "163807.988000", "163810.487000", "163812.487000", "163813.987000", "163815.988000", "163817.987000", "163819.986000", "163822.487000", "163823.987000", "163826.488000", "163827.987000", "163830.488000", "163832.487000", "163834.486000", "163836.486000", "163837.987000", "163840.486000", "163842.487000", "163844.488000", "163846.488000", "163848.487000", "163850.487000", "163852.487000", "163853.986000", "163856.487000", "163858.487000", "163859.987000", "163902.487000", "163903.988000", "163906.488000", "163908.487000", "163910.486000", "163912.486000", "163913.987000", "163915.986000", "163918.487000", "163920.487000", "163922.488000", "163924.488000", "163925.987000", "163928.487000", "163930.487000", "163932.486000", "163934.486000", "163936.488000", "163937.988000", "163940.488000", "163942.487000", "163943.987000", "163946.487000", "163947.986000", "163950.486000", "163952.488000", "163954.488000", "163956.487000", "163958.488000", "163959.988000", "164002.486000", "164003.986000", "164006.486000", "164007.986000", "164009.987000", "164011.988000", "164014.487000", "164016.487000", "164018.487000", "164020.487000", "164022.033000"],
      "InstanceNumber": [1, 2, 3, 4, 5, 6, 7, 8, 9, 10, 11, 12, 13, 14, 15, 16, 17, 18, 19, 20, 21, 22, 23, 24, 25, 26, 27, 28, 29, 30, 31, 32, 33, 34, 35, 36, 37, 38, 39, 40, 41, 42, 43, 44, 45, 46, 47, 48, 49, 50, 51, 52, 53, 54, 55, 56, 57, 58, 59, 60, 61, 62, 63, 64, 65, 66, 67, 68, 69, 70, 71, 72, 73, 74, 75, 76, 77, 78, 79, 80, 81, 82, 83, 84, 85, 86, 87, 88, 89, 90, 91, 92, 93, 94, 95, 96, 97, 98, 99, 100, 101, 102, 103, 104, 105, 106, 107, 108, 109, 110, 111, 112, 113, 114, 115, 116, 117, 118, 119, 120, 121, 122, 123, 124, 125, 126, 127, 128, 129, 130, 131, 132, 133, 134, 135, 136, 137, 138, 139, 140, 141, 142, 143, 144, 145, 146, 147, 148, 149, 150, 151, 152, 153, 154, 155, 156],
      "LargestImagePixelValue": [3289, 3205, 3247, 3207, 3242, 3248, 3242, 3280, 3205, 3212, 3244, 3185, 3220, 3223, 3223, 3169, 3191, 3172, 3183, 3174, 3165, 3125, 3149, 3155, 3142, 3188, 3152, 3170, 3173, 3171, 3184, 3183, 3174, 3136, 3190, 3192, 3183, 3148, 3155, 3176, 3142, 3207, 3231, 3192, 3186, 3184, 3173, 3172, 3201, 3220, 3194, 3218, 3186, 3214, 3183, 3255, 3242, 3216, 3196, 3229, 3212, 3193, 3239, 3242, 3152, 3091, 3171, 3134, 3158, 3122, 3135, 3159, 3200, 3177, 3182, 3233, 3192, 3224, 3226, 3267, 3232, 3191, 3201, 3188, 3191, 3186, 3186, 3137, 3160, 3168, 3173, 3189, 3229, 3230, 3209, 3230, 3227, 3217, 3217, 3201, 3177, 3260, 3256, 3256, 3218, 3205, 3188, 3127, 3199, 3187, 3159, 3190, 3206, 3134, 3147, 3193, 3177, 3168, 3169, 3075, 3043, 3106, 3131, 3077, 3138, 3119, 3143, 3195, 3152, 3154, 3160, 3164, 3180, 3132, 3172, 3153, 3148, 3141, 3171, 3166, 3154, 3156, 3150, 3043, 3125, 3142, 3133, 3114, 3119, 3172, 3057, 3054, 3135, 3138, 3133, 3151],
      "WindowCenter": [786.0, 784.0, 784.0, 783.0, 783.0, 783.0, 784.0, 785.0, 786.0, 786.0, 786.0, 785.0, 785.0, 785.0, 785.0, 785.0, 786.0, 786.0, 787.0, 787.0, 788.0, 787.0, 788.0, 788.0, 787.0, 786.0, 785.0, 785.0, 784.0, 784.0, 784.0, 785.0, 786.0, 785.0, 785.0, 786.0, 786.0, 786.0, 787.0, 786.0, 786.0, 785.0, 785.0, 786.0, 787.0, 786.0, 785.0, 784.0, 785.0, 785.0, 786.0, 786.0, 785.0, 785.0, 783.0, 784.0, 785.0, 784.0, 785.0, 785.0, 785.0, 784.0, 784.0, 785.0, 785.0, 786.0, 789.0, 790.0, 791.0, 788.0, 786.0, 785.0, 785.0, 784.0, 783.0, 783.0, 783.0, 783.0, 784.0, 785.0, 786.0, 787.0, 786.0, 784.0, 785.0, 785.0, 787.0, 788.0, 790.0, 787.0, 785.0, 785.0, 785.0, 785.0, 784.0, 783.0, 782.0, 782.0, 785.0, 785.0, 784.0, 784.0, 782.0, 782.0, 783.0, 783.0, 784.0, 783.0, 784.0, 786.0, 787.0, 787.0, 786.0, 784.0, 784.0, 784.0, 783.0, 783.0, 783.0, 783.0, 786.0, 788.0, 789.0, 786.0, 786.0, 784.0, 783.0, 783.0, 783.0, 783.0, 782.0, 783.0, 784.0, 784.0, 786.0, 787.0, 787.0, 785.0, 784.0, 783.0, 783.0, 784.0, 784.0, 783.0, 785.0, 785.0, 784.0, 783.0, 784.0, 786.0, 786.0, 785.0, 784.0, 783.0, 784.0, 784.0],
      "WindowWidth": [1676.0, 1671.0, 1671.0, 1669.0, 1668.0, 1669.0, 1671.0, 1673.0, 1676.0, 1677.0, 1677.0, 1674.0, 1674.0, 1673.0, 1674.0, 1674.0, 1677.0, 1677.0, 1679.0, 1680.0, 1680.0, 1681.0, 1681.0, 1681.0, 1679.0, 1677.0, 1675.0, 1674.0, 1672.0, 1671.0, 1672.0, 1674.0, 1677.0, 1673.0, 1676.0, 1676.0, 1677.0, 1677.0, 1679.0, 1678.0, 1676.0, 1674.0, 1674.0, 1676.0, 1679.0, 1677.0, 1674.0, 1673.0, 1674.0, 1675.0, 1676.0, 1677.0, 1675.0, 1675.0, 1670.0, 1671.0, 1673.0, 1672.0, 1673.0, 1674.0, 1674.0, 1672.0, 1673.0, 1675.0, 1675.0, 1676.0, 1684.0, 1687.0, 1689.0, 1681.0, 1676.0, 1675.0, 1674.0, 1670.0, 1669.0, 1669.0, 1669.0, 1668.0, 1670.0, 1674.0, 1677.0, 1678.0, 1675.0, 1672.0, 1673.0, 1674.0, 1679.0, 1683.0, 1687.0, 1680.0, 1674.0, 1672.0, 1674.0, 1674.0, 1671.0, 1667.0, 1665.0, 1667.0, 1673.0, 1674.0, 1671.0, 1670.0, 1667.0, 1667.0, 1670.0, 1670.0, 1670.0, 1669.0, 1672.0, 1676.0, 1680.0, 1680.0, 1677.0, 1672.0, 1671.0, 1672.0, 1669.0, 1668.0, 1668.0, 1669.0, 1675.0, 1681.0, 1683.0, 1678.0, 1675.0, 1670.0, 1668.0, 1669.0, 1669.0, 1669.0, 1667.0, 1668.0, 1670.0, 1670.0, 1675.0, 1680.0, 1679.0, 1674.0, 1670.0, 1669.0, 1670.0, 1670.0, 1671.0, 1669.0, 1673.0, 1674.0, 1671.0, 1669.0, 1670.0, 1675.0, 1675.0, 1672.0, 1670.0, 1669.0, 1670.0, 1670.0]
    },
    "slices": {}
  }
}