{
  "AcquisitionMatrixPE": 100,
  "AcquisitionNumber": 1,
  "AcquisitionTime": "16:28:57.862500",
  "BandwidthPerPixelPhaseEncode": 18.519,
  "BaseResolution": 100,
  "BodyPartExamined": "BRAIN",
  "CoilCombinationMethod": "Sum of Squares",
  "ConsistencyInfo": "N4_VE11C_LATEST_20160120",
  "ConversionSoftware": "dcm2niix",
  "ConversionSoftwareVersion": "v1.0.20211006",
  "DerivedVendorReportedEchoSpacing": 0.000539986,
  "DeviceSerialNumber": "166078",
  "DwellTime": 2.1e-06,
  "EchoTime": 0.034,
  "EchoTrainLength": 100,
  "EffectiveEchoSpacing": 0.000539986,
  "FlipAngle": 90,
  "ImageOrientationPatientDICOM": [0.999877, -0.00385315, -0.0152274, 2.82793e-08, 0.969445, -0.245307],
  "ImageOrientationText": "Tra>Cor(-14.2)>Sag(-0.9)",
  "ImageType": [
    "ORIGINAL",
    "PRIMARY",
    "M",
    "ND",
    "MOSAIC"
],
  "ImagingFrequency": 123.258,
  "InPlanePhaseEncodingDirectionDICOM": "COL",
  "InstitutionAddress": "Street StreetNo,Bei Jing,District,CN,ZIP",
  "InstitutionName": "BeiJing Normal University",
  "InstitutionalDepartmentName": "Department",
  "MRAcquisitionType": "2D",
  "MagneticFieldStrength": 3,
  "Manufacturer": "Siemens",
  "ManufacturersModelName": "Prisma",
  "Modality": "MR",
  "MultibandAccelerationFactor": 3,
  "PartialFourier": 1,
  "PatientPosition": "HFS",
  "PercentPhaseFOV": 100,
  "PercentSampling": 100,
  "PhaseEncodingDirection": "j-",
  "PhaseEncodingSteps": 100,
  "PhaseResolution": 1,
  "PixelBandwidth": 2380,
  "ProcedureStepDescription": "BNU_P2018_64CH^Zhen.ZongLei",
  "ProtocolName": "bold_100x100_s3_2x2x2_static_156",
  "PulseSequenceDetails": "%SiemensSeq%\\ep2d_bold",
  "ReceiveCoilActiveElements": "HC1-7;NC1",
  "ReceiveCoilName": "HeadNeck_64",
  "ReconMatrixPE": 100,
  "RefLinesPE": 32,
  "RepetitionTime": 2,
  "SAR": 0.085349,
  "ScanOptions": "FS",
  "ScanningSequence": "EP",
  "SequenceName": "*epfid2d1_100",
  "SequenceVariant": "SK",
  "SeriesDescription": "bold_100x100_s3_2x2x2_static_156",
  "SeriesNumber": 11,
  "ShimSetting": [-5461, -11516, -1214, 408, -14, -257, -17, 71],
  "SliceThickness": 2,
  "SliceTiming": [1.485, 0, 0.99, 0.0825, 1.0725, 0.165, 1.155, 0.2475, 1.2375, 0.33, 1.32, 0.4125, 1.4025, 0.5775, 1.5675, 0.66, 1.65, 0.7425, 1.7325, 0.825, 1.815, 0.9075, 1.8975, 0.495, 1.485, 0, 0.99, 0.0825, 1.0725, 0.165, 1.155, 0.2475, 1.2375, 0.33, 1.32, 0.4125, 1.4025, 0.5775, 1.5675, 0.66, 1.65, 0.7425, 1.7325, 0.825, 1.815, 0.9075, 1.8975, 0.495, 1.485, 0, 0.99, 0.0825, 1.0725, 0.165, 1.155, 0.2475, 1.2375, 0.33, 1.32, 0.4125, 1.4025, 0.5775, 1.5675, 0.66, 1.65, 0.7425, 1.7325, 0.825, 1.815, 0.9075, 1.8975, 0.495],
  "SoftwareVersions": "syngo MR E11",
  "SpacingBetweenSlices": 2,
  "StationName": "AWP166078",
  "TaskName": "action",
  "TotalReadoutTime": 0.0534586,
  "TxRefAmp": 254.386,
  "dcmmeta_affine": [
    [-1.9997532367706299, 5.6558612016033294e-08, -0.03141465410590172, 101.1028823852539],
    [0.007706301286816597, 1.9388906955718994, -0.4905542731285095, -75.41454315185547],
    [-0.03045477531850338, 0.49061480164527893, 1.938651442527771, -78.94242095947266],
    [0.0, 0.0, 0.0, 1.0]
],
  "dcmmeta_reorient_transform": [
    [0.0, -1.0, 0.0, 99.0],
    [1.0, 0.0, 0.0, 0.0],
    [0.0, 0.0, 1.0, 0.0],
    [0.0, 0.0, 0.0, 1.0]
],
  "dcmmeta_shape": [100, 100, 72, 156],
  "dcmmeta_slice_dim": 2,
  "dcmmeta_version": 0.6,
  "global": {
    "const": {
      "AcquisitionMatrix": [100, 0, 0, 100],
      "AngioFlag": "N",
      "BitsAllocated": 16,
      "BitsStored": 12,
      "BodyPartExamined": "BRAIN",
      "Columns": 900,
      "EchoNumbers": 1,
      "EchoTime": 34.0,
      "EchoTrainLength": 100,
      "FlipAngle": 90.0,
      "HighBit": 11,
      "ImageOrientationPatient": [0.99987663233824, -0.0038531507434, -0.0152273876053, 2.8279306e-08, 0.96944534759021, -0.2453073949878],
      "ImagePositionPatient": [-901.00421402963, -889.009396611, 178.05627076443],
      "ImageType": [
        "ORIGINAL",
        "PRIMARY",
        "M",
        "ND",
        "MOSAIC"
],
      "ImagedNucleus": "1H",
      "ImagingFrequency": 123.257671,
      "InPlanePhaseEncodingDirection": "COL",
      "MRAcquisitionType": "2D",
      "MagneticFieldStrength": 3.0,
      "Manufacturer": "SIEMENS",
      "ManufacturerModelName": "Prisma",
      "Modality": "MR",
      "NumberOfAverages": 1.0,
      "NumberOfPhaseEncodingSteps": 100,
      "PercentPhaseFieldOfView": 100.0,
      "PercentSampling": 100.0,
      "PerformedProcedureStepStartTime": "154549.336000",
      "PhotometricInterpretation": "MONOCHROME2",
      "PixelBandwidth": 2380.0,
      "PixelRepresentation": 0,
      "PixelSpacing": [2.0, 2.0],
      "ProtocolName": "bold_100x100_s3_2x2x2_static_156",
      "RepetitionTime": 2000.0,
      "Rows": 900,
      "SAR": 0.08534904778381,
      "SamplesPerPixel": 1,
      "ScanOptions": "FS",
      "ScanningSequence": "EP",
      "SequenceName": "*epfid2d1_100",
      "SequenceVariant": "SK",
      "SeriesDescription": "bold_100x100_s3_2x2x2_static_156",
      "SeriesNumber": 11,
      "SeriesTime": "162900.340000",
      "SliceLocation": -59.611513932321,
      "SliceThickness": 2.0,
      "SmallestImagePixelValue": 0,
      "SoftwareVersions": "syngo MR E11",
      "SpacingBetweenSlices": 1.9999999975851,
      "SpecificCharacterSet": "ISO_IR 100",
      "StudyID": "1",
      "StudyTime": "154549.241000",
      "TransmitCoilName": "Body",
      "VariableFlipAngleFlag": "N",
      "WindowCenterWidthExplanation": "Algo1",
      "dBdt": 0.0},
    "slices": {}
  },
  "time": {
    "samples": {
      "AcquisitionNumber": [1, 2, 3, 4, 5, 6, 7, 8, 9, 10, 11, 12, 13, 14, 15, 16, 17, 18, 19, 20, 21, 22, 23, 24, 25, 26, 27, 28, 29, 30, 31, 32, 33, 34, 35, 36, 37, 38, 39, 40, 41, 42, 43, 44, 45, 46, 47, 48, 49, 50, 51, 52, 53, 54, 55, 56, 57, 58, 59, 60, 61, 62, 63, 64, 65, 66, 67, 68, 69, 70, 71, 72, 73, 74, 75, 76, 77, 78, 79, 80, 81, 82, 83, 84, 85, 86, 87, 88, 89, 90, 91, 92, 93, 94, 95, 96, 97, 98, 99, 100, 101, 102, 103, 104, 105, 106, 107, 108, 109, 110, 111, 112, 113, 114, 115, 116, 117, 118, 119, 120, 121, 122, 123, 124, 125, 126, 127, 128, 129, 130, 131, 132, 133, 134, 135, 136, 137, 138, 139, 140, 141, 142, 143, 144, 145, 146, 147, 148, 149, 150, 151, 152, 153, 154, 155, 156],
      "AcquisitionTime": ["162857.862500", "162859.862500", "162901.862500", "162903.862500", "162905.862500", "162907.862500", "162909.862500", "162911.862500", "162913.862500", "162915.862500", "162917.862500", "162919.862500", "162921.862500", "162923.862500", "162925.862500", "162927.862500", "162929.862500", "162931.862500", "162933.862500", "162935.862500", "162937.862500", "162939.862500", "162941.862500", "162943.862500", "162945.862500", "162947.862500", "162949.862500", "162951.862500", "162953.862500", "162955.862500", "162957.862500", "162959.862500", "163001.862500", "163003.862500", "163005.862500", "163007.862500", "163009.862500", "163011.862500", "163013.862500", "163015.862500", "163017.862500", "163019.862500", "163021.862500", "163023.862500", "163025.862500", "163027.862500", "163029.862500", "163031.862500", "163033.862500", "163035.862500", "163037.862500", "163039.862500", "163041.862500", "163043.862500", "163045.862500", "163047.862500", "163049.862500", "163051.862500", "163053.862500", "163055.862500", "163057.862500", "163059.862500", "163101.862500", "163103.862500", "163105.862500", "163107.862500", "163109.862500", "163111.862500", "163113.862500", "163115.862500", "163117.862500", "163119.862500", "163121.862500", "163123.862500", "163125.862500", "163127.862500", "163129.862500", "163131.862500", "163133.862500", "163135.862500", "163137.862500", "163139.862500", "163141.862500", "163143.862500", "163145.862500", "163147.862500", "163149.862500", "163151.862500", "163153.862500", "163155.862500", "163157.862500", "163159.862500", "163201.862500", "163203.862500", "163205.862500", "163207.862500", "163209.862500", "163211.862500", "163213.862500", "163215.862500", "163217.862500", "163219.862500", "163221.862500", "163223.862500", "163225.862500", "163227.862500", "163229.862500", "163231.862500", "163233.862500", "163235.862500", "163237.862500", "163239.862500", "163241.862500", "163243.862500", "163245.862500", "163247.862500", "163249.862500", "163251.862500", "163253.862500", "163255.862500", "163257.862500", "163259.862500", "163301.862500", "163303.862500", "163305.862500", "163307.862500", "163309.862500", "163311.862500", "163313.862500", "163315.862500", "163317.862500", "163319.862500", "163321.862500", "163323.862500", "163325.862500", "163327.862500", "163329.862500", "163331.862500", "163333.862500", "163335.862500", "163337.862500", "163339.862500", "163341.862500", "163343.862500", "163345.862500", "163347.862500", "163349.862500", "163351.862500", "163353.862500", "163355.862500", "163357.862500", "163359.862500", "163401.862500", "163403.862500", "163405.862500", "163407.862500"],
      "ContentTime": ["162900.343000", "162901.838000", "162903.837000", "162905.839000", "162907.838000", "162909.838000", "162911.839000", "162913.838000", "162915.838000", "162917.839000", "162919.838000", "162921.837000", "162923.838000", "162925.839000", "162927.838000", "162929.838000", "162931.839000", "162933.838000", "162935.838000", "162937.839000", "162939.838000", "162941.838000", "162943.838000", "162945.838000", "162947.839000", "162949.838000", "162951.838000", "162953.838000", "162955.839000", "162957.838000", "162959.838000", "163001.838000", "163003.839000", "163005.839000", "163007.839000", "163009.839000", "163011.839000", "163013.838000", "163015.839000", "163017.838000", "163019.839000", "163021.838000", "163023.839000", "163025.839000", "163027.838000", "163030.338000", "163031.838000", "163033.838000", "163035.839000", "163037.839000", "163039.838000", "163041.858000", "163043.839000", "163045.838000", "163047.839000", "163049.837000", "163051.839000", "163053.839000", "163055.839000", "163057.839000", "163059.838000", "163101.838000", "163103.838000", "163105.838000", "163107.838000", "163109.839000", "163111.838000", "163113.839000", "163115.838000", "163117.838000", "163119.839000", "163121.838000", "163123.837000", "163125.838000", "163127.838000", "163129.839000", "163131.838000", "163133.839000", "163135.838000", "163137.838000", "163139.839000", "163141.837000", "163143.838000", "163145.839000", "163147.838000", "163149.839000", "163151.839000", "163153.839000", "163155.839000", "163157.838000", "163159.838000", "163201.838000", "163203.839000", "163205.838000", "163207.839000", "163209.838000", "163211.839000", "163213.839000", "163215.839000", "163217.838000", "163219.839000", "163221.839000", "163223.839000", "163225.838000", "163227.838000", "163229.838000", "163231.839000", "163233.838000", "163235.839000", "163237.838000", "163239.839000", "163241.839000", "163243.838000", "163245.839000", "163247.839000", "163249.838000", "163251.838000", "163253.839000", "163255.838000", "163257.838000", "163259.838000", "163301.838000", "163303.838000", "163305.839000", "163307.839000", "163309.837000", "163311.838000", "163313.839000", "163315.839000", "163317.838000", "163319.838000", "163321.839000", "163323.839000", "163325.839000", "163327.839000", "163329.838000", "163331.838000", "163333.839000", "163335.839000", "163337.839000", "163339.839000", "163341.838000", "163343.837000", "163345.839000", "163347.839000", "163349.839000", "163351.838000", "163353.838000", "163355.838000", "163357.839000", "163359.838000", "163401.838000", "163403.839000", "163405.839000", "163407.839000", "163409.625000"],
      "InstanceCreationTime": ["162900.343000", "162901.838000", "162903.837000", "162905.839000", "162907.838000", "162909.838000", "162911.839000", "162913.838000", "162915.838000", "162917.839000", "162919.838000", "162921.837000", "162923.838000", "162925.839000", "162927.838000", "162929.838000", "162931.839000", "162933.838000", "162935.838000", "162937.839000", "162939.838000", "162941.838000", "162943.838000", "162945.838000", "162947.839000", "162949.838000", "162951.838000", "162953.838000", "162955.839000", "162957.838000", "162959.838000", "163001.838000", "163003.839000", "163005.839000", "163007.839000", "163009.839000", "163011.839000", "163013.838000", "163015.839000", "163017.838000", "163019.839000", "163021.838000", "163023.839000", "163025.839000", "163027.838000", "163030.338000", "163031.838000", "163033.838000", "163035.839000", "163037.839000", "163039.838000", "163041.858000", "163043.839000", "163045.838000", "163047.839000", "163049.837000", "163051.839000", "163053.839000", "163055.839000", "163057.839000", "163059.838000", "163101.838000", "163103.838000", "163105.838000", "163107.838000", "163109.839000", "163111.838000", "163113.839000", "163115.838000", "163117.838000", "163119.839000", "163121.838000", "163123.837000", "163125.838000", "163127.838000", "163129.839000", "163131.838000", "163133.839000", "163135.838000", "163137.838000", "163139.839000", "163141.837000", "163143.838000", "163145.839000", "163147.838000", "163149.839000", "163151.839000", "163153.839000", "163155.839000", "163157.838000", "163159.838000", "163201.838000", "163203.839000", "163205.838000", "163207.839000", "163209.838000", "163211.839000", "163213.839000", "163215.839000", "163217.838000", "163219.839000", "163221.839000", "163223.839000", "163225.838000", "163227.838000", "163229.838000", "163231.839000", "163233.838000", "163235.839000", "163237.838000", "163239.839000", "163241.839000", "163243.838000", "163245.839000", "163247.839000", "163249.838000", "163251.838000", "163253.839000", "163255.838000", "163257.838000", "163259.838000", "163301.838000", "163303.838000", "163305.839000", "163307.839000", "163309.837000", "163311.838000", "163313.839000", "163315.839000", "163317.838000", "163319.838000", "163321.839000", "163323.839000", "163325.839000", "163327.839000", "163329.838000", "163331.838000", "163333.839000", "163335.839000", "163337.839000", "163339.839000", "163341.838000", "163343.837000", "163345.839000", "163347.839000", "163349.839000", "163351.838000", "163353.838000", "163355.838000", "163357.839000", "163359.838000", "163401.838000", "163403.839000", "163405.839000", "163407.839000", "163409.625000"],
      "InstanceNumber": [1, 2, 3, 4, 5, 6, 7, 8, 9, 10, 11, 12, 13, 14, 15, 16, 17, 18, 19, 20, 21, 22, 23, 24, 25, 26, 27, 28, 29, 30, 31, 32, 33, 34, 35, 36, 37, 38, 39, 40, 41, 42, 43, 44, 45, 46, 47, 48, 49, 50, 51, 52, 53, 54, 55, 56, 57, 58, 59, 60, 61, 62, 63, 64, 65, 66, 67, 68, 69, 70, 71, 72, 73, 74, 75, 76, 77, 78, 79, 80, 81, 82, 83, 84, 85, 86, 87, 88, 89, 90, 91, 92, 93, 94, 95, 96, 97, 98, 99, 100, 101, 102, 103, 104, 105, 106, 107, 108, 109, 110, 111, 112, 113, 114, 115, 116, 117, 118, 119, 120, 121, 122, 123, 124, 125, 126, 127, 128, 129, 130, 131, 132, 133, 134, 135, 136, 137, 138, 139, 140, 141, 142, 143, 144, 145, 146, 147, 148, 149, 150, 151, 152, 153, 154, 155, 156],
      "LargestImagePixelValue": [3448, 3416, 3387, 3343, 3397, 3413, 3385, 3400, 3391, 3403, 3415, 3400, 3364, 3359, 3412, 3418, 3348, 3420, 3402, 3329, 3324, 3283, 3313, 3328, 3332, 3305, 3278, 3293, 3260, 3372, 3345, 3264, 3242, 3237, 3229, 3236, 3266, 3253, 3229, 3276, 3262, 3199, 3255, 3262, 3256, 3266, 3238, 3284, 3247, 3246, 3282, 3258, 3268, 3249, 3274, 3239, 3257, 3244, 3236, 3265, 3246, 3256, 3274, 3238, 3264, 3210, 3263, 3291, 3281, 3244, 3253, 3278, 3230, 3214, 3287, 3365, 3389, 3305, 3247, 3244, 3261, 3264, 3266, 3231, 3269, 3270, 3262, 3301, 3265, 3274, 3261, 3286, 3250, 3241, 3284, 3300, 3253, 3252, 3254, 3258, 3253, 3307, 3306, 3273, 3279, 3284, 3328, 3318, 3298, 3301, 3338, 3305, 3283, 3302, 3286, 3260, 3271, 3247, 3247, 3312, 3293, 3326, 3312, 3332, 3284, 3296, 3331, 3320, 3293, 3322, 3311, 3301, 3304, 3285, 3336, 3281, 3298, 3274, 3293, 3320, 3296, 3303, 3306, 3307, 3306, 3289, 3310, 3323, 3286, 3277, 3275, 3258, 3278, 3266, 3315, 3299],
      "WindowCenter": [792.0, 791.0, 791.0, 792.0, 793.0, 793.0, 793.0, 792.0, 793.0, 793.0, 793.0, 793.0, 793.0, 793.0, 794.0, 794.0, 795.0, 796.0, 796.0, 795.0, 796.0, 797.0, 797.0, 797.0, 797.0, 796.0, 795.0, 794.0, 794.0, 795.0, 794.0, 791.0, 790.0, 790.0, 789.0, 789.0, 790.0, 790.0, 789.0, 790.0, 790.0, 789.0, 789.0, 789.0, 790.0, 790.0, 790.0, 790.0, 790.0, 790.0, 791.0, 792.0, 793.0, 795.0, 795.0, 794.0, 794.0, 793.0, 793.0, 794.0, 794.0, 793.0, 791.0, 790.0, 789.0, 789.0, 789.0, 789.0, 789.0, 788.0, 789.0, 789.0, 791.0, 794.0, 796.0, 798.0, 798.0, 796.0, 792.0, 791.0, 790.0, 789.0, 790.0, 789.0, 788.0, 788.0, 789.0, 788.0, 788.0, 789.0, 788.0, 788.0, 788.0, 789.0, 789.0, 790.0, 792.0, 793.0, 791.0, 791.0, 793.0, 793.0, 793.0, 795.0, 796.0, 795.0, 794.0, 792.0, 792.0, 792.0, 792.0, 792.0, 791.0, 790.0, 790.0, 790.0, 792.0, 794.0, 796.0, 796.0, 793.0, 791.0, 791.0, 791.0, 790.0, 790.0, 789.0, 789.0, 789.0, 789.0, 789.0, 790.0, 792.0, 794.0, 794.0, 792.0, 791.0, 791.0, 791.0, 792.0, 792.0, 793.0, 793.0, 792.0, 791.0, 791.0, 791.0, 790.0, 789.0, 789.0, 790.0, 791.0, 794.0, 794.0, 794.0, 792.0],
      "WindowWidth": [1691.0, 1688.0, 1690.0, 1692.0, 1694.0, 1694.0, 1693.0, 1692.0, 1694.0, 1694.0, 1693.0, 1694.0, 1694.0, 1695.0, 1696.0, 1698.0, 1699.0, 1701.0, 1701.0, 1701.0, 1702.0, 1704.0, 1706.0, 1706.0, 1705.0, 1702.0, 1701.0, 1696.0, 1697.0, 1700.0, 1696.0, 1688.0, 1686.0, 1686.0, 1684.0, 1685.0, 1687.0, 1687.0, 1685.0, 1686.0, 1686.0, 1684.0, 1683.0, 1683.0, 1686.0, 1686.0, 1687.0, 1687.0, 1686.0, 1688.0, 1690.0, 1692.0, 1694.0, 1699.0, 1699.0, 1697.0, 1696.0, 1695.0, 1694.0, 1696.0, 1696.0, 1693.0, 1690.0, 1686.0, 1685.0, 1685.0, 1685.0, 1684.0, 1684.0, 1683.0, 1683.0, 1685.0, 1689.0, 1697.0, 1704.0, 1708.0, 1708.0, 1702.0, 1693.0, 1689.0, 1687.0, 1685.0, 1686.0, 1684.0, 1683.0, 1683.0, 1683.0, 1682.0, 1682.0, 1683.0, 1681.0, 1680.0, 1681.0, 1683.0, 1684.0, 1687.0, 1692.0, 1694.0, 1691.0, 1691.0, 1694.0, 1694.0, 1695.0, 1699.0, 1701.0, 1699.0, 1696.0, 1692.0, 1692.0, 1691.0, 1691.0, 1690.0, 1688.0, 1687.0, 1685.0, 1686.0, 1691.0, 1698.0, 1703.0, 1702.0, 1693.0, 1690.0, 1690.0, 1688.0, 1687.0, 1685.0, 1684.0, 1683.0, 1683.0, 1683.0, 1685.0, 1686.0, 1693.0, 1696.0, 1696.0, 1690.0, 1689.0, 1690.0, 1689.0, 1690.0, 1692.0, 1694.0, 1693.0, 1691.0, 1689.0, 1689.0, 1690.0, 1687.0, 1684.0, 1683.0, 1685.0, 1689.0, 1695.0, 1697.0, 1696.0, 1690.0]
    },
    "slices": {}
  }
}