{
  "AcquisitionMatrixPE": 100,
  "AcquisitionNumber": 1,
  "AcquisitionTime": "16:19:51.865000",
  "BandwidthPerPixelPhaseEncode": 18.519,
  "BaseResolution": 100,
  "BodyPartExamined": "BRAIN",
  "CoilCombinationMethod": "Sum of Squares",
  "ConsistencyInfo": "N4_VE11C_LATEST_20160120",
  "ConversionSoftware": "dcm2niix",
  "ConversionSoftwareVersion": "v1.0.20211006",
  "DerivedVendorReportedEchoSpacing": 0.000539986,
  "DeviceSerialNumber": "166078",
  "DwellTime": 2.1e-06,
  "EchoTime": 0.034,
  "EchoTrainLength": 100,
  "EffectiveEchoSpacing": 0.000539986,
  "FlipAngle": 90,
  "ImageOrientationPatientDICOM": [0.999877, -0.00385315, -0.0152274, 2.82793e-08, 0.969445, -0.245307],
  "ImageOrientationText": "Tra>Cor(-14.2)>Sag(-0.9)",
  "ImageType": [
    "ORIGINAL",
    "PRIMARY",
    "M",
    "ND",
    "MOSAIC"
],
  "ImagingFrequency": 123.258,
  "InPlanePhaseEncodingDirectionDICOM": "COL",
  "InstitutionAddress": "Street StreetNo,Bei Jing,District,CN,ZIP",
  "InstitutionName": "BeiJing Normal University",
  "InstitutionalDepartmentName": "Department",
  "MRAcquisitionType": "2D",
  "MagneticFieldStrength": 3,
  "Manufacturer": "Siemens",
  "ManufacturersModelName": "Prisma",
  "Modality": "MR",
  "MultibandAccelerationFactor": 3,
  "PartialFourier": 1,
  "PatientPosition": "HFS",
  "PercentPhaseFOV": 100,
  "PercentSampling": 100,
  "PhaseEncodingDirection": "j-",
  "PhaseEncodingSteps": 100,
  "PhaseResolution": 1,
  "PixelBandwidth": 2380,
  "ProcedureStepDescription": "BNU_P2018_64CH^Zhen.ZongLei",
  "ProtocolName": "bold_100x100_s3_2x2x2_static_156",
  "PulseSequenceDetails": "%SiemensSeq%\\ep2d_bold",
  "ReceiveCoilActiveElements": "HC1-7;NC1",
  "ReceiveCoilName": "HeadNeck_64",
  "ReconMatrixPE": 100,
  "RefLinesPE": 32,
  "RepetitionTime": 2,
  "SAR": 0.085349,
  "ScanOptions": "FS",
  "ScanningSequence": "EP",
  "SequenceName": "*epfid2d1_100",
  "SequenceVariant": "SK",
  "SeriesDescription": "bold_100x100_s3_2x2x2_static_156",
  "SeriesNumber": 8,
  "ShimSetting": [-5461, -11516, -1214, 408, -14, -257, -17, 71],
  "SliceThickness": 2,
  "SliceTiming": [1.485, 0, 0.99, 0.0825, 1.0725, 0.165, 1.155, 0.2475, 1.2375, 0.33, 1.32, 0.4125, 1.4025, 0.5775, 1.5675, 0.66, 1.65, 0.7425, 1.7325, 0.825, 1.815, 0.9075, 1.8975, 0.495, 1.485, 0, 0.99, 0.0825, 1.0725, 0.165, 1.155, 0.2475, 1.2375, 0.33, 1.32, 0.4125, 1.4025, 0.5775, 1.5675, 0.66, 1.65, 0.7425, 1.7325, 0.825, 1.815, 0.9075, 1.8975, 0.495, 1.485, 0, 0.99, 0.0825, 1.0725, 0.165, 1.155, 0.2475, 1.2375, 0.33, 1.32, 0.4125, 1.4025, 0.5775, 1.5675, 0.66, 1.65, 0.7425, 1.7325, 0.825, 1.815, 0.9075, 1.8975, 0.495],
  "SoftwareVersions": "syngo MR E11",
  "SpacingBetweenSlices": 2,
  "StationName": "AWP166078",
  "TaskName": "action",
  "TotalReadoutTime": 0.0534586,
  "TxRefAmp": 254.386,
  "dcmmeta_affine": [
    [-1.9997532367706299, 5.6558612016033294e-08, -0.03141465410590172, 101.1028823852539],
    [0.007706301286816597, 1.9388906955718994, -0.4905542731285095, -75.41454315185547],
    [-0.03045477531850338, 0.49061480164527893, 1.938651442527771, -78.94242095947266],
    [0.0, 0.0, 0.0, 1.0]
],
  "dcmmeta_reorient_transform": [
    [0.0, -1.0, 0.0, 99.0],
    [1.0, 0.0, 0.0, 0.0],
    [0.0, 0.0, 1.0, 0.0],
    [0.0, 0.0, 0.0, 1.0]
],
  "dcmmeta_shape": [100, 100, 72, 156],
  "dcmmeta_slice_dim": 2,
  "dcmmeta_version": 0.6,
  "global": {
    "const": {
      "AcquisitionMatrix": [100, 0, 0, 100],
      "AngioFlag": "N",
      "BitsAllocated": 16,
      "BitsStored": 12,
      "BodyPartExamined": "BRAIN",
      "Columns": 900,
      "EchoNumbers": 1,
      "EchoTime": 34.0,
      "EchoTrainLength": 100,
      "FlipAngle": 90.0,
      "HighBit": 11,
      "ImageOrientationPatient": [0.99987663233824, -0.0038531507434, -0.0152273876053, 2.8279306e-08, 0.96944534759021, -0.2453073949878],
      "ImagePositionPatient": [-901.00421402963, -889.009396611, 178.05627076443],
      "ImageType": [
        "ORIGINAL",
        "PRIMARY",
        "M",
        "ND",
        "MOSAIC"
],
      "ImagedNucleus": "1H",
      "ImagingFrequency": 123.257676,
      "InPlanePhaseEncodingDirection": "COL",
      "MRAcquisitionType": "2D",
      "MagneticFieldStrength": 3.0,
      "Manufacturer": "SIEMENS",
      "ManufacturerModelName": "Prisma",
      "Modality": "MR",
      "NumberOfAverages": 1.0,
      "NumberOfPhaseEncodingSteps": 100,
      "PercentPhaseFieldOfView": 100.0,
      "PercentSampling": 100.0,
      "PerformedProcedureStepStartTime": "154549.336000",
      "PhotometricInterpretation": "MONOCHROME2",
      "PixelBandwidth": 2380.0,
      "PixelRepresentation": 0,
      "PixelSpacing": [2.0, 2.0],
      "ProtocolName": "bold_100x100_s3_2x2x2_static_156",
      "RepetitionTime": 2000.0,
      "Rows": 900,
      "SAR": 0.08534904778381,
      "SamplesPerPixel": 1,
      "ScanOptions": "FS",
      "ScanningSequence": "EP",
      "SequenceName": "*epfid2d1_100",
      "SequenceVariant": "SK",
      "SeriesDescription": "bold_100x100_s3_2x2x2_static_156",
      "SeriesNumber": 8,
      "SeriesTime": "161954.279000",
      "SliceLocation": -59.611513932321,
      "SliceThickness": 2.0,
      "SmallestImagePixelValue": 0,
      "SoftwareVersions": "syngo MR E11",
      "SpacingBetweenSlices": 1.9999999975851,
      "SpecificCharacterSet": "ISO_IR 100",
      "StudyID": "1",
      "StudyTime": "154549.241000",
      "TransmitCoilName": "Body",
      "VariableFlipAngleFlag": "N",
      "WindowCenterWidthExplanation": "Algo1",
      "dBdt": 0.0},
    "slices": {}
  },
  "time": {
    "samples": {
      "AcquisitionNumber": [1, 2, 3, 4, 5, 6, 7, 8, 9, 10, 11, 12, 13, 14, 15, 16, 17, 18, 19, 20, 21, 22, 23, 24, 25, 26, 27, 28, 29, 30, 31, 32, 33, 34, 35, 36, 37, 38, 39, 40, 41, 42, 43, 44, 45, 46, 47, 48, 49, 50, 51, 52, 53, 54, 55, 56, 57, 58, 59, 60, 61, 62, 63, 64, 65, 66, 67, 68, 69, 70, 71, 72, 73, 74, 75, 76, 77, 78, 79, 80, 81, 82, 83, 84, 85, 86, 87, 88, 89, 90, 91, 92, 93, 94, 95, 96, 97, 98, 99, 100, 101, 102, 103, 104, 105, 106, 107, 108, 109, 110, 111, 112, 113, 114, 115, 116, 117, 118, 119, 120, 121, 122, 123, 124, 125, 126, 127, 128, 129, 130, 131, 132, 133, 134, 135, 136, 137, 138, 139, 140, 141, 142, 143, 144, 145, 146, 147, 148, 149, 150, 151, 152, 153, 154, 155, 156],
      "AcquisitionTime": ["161951.865000", "161953.865000", "161955.865000", "161957.865000", "161959.865000", "162001.865000", "162003.865000", "162005.865000", "162007.865000", "162009.865000", "162011.865000", "162013.865000", "162015.865000", "162017.865000", "162019.865000", "162021.865000", "162023.865000", "162025.865000", "162027.865000", "162029.865000", "162031.865000", "162033.865000", "162035.865000", "162037.865000", "162039.865000", "162041.865000", "162043.865000", "162045.865000", "162047.865000", "162049.865000", "162051.865000", "162053.865000", "162055.865000", "162057.865000", "162059.865000", "162101.865000", "162103.865000", "162105.865000", "162107.865000", "162109.865000", "162111.865000", "162113.865000", "162115.865000", "162117.865000", "162119.865000", "162121.865000", "162123.865000", "162125.865000", "162127.865000", "162129.865000", "162131.865000", "162133.865000", "162135.865000", "162137.865000", "162139.865000", "162141.865000", "162143.865000", "162145.865000", "162147.865000", "162149.865000", "162151.865000", "162153.865000", "162155.865000", "162157.865000", "162159.865000", "162201.865000", "162203.865000", "162205.865000", "162207.865000", "162209.865000", "162211.865000", "162213.865000", "162215.865000", "162217.865000", "162219.865000", "162221.865000", "162223.865000", "162225.865000", "162227.865000", "162229.865000", "162231.865000", "162233.865000", "162235.865000", "162237.865000", "162239.865000", "162241.865000", "162243.865000", "162245.865000", "162247.865000", "162249.865000", "162251.865000", "162253.865000", "162255.865000", "162257.865000", "162259.865000", "162301.865000", "162303.865000", "162305.865000", "162307.865000", "162309.865000", "162311.865000", "162313.865000", "162315.865000", "162317.865000", "162319.865000", "162321.865000", "162323.865000", "162325.865000", "162327.865000", "162329.865000", "162331.865000", "162333.865000", "162335.865000", "162337.865000", "162339.865000", "162341.865000", "162343.865000", "162345.865000", "162347.865000", "162349.865000", "162351.865000", "162353.865000", "162355.865000", "162357.865000", "162359.865000", "162401.865000", "162403.865000", "162405.865000", "162407.865000", "162409.865000", "162411.865000", "162413.865000", "162415.865000", "162417.865000", "162419.865000", "162421.865000", "162423.865000", "162425.865000", "162427.865000", "162429.865000", "162431.865000", "162433.865000", "162435.865000", "162437.865000", "162439.865000", "162441.865000", "162443.865000", "162445.865000", "162447.865000", "162449.865000", "162451.865000", "162453.865000", "162455.865000", "162457.865000", "162459.865000", "162501.865000"],
      "ContentTime": ["161954.282000", "161955.778000", "161957.777000", "161959.778000", "162001.777000", "162003.777000", "162005.777000", "162007.778000", "162009.777000", "162011.777000", "162013.777000", "162015.778000", "162017.777000", "162019.776000", "162021.777000", "162023.777000", "162025.777000", "162027.777000", "162029.778000", "162031.777000", "162033.778000", "162035.777000", "162037.777000", "162039.778000", "162041.778000", "162043.777000", "162045.778000", "162047.778000", "162049.778000", "162051.778000", "162053.778000", "162055.776000", "162057.778000", "162059.778000", "162101.777000", "162103.777000", "162105.777000", "162107.777000", "162109.778000", "162111.777000", "162113.778000", "162115.777000", "162117.778000", "162119.778000", "162121.778000", "162123.778000", "162125.777000", "162127.777000", "162129.777000", "162131.778000", "162133.778000", "162135.777000", "162137.777000", "162139.777000", "162141.777000", "162143.778000", "162145.778000", "162147.777000", "162149.778000", "162151.777000", "162153.778000", "162155.777000", "162157.777000", "162159.778000", "162201.777000", "162203.778000", "162205.777000", "162207.778000", "162209.777000", "162211.778000", "162213.777000", "162215.777000", "162217.778000", "162219.777000", "162221.777000", "162223.778000", "162225.778000", "162227.777000", "162229.778000", "162231.778000", "162233.778000", "162235.778000", "162237.778000", "162239.777000", "162241.778000", "162243.778000", "162245.777000", "162247.778000", "162249.777000", "162251.778000", "162253.777000", "162255.777000", "162257.776000", "162259.777000", "162301.777000", "162303.778000", "162305.777000", "162307.778000", "162309.778000", "162311.778000", "162314.278000", "162315.777000", "162317.778000", "162319.777000", "162321.778000", "162323.778000", "162325.777000", "162327.778000", "162329.778000", "162331.778000", "162333.777000", "162335.777000", "162337.777000", "162339.777000", "162341.778000", "162343.777000", "162345.778000", "162347.778000", "162349.777000", "162351.777000", "162353.778000", "162355.778000", "162357.777000", "162359.778000", "162401.778000", "162403.777000", "162405.777000", "162407.776000", "162409.778000", "162411.777000", "162413.777000", "162415.778000", "162417.778000", "162419.777000", "162421.777000", "162423.777000", "162425.777000", "162427.778000", "162429.778000", "162431.778000", "162433.778000", "162435.777000", "162437.778000", "162439.778000", "162441.778000", "162443.777000", "162445.777000", "162447.778000", "162449.778000", "162451.778000", "162453.777000", "162455.777000", "162457.777000", "162459.777000", "162501.794000", "162503.898000"],
      "InstanceCreationTime": ["161954.282000", "161955.778000", "161957.777000", "161959.778000", "162001.777000", "162003.777000", "162005.777000", "162007.778000", "162009.777000", "162011.777000", "162013.777000", "162015.778000", "162017.777000", "162019.776000", "162021.777000", "162023.777000", "162025.777000", "162027.777000", "162029.778000", "162031.777000", "162033.778000", "162035.777000", "162037.777000", "162039.778000", "162041.778000", "162043.777000", "162045.778000", "162047.778000", "162049.778000", "162051.778000", "162053.778000", "162055.776000", "162057.778000", "162059.778000", "162101.777000", "162103.777000", "162105.777000", "162107.777000", "162109.778000", "162111.777000", "162113.778000", "162115.777000", "162117.778000", "162119.778000", "162121.778000", "162123.778000", "162125.777000", "162127.777000", "162129.777000", "162131.778000", "162133.778000", "162135.777000", "162137.777000", "162139.777000", "162141.777000", "162143.778000", "162145.778000", "162147.777000", "162149.778000", "162151.777000", "162153.778000", "162155.777000", "162157.777000", "162159.778000", "162201.777000", "162203.778000", "162205.777000", "162207.778000", "162209.777000", "162211.778000", "162213.777000", "162215.777000", "162217.778000", "162219.777000", "162221.777000", "162223.778000", "162225.778000", "162227.777000", "162229.778000", "162231.778000", "162233.778000", "162235.778000", "162237.778000", "162239.777000", "162241.778000", "162243.778000", "162245.777000", "162247.778000", "162249.777000", "162251.778000", "162253.777000", "162255.777000", "162257.776000", "162259.777000", "162301.777000", "162303.778000", "162305.777000", "162307.778000", "162309.778000", "162311.778000", "162314.278000", "162315.777000", "162317.778000", "162319.777000", "162321.778000", "162323.778000", "162325.777000", "162327.778000", "162329.778000", "162331.778000", "162333.777000", "162335.777000", "162337.777000", "162339.777000", "162341.778000", "162343.777000", "162345.778000", "162347.778000", "162349.777000", "162351.777000", "162353.778000", "162355.778000", "162357.777000", "162359.778000", "162401.778000", "162403.777000", "162405.777000", "162407.776000", "162409.778000", "162411.777000", "162413.777000", "162415.778000", "162417.778000", "162419.777000", "162421.777000", "162423.777000", "162425.777000", "162427.778000", "162429.778000", "162431.778000", "162433.778000", "162435.777000", "162437.778000", "162439.778000", "162441.778000", "162443.777000", "162445.777000", "162447.778000", "162449.778000", "162451.778000", "162453.777000", "162455.777000", "162457.777000", "162459.777000", "162501.794000", "162503.898000"],
      "InstanceNumber": [1, 2, 3, 4, 5, 6, 7, 8, 9, 10, 11, 12, 13, 14, 15, 16, 17, 18, 19, 20, 21, 22, 23, 24, 25, 26, 27, 28, 29, 30, 31, 32, 33, 34, 35, 36, 37, 38, 39, 40, 41, 42, 43, 44, 45, 46, 47, 48, 49, 50, 51, 52, 53, 54, 55, 56, 57, 58, 59, 60, 61, 62, 63, 64, 65, 66, 67, 68, 69, 70, 71, 72, 73, 74, 75, 76, 77, 78, 79, 80, 81, 82, 83, 84, 85, 86, 87, 88, 89, 90, 91, 92, 93, 94, 95, 96, 97, 98, 99, 100, 101, 102, 103, 104, 105, 106, 107, 108, 109, 110, 111, 112, 113, 114, 115, 116, 117, 118, 119, 120, 121, 122, 123, 124, 125, 126, 127, 128, 129, 130, 131, 132, 133, 134, 135, 136, 137, 138, 139, 140, 141, 142, 143, 144, 145, 146, 147, 148, 149, 150, 151, 152, 153, 154, 155, 156],
      "LargestImagePixelValue": [3483, 3511, 3481, 3466, 3465, 3494, 3491, 3497, 3482, 3499, 3410, 3431, 3441, 3446, 3424, 3427, 3437, 3460, 3455, 3462, 3460, 3434, 3467, 3397, 3391, 3411, 3420, 3457, 3482, 3438, 3431, 3400, 3371, 3377, 3380, 3368, 3367, 3379, 3344, 3403, 3398, 3374, 3396, 3434, 3399, 3418, 3407, 3391, 3468, 3411, 3407, 3383, 3393, 3336, 3367, 3410, 3389, 3352, 3400, 3369, 3377, 3441, 3344, 3416, 3456, 3425, 3452, 3445, 3457, 3434, 3428, 3398, 3403, 3360, 3341, 3301, 3304, 3351, 3351, 3371, 3359, 3392, 3371, 3371, 3373, 3397, 3386, 3360, 3351, 3328, 3347, 3344, 3339, 3391, 3340, 3299, 3321, 3341, 3349, 3343, 3332, 3323, 3352, 3334, 3347, 3345, 3307, 3301, 3364, 3335, 3301, 3286, 3304, 3310, 3282, 3283, 3303, 3294, 3310, 3303, 3303, 3351, 3332, 3302, 3294, 3305, 3311, 3321, 3301, 3352, 3300, 3312, 3330, 3356, 3311, 3329, 3276, 3284, 3306, 3295, 3349, 3322, 3296, 3266, 3362, 3291, 3289, 3291, 3327, 3326, 3320, 3330, 3331, 3351, 3350, 3358],
      "WindowCenter": [795.0, 794.0, 793.0, 792.0, 793.0, 794.0, 793.0, 793.0, 794.0, 794.0, 793.0, 793.0, 793.0, 794.0, 794.0, 794.0, 794.0, 794.0, 793.0, 793.0, 794.0, 795.0, 795.0, 794.0, 793.0, 793.0, 793.0, 792.0, 792.0, 793.0, 793.0, 794.0, 794.0, 795.0, 794.0, 794.0, 794.0, 794.0, 793.0, 793.0, 792.0, 792.0, 792.0, 792.0, 792.0, 792.0, 792.0, 791.0, 792.0, 792.0, 793.0, 793.0, 795.0, 796.0, 796.0, 795.0, 795.0, 796.0, 797.0, 797.0, 797.0, 797.0, 795.0, 793.0, 793.0, 792.0, 792.0, 791.0, 792.0, 792.0, 792.0, 792.0, 794.0, 795.0, 794.0, 793.0, 795.0, 799.0, 798.0, 795.0, 794.0, 793.0, 792.0, 791.0, 791.0, 791.0, 793.0, 794.0, 795.0, 794.0, 792.0, 791.0, 791.0, 791.0, 794.0, 796.0, 795.0, 793.0, 793.0, 792.0, 793.0, 793.0, 794.0, 795.0, 797.0, 796.0, 794.0, 793.0, 795.0, 796.0, 795.0, 794.0, 794.0, 794.0, 792.0, 792.0, 794.0, 795.0, 795.0, 793.0, 793.0, 794.0, 796.0, 794.0, 793.0, 792.0, 792.0, 792.0, 792.0, 793.0, 792.0, 792.0, 792.0, 793.0, 793.0, 794.0, 795.0, 796.0, 795.0, 793.0, 793.0, 792.0, 791.0, 791.0, 792.0, 794.0, 794.0, 795.0, 797.0, 796.0, 794.0, 794.0, 796.0, 799.0, 799.0, 795.0],
      "WindowWidth": [1700.0, 1698.0, 1694.0, 1692.0, 1694.0, 1696.0, 1695.0, 1695.0, 1697.0, 1698.0, 1697.0, 1696.0, 1697.0, 1697.0, 1698.0, 1698.0, 1699.0, 1698.0, 1695.0, 1696.0, 1699.0, 1701.0, 1700.0, 1698.0, 1697.0, 1697.0, 1695.0, 1693.0, 1694.0, 1695.0, 1697.0, 1697.0, 1697.0, 1700.0, 1699.0, 1697.0, 1697.0, 1697.0, 1696.0, 1695.0, 1694.0, 1694.0, 1693.0, 1692.0, 1693.0, 1693.0, 1693.0, 1691.0, 1692.0, 1694.0, 1696.0, 1696.0, 1700.0, 1703.0, 1702.0, 1701.0, 1701.0, 1702.0, 1706.0, 1706.0, 1707.0, 1706.0, 1699.0, 1696.0, 1695.0, 1693.0, 1691.0, 1689.0, 1692.0, 1693.0, 1692.0, 1692.0, 1698.0, 1700.0, 1699.0, 1696.0, 1701.0, 1710.0, 1709.0, 1701.0, 1697.0, 1696.0, 1692.0, 1690.0, 1690.0, 1691.0, 1695.0, 1699.0, 1700.0, 1697.0, 1692.0, 1691.0, 1689.0, 1690.0, 1697.0, 1702.0, 1700.0, 1696.0, 1694.0, 1694.0, 1694.0, 1696.0, 1698.0, 1702.0, 1706.0, 1703.0, 1697.0, 1696.0, 1701.0, 1703.0, 1701.0, 1698.0, 1696.0, 1697.0, 1692.0, 1693.0, 1698.0, 1700.0, 1700.0, 1695.0, 1694.0, 1698.0, 1702.0, 1698.0, 1695.0, 1693.0, 1694.0, 1693.0, 1693.0, 1695.0, 1693.0, 1693.0, 1693.0, 1694.0, 1694.0, 1696.0, 1700.0, 1702.0, 1701.0, 1695.0, 1694.0, 1691.0, 1690.0, 1689.0, 1692.0, 1696.0, 1698.0, 1701.0, 1705.0, 1703.0, 1697.0, 1697.0, 1702.0, 1710.0, 1711.0, 1699.0]
    },
    "slices": {}
  }
}