{
  "AcquisitionMatrixPE": 100,
  "AcquisitionNumber": 1,
  "AcquisitionTime": "16:41:6.695000",
  "BandwidthPerPixelPhaseEncode": 18.519,
  "BaseResolution": 100,
  "BodyPartExamined": "BRAIN",
  "CoilCombinationMethod": "Sum of Squares",
  "ConsistencyInfo": "N4_VE11C_LATEST_20160120",
  "ConversionSoftware": "dcm2niix",
  "ConversionSoftwareVersion": "v1.0.20211006",
  "DerivedVendorReportedEchoSpacing": 0.000539986,
  "DeviceSerialNumber": "166078",
  "DwellTime": 2.1e-06,
  "EchoTime": 0.034,
  "EchoTrainLength": 100,
  "EffectiveEchoSpacing": 0.000539986,
  "FlipAngle": 90,
  "ImageOrientationPatientDICOM": [0.999877, -0.00385315, -0.0152274, 2.82793e-08, 0.969445, -0.245307],
  "ImageOrientationText": "Tra>Cor(-14.2)>Sag(-0.9)",
  "ImageType": [
    "ORIGINAL",
    "PRIMARY",
    "M",
    "ND",
    "MOSAIC"
],
  "ImagingFrequency": 123.258,
  "InPlanePhaseEncodingDirectionDICOM": "COL",
  "InstitutionAddress": "Street StreetNo,Bei Jing,District,CN,ZIP",
  "InstitutionName": "BeiJing Normal University",
  "InstitutionalDepartmentName": "Department",
  "MRAcquisitionType": "2D",
  "MagneticFieldStrength": 3,
  "Manufacturer": "Siemens",
  "ManufacturersModelName": "Prisma",
  "Modality": "MR",
  "MultibandAccelerationFactor": 3,
  "PartialFourier": 1,
  "PatientPosition": "HFS",
  "PercentPhaseFOV": 100,
  "PercentSampling": 100,
  "PhaseEncodingDirection": "j-",
  "PhaseEncodingSteps": 100,
  "PhaseResolution": 1,
  "PixelBandwidth": 2380,
  "ProcedureStepDescription": "BNU_P2018_64CH^Zhen.ZongLei",
  "ProtocolName": "bold_100x100_s3_2x2x2_static_156",
  "PulseSequenceDetails": "%SiemensSeq%\\ep2d_bold",
  "ReceiveCoilActiveElements": "HC1-7;NC1",
  "ReceiveCoilName": "HeadNeck_64",
  "ReconMatrixPE": 100,
  "RefLinesPE": 32,
  "RepetitionTime": 2,
  "SAR": 0.085349,
  "ScanOptions": "FS",
  "ScanningSequence": "EP",
  "SequenceName": "*epfid2d1_100",
  "SequenceVariant": "SK",
  "SeriesDescription": "bold_100x100_s3_2x2x2_static_156",
  "SeriesNumber": 13,
  "ShimSetting": [-5461, -11516, -1214, 408, -14, -257, -17, 71],
  "SliceThickness": 2,
  "SliceTiming": [1.485, 0, 0.99, 0.0825, 1.0725, 0.165, 1.155, 0.2475, 1.2375, 0.33, 1.32, 0.4125, 1.4025, 0.5775, 1.5675, 0.66, 1.65, 0.7425, 1.7325, 0.825, 1.815, 0.9075, 1.8975, 0.495, 1.485, 0, 0.99, 0.0825, 1.0725, 0.165, 1.155, 0.2475, 1.2375, 0.33, 1.32, 0.4125, 1.4025, 0.5775, 1.5675, 0.66, 1.65, 0.7425, 1.7325, 0.825, 1.815, 0.9075, 1.8975, 0.495, 1.485, 0, 0.99, 0.0825, 1.0725, 0.165, 1.155, 0.2475, 1.2375, 0.33, 1.32, 0.4125, 1.4025, 0.5775, 1.5675, 0.66, 1.65, 0.7425, 1.7325, 0.825, 1.815, 0.9075, 1.8975, 0.495],
  "SoftwareVersions": "syngo MR E11",
  "SpacingBetweenSlices": 2,
  "StationName": "AWP166078",
  "TaskName": "action",
  "TotalReadoutTime": 0.0534586,
  "TxRefAmp": 254.386,
  "dcmmeta_affine": [
    [-1.9997532367706299, 5.6558612016033294e-08, -0.03141465410590172, 101.1028823852539],
    [0.007706301286816597, 1.9388906955718994, -0.4905542731285095, -75.41454315185547],
    [-0.03045477531850338, 0.49061480164527893, 1.938651442527771, -78.94242095947266],
    [0.0, 0.0, 0.0, 1.0]
],
  "dcmmeta_reorient_transform": [
    [0.0, -1.0, 0.0, 99.0],
    [1.0, 0.0, 0.0, 0.0],
    [0.0, 0.0, 1.0, 0.0],
    [0.0, 0.0, 0.0, 1.0]
],
  "dcmmeta_shape": [100, 100, 72, 156],
  "dcmmeta_slice_dim": 2,
  "dcmmeta_version": 0.6,
  "global": {
    "const": {
      "AcquisitionMatrix": [100, 0, 0, 100],
      "AngioFlag": "N",
      "BitsAllocated": 16,
      "BitsStored": 12,
      "BodyPartExamined": "BRAIN",
      "Columns": 900,
      "EchoNumbers": 1,
      "EchoTime": 34.0,
      "EchoTrainLength": 100,
      "FlipAngle": 90.0,
      "HighBit": 11,
      "ImageOrientationPatient": [0.99987663233824, -0.0038531507434, -0.0152273876053, 2.8279306e-08, 0.96944534759021, -0.2453073949878],
      "ImagePositionPatient": [-901.00421402963, -889.009396611, 178.05627076443],
      "ImageType": [
        "ORIGINAL",
        "PRIMARY",
        "M",
        "ND",
        "MOSAIC"
],
      "ImagedNucleus": "1H",
      "ImagingFrequency": 123.25768,
      "InPlanePhaseEncodingDirection": "COL",
      "MRAcquisitionType": "2D",
      "MagneticFieldStrength": 3.0,
      "Manufacturer": "SIEMENS",
      "ManufacturerModelName": "Prisma",
      "Modality": "MR",
      "NumberOfAverages": 1.0,
      "NumberOfPhaseEncodingSteps": 100,
      "PercentPhaseFieldOfView": 100.0,
      "PercentSampling": 100.0,
      "PerformedProcedureStepStartTime": "154549.336000",
      "PhotometricInterpretation": "MONOCHROME2",
      "PixelBandwidth": 2380.0,
      "PixelRepresentation": 0,
      "PixelSpacing": [2.0, 2.0],
      "ProtocolName": "bold_100x100_s3_2x2x2_static_156",
      "RepetitionTime": 2000.0,
      "Rows": 900,
      "SAR": 0.08534904778381,
      "SamplesPerPixel": 1,
      "ScanOptions": "FS",
      "ScanningSequence": "EP",
      "SequenceName": "*epfid2d1_100",
      "SequenceVariant": "SK",
      "SeriesDescription": "bold_100x100_s3_2x2x2_static_156",
      "SeriesNumber": 13,
      "SeriesTime": "164108.852000",
      "SliceLocation": -59.611513932321,
      "SliceThickness": 2.0,
      "SmallestImagePixelValue": 0,
      "SoftwareVersions": "syngo MR E11",
      "SpacingBetweenSlices": 1.9999999975851,
      "SpecificCharacterSet": "ISO_IR 100",
      "StudyID": "1",
      "StudyTime": "154549.241000",
      "TransmitCoilName": "Body",
      "VariableFlipAngleFlag": "N",
      "WindowCenterWidthExplanation": "Algo1",
      "dBdt": 0.0},
    "slices": {}
  },
  "time": {
    "samples": {
      "AcquisitionNumber": [1, 2, 3, 4, 5, 6, 7, 8, 9, 10, 11, 12, 13, 14, 15, 16, 17, 18, 19, 20, 21, 22, 23, 24, 25, 26, 27, 28, 29, 30, 31, 32, 33, 34, 35, 36, 37, 38, 39, 40, 41, 42, 43, 44, 45, 46, 47, 48, 49, 50, 51, 52, 53, 54, 55, 56, 57, 58, 59, 60, 61, 62, 63, 64, 65, 66, 67, 68, 69, 70, 71, 72, 73, 74, 75, 76, 77, 78, 79, 80, 81, 82, 83, 84, 85, 86, 87, 88, 89, 90, 91, 92, 93, 94, 95, 96, 97, 98, 99, 100, 101, 102, 103, 104, 105, 106, 107, 108, 109, 110, 111, 112, 113, 114, 115, 116, 117, 118, 119, 120, 121, 122, 123, 124, 125, 126, 127, 128, 129, 130, 131, 132, 133, 134, 135, 136, 137, 138, 139, 140, 141, 142, 143, 144, 145, 146, 147, 148, 149, 150, 151, 152, 153, 154, 155, 156],
      "AcquisitionTime": ["164106.695000", "164108.695000", "164110.695000", "164112.695000", "164114.695000", "164116.695000", "164118.695000", "164120.695000", "164122.695000", "164124.695000", "164126.695000", "164128.695000", "164130.695000", "164132.695000", "164134.695000", "164136.695000", "164138.695000", "164140.695000", "164142.695000", "164144.695000", "164146.695000", "164148.695000", "164150.695000", "164152.695000", "164154.695000", "164156.695000", "164158.695000", "164200.695000", "164202.695000", "164204.695000", "164206.695000", "164208.695000", "164210.695000", "164212.695000", "164214.695000", "164216.695000", "164218.695000", "164220.695000", "164222.695000", "164224.695000", "164226.695000", "164228.695000", "164230.695000", "164232.695000", "164234.695000", "164236.695000", "164238.695000", "164240.695000", "164242.695000", "164244.695000", "164246.695000", "164248.695000", "164250.695000", "164252.695000", "164254.695000", "164256.695000", "164258.695000", "164300.695000", "164302.695000", "164304.695000", "164306.695000", "164308.695000", "164310.695000", "164312.695000", "164314.695000", "164316.695000", "164318.695000", "164320.695000", "164322.695000", "164324.695000", "164326.695000", "164328.695000", "164330.695000", "164332.695000", "164334.695000", "164336.695000", "164338.695000", "164340.695000", "164342.695000", "164344.695000", "164346.695000", "164348.695000", "164350.695000", "164352.695000", "164354.695000", "164356.695000", "164358.695000", "164400.695000", "164402.695000", "164404.695000", "164406.695000", "164408.695000", "164410.695000", "164412.695000", "164414.695000", "164416.695000", "164418.695000", "164420.695000", "164422.695000", "164424.695000", "164426.695000", "164428.695000", "164430.695000", "164432.695000", "164434.695000", "164436.695000", "164438.695000", "164440.695000", "164442.695000", "164444.695000", "164446.695000", "164448.695000", "164450.695000", "164452.695000", "164454.695000", "164456.695000", "164458.695000", "164500.695000", "164502.695000", "164504.695000", "164506.695000", "164508.695000", "164510.695000", "164512.695000", "164514.695000", "164516.695000", "164518.695000", "164520.695000", "164522.695000", "164524.695000", "164526.695000", "164528.695000", "164530.695000", "164532.695000", "164534.695000", "164536.695000", "164538.695000", "164540.695000", "164542.695000", "164544.695000", "164546.695000", "164548.695000", "164550.695000", "164552.695000", "164554.695000", "164556.695000", "164558.695000", "164600.695000", "164602.695000", "164604.695000", "164606.695000", "164608.695000", "164610.695000", "164612.695000", "164614.695000", "164616.695000"],
      "ContentTime": ["164108.856000", "164110.351000", "164112.351000", "164114.351000", "164116.351000", "164118.350000", "164120.352000", "164122.352000", "164124.351000", "164126.351000", "164128.351000", "164130.351000", "164132.351000", "164134.350000", "164136.351000", "164138.352000", "164140.352000", "164142.351000", "164144.352000", "164146.352000", "164148.352000", "164150.352000", "164152.351000", "164154.351000", "164156.352000", "164158.351000", "164200.352000", "164202.351000", "164204.351000", "164206.351000", "164208.350000", "164210.351000", "164212.351000", "164214.352000", "164216.351000", "164218.352000", "164220.351000", "164222.352000", "164224.351000", "164226.351000", "164228.350000", "164230.351000", "164232.352000", "164234.352000", "164236.352000", "164238.352000", "164240.351000", "164242.351000", "164244.350000", "164246.351000", "164248.352000", "164250.352000", "164252.351000", "164254.351000", "164256.351000", "164258.351000", "164300.351000", "164302.351000", "164304.351000", "164306.352000", "164308.352000", "164310.351000", "164312.351000", "164314.352000", "164316.352000", "164318.351000", "164320.351000", "164322.351000", "164324.351000", "164326.351000", "164328.352000", "164330.352000", "164332.351000", "164334.351000", "164336.350000", "164338.350000", "164340.352000", "164342.351000", "164344.352000", "164346.352000", "164348.352000", "164350.351000", "164352.351000", "164354.350000", "164356.350000", "164358.352000", "164400.352000", "164402.351000", "164404.352000", "164406.352000", "164408.352000", "164410.352000", "164412.351000", "164414.351000", "164416.352000", "164418.351000", "164420.351000", "164422.352000", "164424.352000", "164426.351000", "164428.351000", "164430.351000", "164432.352000", "164434.352000", "164436.351000", "164438.352000", "164440.351000", "164442.351000", "164444.352000", "164446.351000", "164448.351000", "164450.352000", "164452.351000", "164454.351000", "164456.352000", "164458.351000", "164500.352000", "164502.351000", "164504.350000", "164506.350000", "164508.352000", "164510.352000", "164512.352000", "164514.352000", "164516.352000", "164518.352000", "164520.351000", "164522.351000", "164524.350000", "164526.351000", "164528.352000", "164530.352000", "164532.352000", "164534.352000", "164536.352000", "164538.351000", "164540.351000", "164542.352000", "164544.352000", "164546.352000", "164548.352000", "164550.351000", "164552.351000", "164554.351000", "164556.350000", "164558.351000", "164600.352000", "164602.351000", "164604.351000", "164606.351000", "164608.352000", "164610.352000", "164612.352000", "164614.351000", "164616.351000", "164617.979000"],
      "InstanceCreationTime": ["164108.856000", "164110.351000", "164112.351000", "164114.351000", "164116.351000", "164118.350000", "164120.352000", "164122.352000", "164124.351000", "164126.351000", "164128.351000", "164130.351000", "164132.351000", "164134.350000", "164136.351000", "164138.352000", "164140.352000", "164142.351000", "164144.352000", "164146.352000", "164148.352000", "164150.352000", "164152.351000", "164154.351000", "164156.352000", "164158.351000", "164200.352000", "164202.351000", "164204.351000", "164206.351000", "164208.350000", "164210.351000", "164212.351000", "164214.352000", "164216.351000", "164218.352000", "164220.351000", "164222.352000", "164224.351000", "164226.351000", "164228.350000", "164230.351000", "164232.352000", "164234.352000", "164236.352000", "164238.352000", "164240.351000", "164242.351000", "164244.350000", "164246.351000", "164248.352000", "164250.352000", "164252.351000", "164254.351000", "164256.351000", "164258.351000", "164300.351000", "164302.351000", "164304.351000", "164306.352000", "164308.352000", "164310.351000", "164312.351000", "164314.352000", "164316.352000", "164318.351000", "164320.351000", "164322.351000", "164324.351000", "164326.351000", "164328.352000", "164330.352000", "164332.351000", "164334.351000", "164336.350000", "164338.350000", "164340.352000", "164342.351000", "164344.352000", "164346.352000", "164348.352000", "164350.351000", "164352.351000", "164354.350000", "164356.350000", "164358.352000", "164400.352000", "164402.351000", "164404.352000", "164406.352000", "164408.352000", "164410.352000", "164412.351000", "164414.351000", "164416.352000", "164418.351000", "164420.351000", "164422.352000", "164424.352000", "164426.351000", "164428.351000", "164430.351000", "164432.352000", "164434.352000", "164436.351000", "164438.352000", "164440.351000", "164442.351000", "164444.352000", "164446.351000", "164448.351000", "164450.352000", "164452.351000", "164454.351000", "164456.352000", "164458.351000", "164500.352000", "164502.351000", "164504.350000", "164506.350000", "164508.352000", "164510.352000", "164512.352000", "164514.352000", "164516.352000", "164518.352000", "164520.351000", "164522.351000", "164524.350000", "164526.351000", "164528.352000", "164530.352000", "164532.352000", "164534.352000", "164536.352000", "164538.351000", "164540.351000", "164542.352000", "164544.352000", "164546.352000", "164548.352000", "164550.351000", "164552.351000", "164554.351000", "164556.350000", "164558.351000", "164600.352000", "164602.351000", "164604.351000", "164606.351000", "164608.352000", "164610.352000", "164612.352000", "164614.351000", "164616.351000", "164617.979000"],
      "InstanceNumber": [1, 2, 3, 4, 5, 6, 7, 8, 9, 10, 11, 12, 13, 14, 15, 16, 17, 18, 19, 20, 21, 22, 23, 24, 25, 26, 27, 28, 29, 30, 31, 32, 33, 34, 35, 36, 37, 38, 39, 40, 41, 42, 43, 44, 45, 46, 47, 48, 49, 50, 51, 52, 53, 54, 55, 56, 57, 58, 59, 60, 61, 62, 63, 64, 65, 66, 67, 68, 69, 70, 71, 72, 73, 74, 75, 76, 77, 78, 79, 80, 81, 82, 83, 84, 85, 86, 87, 88, 89, 90, 91, 92, 93, 94, 95, 96, 97, 98, 99, 100, 101, 102, 103, 104, 105, 106, 107, 108, 109, 110, 111, 112, 113, 114, 115, 116, 117, 118, 119, 120, 121, 122, 123, 124, 125, 126, 127, 128, 129, 130, 131, 132, 133, 134, 135, 136, 137, 138, 139, 140, 141, 142, 143, 144, 145, 146, 147, 148, 149, 150, 151, 152, 153, 154, 155, 156],
      "LargestImagePixelValue": [3190, 3154, 3137, 3159, 3147, 3128, 3102, 3136, 3097, 3101, 3077, 3063, 3079, 3069, 3055, 3077, 3080, 3062, 3066, 3054, 3047, 3045, 3094, 3066, 3054, 3068, 3076, 3079, 3074, 3090, 3114, 3104, 3102, 3120, 3074, 3057, 3066, 3069, 3110, 3095, 3120, 3078, 3073, 3036, 3058, 3065, 3055, 3094, 3086, 3063, 3101, 3136, 3108, 3141, 3167, 3110, 3073, 3050, 3052, 3081, 3036, 3074, 3074, 3085, 3079, 3102, 3060, 3074, 3073, 3027, 3031, 3057, 3068, 3115, 3077, 3100, 3096, 3100, 3078, 3020, 3050, 3047, 3055, 3084, 3112, 3134, 3116, 3137, 3025, 3027, 3078, 3076, 3086, 3095, 3069, 3097, 3099, 3104, 3108, 3130, 3035, 3069, 3074, 3249, 3138, 3075, 3048, 3057, 3099, 3093, 3109, 3091, 3105, 3093, 3077, 3126, 3125, 3108, 3084, 3118, 3101, 3165, 3113, 3128, 3106, 3143, 3106, 3149, 3159, 3116, 3138, 3099, 3073, 3103, 3080, 3069, 3052, 3057, 3090, 3119, 3116, 3094, 3157, 3111, 3081, 3083, 3084, 3124, 3120, 3138, 3127, 3127, 3147, 3153, 3193, 3261],
      "WindowCenter": [783.0, 781.0, 781.0, 782.0, 783.0, 783.0, 783.0, 785.0, 786.0, 786.0, 786.0, 786.0, 786.0, 786.0, 787.0, 788.0, 787.0, 786.0, 785.0, 785.0, 787.0, 787.0, 787.0, 786.0, 786.0, 789.0, 790.0, 787.0, 784.0, 783.0, 782.0, 781.0, 782.0, 782.0, 784.0, 787.0, 787.0, 784.0, 783.0, 782.0, 783.0, 783.0, 784.0, 786.0, 787.0, 787.0, 785.0, 784.0, 784.0, 783.0, 783.0, 783.0, 782.0, 782.0, 782.0, 781.0, 782.0, 784.0, 788.0, 789.0, 788.0, 786.0, 785.0, 783.0, 783.0, 783.0, 782.0, 784.0, 785.0, 785.0, 785.0, 785.0, 784.0, 784.0, 784.0, 783.0, 783.0, 783.0, 785.0, 787.0, 788.0, 786.0, 784.0, 783.0, 782.0, 782.0, 782.0, 783.0, 786.0, 785.0, 786.0, 784.0, 784.0, 783.0, 783.0, 783.0, 783.0, 782.0, 783.0, 784.0, 785.0, 784.0, 784.0, 782.0, 785.0, 785.0, 787.0, 788.0, 786.0, 785.0, 784.0, 784.0, 783.0, 783.0, 781.0, 782.0, 783.0, 785.0, 784.0, 784.0, 782.0, 783.0, 784.0, 785.0, 784.0, 785.0, 784.0, 784.0, 785.0, 785.0, 785.0, 785.0, 785.0, 786.0, 787.0, 789.0, 789.0, 787.0, 786.0, 786.0, 786.0, 786.0, 788.0, 789.0, 788.0, 785.0, 784.0, 783.0, 783.0, 782.0, 782.0, 783.0, 784.0, 783.0, 783.0, 783.0],
      "WindowWidth": [1667.0, 1664.0, 1663.0, 1665.0, 1667.0, 1668.0, 1669.0, 1673.0, 1675.0, 1677.0, 1677.0, 1677.0, 1678.0, 1677.0, 1678.0, 1680.0, 1679.0, 1676.0, 1673.0, 1674.0, 1678.0, 1680.0, 1678.0, 1676.0, 1677.0, 1684.0, 1686.0, 1679.0, 1672.0, 1669.0, 1666.0, 1664.0, 1665.0, 1667.0, 1672.0, 1679.0, 1678.0, 1670.0, 1668.0, 1666.0, 1667.0, 1667.0, 1672.0, 1677.0, 1679.0, 1678.0, 1674.0, 1672.0, 1671.0, 1669.0, 1669.0, 1669.0, 1667.0, 1666.0, 1665.0, 1664.0, 1666.0, 1672.0, 1680.0, 1683.0, 1682.0, 1677.0, 1673.0, 1670.0, 1670.0, 1668.0, 1667.0, 1670.0, 1673.0, 1673.0, 1673.0, 1673.0, 1671.0, 1671.0, 1670.0, 1669.0, 1668.0, 1669.0, 1673.0, 1679.0, 1682.0, 1677.0, 1672.0, 1668.0, 1667.0, 1666.0, 1665.0, 1669.0, 1675.0, 1675.0, 1676.0, 1672.0, 1672.0, 1669.0, 1669.0, 1669.0, 1668.0, 1666.0, 1667.0, 1672.0, 1673.0, 1671.0, 1670.0, 1666.0, 1672.0, 1673.0, 1678.0, 1680.0, 1676.0, 1673.0, 1672.0, 1670.0, 1669.0, 1667.0, 1664.0, 1666.0, 1669.0, 1673.0, 1671.0, 1671.0, 1667.0, 1669.0, 1671.0, 1672.0, 1671.0, 1673.0, 1671.0, 1671.0, 1674.0, 1675.0, 1674.0, 1673.0, 1674.0, 1675.0, 1678.0, 1683.0, 1683.0, 1679.0, 1674.0, 1675.0, 1676.0, 1676.0, 1682.0, 1683.0, 1681.0, 1674.0, 1671.0, 1669.0, 1669.0, 1666.0, 1665.0, 1668.0, 1671.0, 1668.0, 1667.0, 1669.0]
    },
    "slices": {}
  }
}