{
  "AcquisitionMatrixPE": 100,
  "AcquisitionNumber": 1,
  "AcquisitionTime": "14:08:48.865000",
  "BandwidthPerPixelPhaseEncode": 18.519,
  "BaseResolution": 100,
  "BodyPartExamined": "BRAIN",
  "CoilCombinationMethod": "Sum of Squares",
  "ConsistencyInfo": "N4_VE11C_LATEST_20160120",
  "ConversionSoftware": "dcm2niix",
  "ConversionSoftwareVersion": "v1.0.20211006",
  "DerivedVendorReportedEchoSpacing": 0.000539986,
  "DeviceSerialNumber": "166078",
  "DwellTime": 2.1e-06,
  "EchoTime": 0.034,
  "EchoTrainLength": 100,
  "EffectiveEchoSpacing": 0.000539986,
  "FlipAngle": 90,
  "ImageOrientationPatientDICOM": [1, 0, 0, 0, 0.992757, -0.120137],
  "ImageOrientationText": "Tra>Cor(-6.9)",
  "ImageType": [
    "ORIGINAL",
    "PRIMARY",
    "M",
    "ND",
    "MOSAIC"
],
  "ImagingFrequency": 123.258,
  "InPlanePhaseEncodingDirectionDICOM": "COL",
  "InstitutionAddress": "Street StreetNo,Bei Jing,District,CN,ZIP",
  "InstitutionName": "BeiJing Normal University",
  "InstitutionalDepartmentName": "Department",
  "MRAcquisitionType": "2D",
  "MagneticFieldStrength": 3,
  "Manufacturer": "Siemens",
  "ManufacturersModelName": "Prisma",
  "Modality": "MR",
  "MultibandAccelerationFactor": 3,
  "PartialFourier": 1,
  "PatientPosition": "HFS",
  "PercentPhaseFOV": 100,
  "PercentSampling": 100,
  "PhaseEncodingDirection": "j-",
  "PhaseEncodingSteps": 100,
  "PhaseResolution": 1,
  "PixelBandwidth": 2380,
  "ProcedureStepDescription": "BNU_P2018_64CH^Zhen.ZongLei",
  "ProtocolName": "bold_100x100_s3_2x2x2_static_156",
  "PulseSequenceDetails": "%SiemensSeq%\\ep2d_bold",
  "ReceiveCoilActiveElements": "HC1-7;NC1",
  "ReceiveCoilName": "HeadNeck_64",
  "ReconMatrixPE": 100,
  "RefLinesPE": 32,
  "RepetitionTime": 2,
  "SAR": 0.0736225,
  "ScanOptions": "FS",
  "ScanningSequence": "EP",
  "SequenceName": "*epfid2d1_100",
  "SequenceVariant": "SK",
  "SeriesDescription": "bold_100x100_s3_2x2x2_static_156",
  "SeriesNumber": 15,
  "ShimSetting": [-5472, -11548, -1213, 455, -35, -171, 38, 54],
  "SliceThickness": 2,
  "SliceTiming": [1.485, 0, 0.99, 0.0825, 1.0725, 0.165, 1.155, 0.2475, 1.2375, 0.33, 1.32, 0.4125, 1.4025, 0.5775, 1.5675, 0.66, 1.65, 0.7425, 1.7325, 0.825, 1.815, 0.9075, 1.8975, 0.495, 1.485, 0, 0.99, 0.0825, 1.0725, 0.165, 1.155, 0.2475, 1.2375, 0.33, 1.32, 0.4125, 1.4025, 0.5775, 1.5675, 0.66, 1.65, 0.7425, 1.7325, 0.825, 1.815, 0.9075, 1.8975, 0.495, 1.485, 0, 0.99, 0.0825, 1.0725, 0.165, 1.155, 0.2475, 1.2375, 0.33, 1.32, 0.4125, 1.4025, 0.5775, 1.5675, 0.66, 1.65, 0.7425, 1.7325, 0.825, 1.815, 0.9075, 1.8975, 0.495],
  "SoftwareVersions": "syngo MR E11",
  "SpacingBetweenSlices": 2,
  "StationName": "AWP166078",
  "TaskName": "action",
  "TotalReadoutTime": 0.0534586,
  "TxRefAmp": 207.624,
  "dcmmeta_affine": [
    [-2.0, 0.0, 0.0, 100.0],
    [0.0, 1.9855146408081055, -0.24027368426322937, -77.40457153320312],
    [0.0, 0.24027368426322937, 1.9855146408081055, -69.3778305053711],
    [0.0, 0.0, 0.0, 1.0]
],
  "dcmmeta_reorient_transform": [
    [0.0, -1.0, 0.0, 99.0],
    [1.0, 0.0, 0.0, 0.0],
    [0.0, 0.0, 1.0, 0.0],
    [0.0, 0.0, 0.0, 1.0]
],
  "dcmmeta_shape": [100, 100, 72, 156],
  "dcmmeta_slice_dim": 2,
  "dcmmeta_version": 0.6,
  "global": {
    "const": {
      "AcquisitionMatrix": [100, 0, 0, 100],
      "AngioFlag": "N",
      "BitsAllocated": 16,
      "BitsStored": 12,
      "BodyPartExamined": "BRAIN",
      "Columns": 900,
      "EchoNumbers": 1,
      "EchoTime": 34.0,
      "EchoTrainLength": 100,
      "FlipAngle": 90.0,
      "HighBit": 11,
      "ImageOrientationPatient": [1.0, 0.0, 0.0, 0.0, 0.99275734119381, -0.1201368449136],
      "ImagePositionPatient": [-900.0, -913.3672538945, 50.518744528694],
      "ImageType": [
        "ORIGINAL",
        "PRIMARY",
        "M",
        "ND",
        "MOSAIC"
],
      "ImagedNucleus": "1H",
      "ImagingFrequency": 123.257675,
      "InPlanePhaseEncodingDirection": "COL",
      "MRAcquisitionType": "2D",
      "MagneticFieldStrength": 3.0,
      "Manufacturer": "SIEMENS",
      "ManufacturerModelName": "Prisma",
      "Modality": "MR",
      "NumberOfAverages": 1.0,
      "NumberOfPhaseEncodingSteps": 100,
      "PercentPhaseFieldOfView": 100.0,
      "PercentSampling": 100.0,
      "PerformedProcedureStepStartTime": "130048.573000",
      "PhotometricInterpretation": "MONOCHROME2",
      "PixelBandwidth": 2380.0,
      "PixelRepresentation": 0,
      "PixelSpacing": [2.0, 2.0],
      "ProtocolName": "bold_100x100_s3_2x2x2_static_156",
      "RepetitionTime": 2000.0,
      "Rows": 900,
      "SAR": 0.07362253711445,
      "SamplesPerPixel": 1,
      "ScanOptions": "FS",
      "ScanningSequence": "EP",
      "SequenceName": "*epfid2d1_100",
      "SequenceVariant": "SK",
      "SeriesDescription": "bold_100x100_s3_2x2x2_static_156",
      "SeriesNumber": 15,
      "SeriesTime": "140851.001000",
      "SliceLocation": -59.576205631537,
      "SliceThickness": 2.0,
      "SmallestImagePixelValue": 0,
      "SoftwareVersions": "syngo MR E11",
      "SpacingBetweenSlices": 1.9999999955865,
      "SpecificCharacterSet": "ISO_IR 100",
      "StudyID": "1",
      "StudyTime": "130048.474000",
      "TransmitCoilName": "Body",
      "VariableFlipAngleFlag": "N",
      "WindowCenterWidthExplanation": "Algo1",
      "dBdt": 0.0},
    "slices": {}
  },
  "time": {
    "samples": {
      "AcquisitionNumber": [1, 2, 3, 4, 5, 6, 7, 8, 9, 10, 11, 12, 13, 14, 15, 16, 17, 18, 19, 20, 21, 22, 23, 24, 25, 26, 27, 28, 29, 30, 31, 32, 33, 34, 35, 36, 37, 38, 39, 40, 41, 42, 43, 44, 45, 46, 47, 48, 49, 50, 51, 52, 53, 54, 55, 56, 57, 58, 59, 60, 61, 62, 63, 64, 65, 66, 67, 68, 69, 70, 71, 72, 73, 74, 75, 76, 77, 78, 79, 80, 81, 82, 83, 84, 85, 86, 87, 88, 89, 90, 91, 92, 93, 94, 95, 96, 97, 98, 99, 100, 101, 102, 103, 104, 105, 106, 107, 108, 109, 110, 111, 112, 113, 114, 115, 116, 117, 118, 119, 120, 121, 122, 123, 124, 125, 126, 127, 128, 129, 130, 131, 132, 133, 134, 135, 136, 137, 138, 139, 140, 141, 142, 143, 144, 145, 146, 147, 148, 149, 150, 151, 152, 153, 154, 155, 156],
      "AcquisitionTime": ["140848.865000", "140850.865000", "140852.865000", "140854.865000", "140856.865000", "140858.865000", "140900.865000", "140902.865000", "140904.865000", "140906.865000", "140908.865000", "140910.865000", "140912.865000", "140914.865000", "140916.865000", "140918.865000", "140920.865000", "140922.865000", "140924.865000", "140926.865000", "140928.865000", "140930.865000", "140932.865000", "140934.865000", "140936.865000", "140938.865000", "140940.865000", "140942.865000", "140944.865000", "140946.865000", "140948.865000", "140950.865000", "140952.865000", "140954.865000", "140956.865000", "140958.865000", "141000.865000", "141002.865000", "141004.865000", "141006.865000", "141008.865000", "141010.865000", "141012.865000", "141014.865000", "141016.865000", "141018.865000", "141020.865000", "141022.865000", "141024.865000", "141026.865000", "141028.865000", "141030.865000", "141032.865000", "141034.865000", "141036.865000", "141038.865000", "141040.865000", "141042.865000", "141044.865000", "141046.865000", "141048.865000", "141050.865000", "141052.865000", "141054.865000", "141056.865000", "141058.865000", "141100.865000", "141102.865000", "141104.865000", "141106.865000", "141108.865000", "141110.865000", "141112.865000", "141114.865000", "141116.865000", "141118.865000", "141120.865000", "141122.865000", "141124.865000", "141126.865000", "141128.865000", "141130.865000", "141132.865000", "141134.865000", "141136.865000", "141138.865000", "141140.865000", "141142.865000", "141144.865000", "141146.865000", "141148.865000", "141150.865000", "141152.865000", "141154.865000", "141156.865000", "141158.865000", "141200.865000", "141202.865000", "141204.865000", "141206.865000", "141208.865000", "141210.865000", "141212.865000", "141214.865000", "141216.865000", "141218.865000", "141220.865000", "141222.865000", "141224.865000", "141226.865000", "141228.865000", "141230.865000", "141232.865000", "141234.865000", "141236.865000", "141238.865000", "141240.865000", "141242.865000", "141244.865000", "141246.865000", "141248.865000", "141250.865000", "141252.865000", "141254.865000", "141256.865000", "141258.865000", "141300.865000", "141302.865000", "141304.865000", "141306.865000", "141308.865000", "141310.865000", "141312.865000", "141314.865000", "141316.865000", "141318.865000", "141320.865000", "141322.865000", "141324.865000", "141326.865000", "141328.865000", "141330.865000", "141332.865000", "141334.865000", "141336.865000", "141338.865000", "141340.865000", "141342.865000", "141344.865000", "141346.865000", "141348.865000", "141350.865000", "141352.865000", "141354.865000", "141356.865000", "141358.865000"],
      "ContentTime": ["140851.005000", "140852.499000", "140854.500000", "140856.500000", "140858.500000", "140900.499000", "140902.499000", "140904.498000", "140906.500000", "140908.499000", "140910.500000", "140912.499000", "140914.499000", "140916.500000", "140918.499000", "140920.499000", "140922.499000", "140924.499000", "140926.500000", "140928.500000", "140930.499000", "140932.499000", "140934.499000", "140936.500000", "140938.498000", "140940.499000", "140942.500000", "140944.500000", "140946.499000", "140948.499000", "140950.500000", "140952.500000", "140954.500000", "140956.499000", "140958.499000", "141000.499000", "141002.499000", "141004.500000", "141006.499000", "141008.500000", "141010.500000", "141012.499000", "141014.498000", "141016.499000", "141018.500000", "141020.499000", "141022.500000", "141024.500000", "141026.500000", "141028.499000", "141030.499000", "141032.498000", "141034.500000", "141036.500000", "141038.500000", "141040.500000", "141042.500000", "141044.500000", "141046.499000", "141048.499000", "141050.498000", "141052.499000", "141054.500000", "141056.500000", "141058.499000", "141100.499000", "141102.500000", "141104.499000", "141106.499000", "141108.499000", "141110.500000", "141112.500000", "141114.500000", "141116.500000", "141118.499000", "141120.500000", "141122.499000", "141124.498000", "141126.499000", "141128.500000", "141130.500000", "141132.500000", "141134.500000", "141136.500000", "141138.500000", "141140.499000", "141142.498000", "141144.499000", "141146.500000", "141148.500000", "141150.500000", "141152.500000", "141154.500000", "141156.500000", "141158.499000", "141200.498000", "141202.500000", "141204.499000", "141206.500000", "141208.500000", "141210.499000", "141212.499000", "141214.499000", "141216.499000", "141218.499000", "141220.500000", "141222.499000", "141224.500000", "141226.500000", "141228.500000", "141230.499000", "141232.499000", "141234.499000", "141236.500000", "141238.500000", "141240.499000", "141242.499000", "141244.500000", "141246.500000", "141248.499000", "141250.500000", "141252.499000", "141254.500000", "141256.500000", "141258.499000", "141300.500000", "141302.500000", "141304.499000", "141306.499000", "141308.499000", "141310.498000", "141312.500000", "141314.500000", "141316.500000", "141318.499000", "141320.499000", "141322.499000", "141324.500000", "141326.499000", "141328.500000", "141330.499000", "141332.500000", "141334.499000", "141336.499000", "141338.500000", "141340.500000", "141342.500000", "141344.498000", "141346.499000", "141348.499000", "141350.500000", "141352.500000", "141354.499000", "141356.500000", "141358.499000", "141400.325000"],
      "InstanceCreationTime": ["140851.005000", "140852.499000", "140854.500000", "140856.500000", "140858.500000", "140900.499000", "140902.499000", "140904.498000", "140906.500000", "140908.499000", "140910.500000", "140912.499000", "140914.499000", "140916.500000", "140918.499000", "140920.499000", "140922.499000", "140924.499000", "140926.500000", "140928.500000", "140930.499000", "140932.499000", "140934.499000", "140936.500000", "140938.498000", "140940.499000", "140942.500000", "140944.500000", "140946.499000", "140948.499000", "140950.500000", "140952.500000", "140954.500000", "140956.499000", "140958.499000", "141000.499000", "141002.499000", "141004.500000", "141006.499000", "141008.500000", "141010.500000", "141012.499000", "141014.498000", "141016.499000", "141018.500000", "141020.499000", "141022.500000", "141024.500000", "141026.500000", "141028.499000", "141030.499000", "141032.498000", "141034.500000", "141036.500000", "141038.500000", "141040.500000", "141042.500000", "141044.500000", "141046.499000", "141048.499000", "141050.498000", "141052.499000", "141054.500000", "141056.500000", "141058.499000", "141100.499000", "141102.500000", "141104.499000", "141106.499000", "141108.499000", "141110.500000", "141112.500000", "141114.500000", "141116.500000", "141118.499000", "141120.500000", "141122.499000", "141124.498000", "141126.499000", "141128.500000", "141130.500000", "141132.500000", "141134.500000", "141136.500000", "141138.500000", "141140.499000", "141142.498000", "141144.499000", "141146.500000", "141148.500000", "141150.500000", "141152.500000", "141154.500000", "141156.500000", "141158.499000", "141200.498000", "141202.500000", "141204.499000", "141206.500000", "141208.500000", "141210.499000", "141212.499000", "141214.499000", "141216.499000", "141218.499000", "141220.500000", "141222.499000", "141224.500000", "141226.500000", "141228.500000", "141230.499000", "141232.499000", "141234.499000", "141236.500000", "141238.500000", "141240.499000", "141242.499000", "141244.500000", "141246.500000", "141248.499000", "141250.500000", "141252.499000", "141254.500000", "141256.500000", "141258.499000", "141300.500000", "141302.500000", "141304.499000", "141306.499000", "141308.499000", "141310.498000", "141312.500000", "141314.500000", "141316.500000", "141318.499000", "141320.499000", "141322.499000", "141324.500000", "141326.499000", "141328.500000", "141330.499000", "141332.500000", "141334.499000", "141336.499000", "141338.500000", "141340.500000", "141342.500000", "141344.498000", "141346.499000", "141348.499000", "141350.500000", "141352.500000", "141354.499000", "141356.500000", "141358.499000", "141400.325000"],
      "InstanceNumber": [1, 2, 3, 4, 5, 6, 7, 8, 9, 10, 11, 12, 13, 14, 15, 16, 17, 18, 19, 20, 21, 22, 23, 24, 25, 26, 27, 28, 29, 30, 31, 32, 33, 34, 35, 36, 37, 38, 39, 40, 41, 42, 43, 44, 45, 46, 47, 48, 49, 50, 51, 52, 53, 54, 55, 56, 57, 58, 59, 60, 61, 62, 63, 64, 65, 66, 67, 68, 69, 70, 71, 72, 73, 74, 75, 76, 77, 78, 79, 80, 81, 82, 83, 84, 85, 86, 87, 88, 89, 90, 91, 92, 93, 94, 95, 96, 97, 98, 99, 100, 101, 102, 103, 104, 105, 106, 107, 108, 109, 110, 111, 112, 113, 114, 115, 116, 117, 118, 119, 120, 121, 122, 123, 124, 125, 126, 127, 128, 129, 130, 131, 132, 133, 134, 135, 136, 137, 138, 139, 140, 141, 142, 143, 144, 145, 146, 147, 148, 149, 150, 151, 152, 153, 154, 155, 156],
      "LargestImagePixelValue": [3246, 3208, 3225, 3215, 3186, 3200, 3166, 3204, 3186, 3147, 3161, 3192, 3152, 3198, 3176, 3118, 3131, 3152, 3116, 3160, 3118, 3172, 3149, 3101, 3070, 3138, 3105, 3101, 3116, 3127, 3094, 3139, 3145, 3136, 3111, 3106, 3128, 3112, 3112, 3151, 3103, 3091, 3116, 3162, 3148, 3170, 3146, 3180, 3151, 3167, 3170, 3177, 3144, 3153, 3170, 3143, 3140, 3168, 3178, 3176, 3141, 3100, 3115, 3046, 3001, 3052, 3044, 3089, 3016, 3015, 3024, 3038, 3020, 3041, 3006, 2996, 3017, 3019, 2993, 2979, 2970, 2958, 2946, 2988, 2979, 2989, 2996, 2960, 2942, 2999, 2951, 2895, 2955, 2943, 2917, 2881, 2884, 2886, 2892, 2916, 2892, 2909, 2913, 2881, 2893, 2887, 2910, 2941, 2903, 2914, 2886, 2907, 2890, 2959, 2923, 2883, 2932, 2885, 2896, 2867, 2860, 2846, 2881, 2861, 2876, 2884, 2866, 2840, 2881, 2893, 2895, 2842, 2843, 2845, 2824, 2792, 2831, 2847, 2853, 2829, 2814, 2795, 2807, 2805, 2826, 2822, 2814, 2871, 2881, 2865, 2833, 2873, 2869, 2871, 2880, 2917],
      "WindowCenter": [763.0, 763.0, 763.0, 763.0, 763.0, 763.0, 764.0, 765.0, 765.0, 764.0, 764.0, 763.0, 765.0, 765.0, 763.0, 762.0, 762.0, 762.0, 762.0, 763.0, 762.0, 764.0, 764.0, 763.0, 761.0, 761.0, 760.0, 760.0, 761.0, 761.0, 760.0, 761.0, 762.0, 762.0, 761.0, 761.0, 762.0, 761.0, 762.0, 762.0, 761.0, 761.0, 761.0, 761.0, 761.0, 761.0, 762.0, 761.0, 761.0, 760.0, 761.0, 760.0, 760.0, 760.0, 760.0, 760.0, 761.0, 762.0, 762.0, 763.0, 763.0, 762.0, 761.0, 760.0, 760.0, 761.0, 762.0, 762.0, 762.0, 761.0, 760.0, 761.0, 761.0, 760.0, 760.0, 761.0, 762.0, 762.0, 762.0, 761.0, 761.0, 760.0, 760.0, 760.0, 760.0, 761.0, 761.0, 760.0, 759.0, 760.0, 760.0, 760.0, 760.0, 759.0, 759.0, 757.0, 758.0, 758.0, 759.0, 759.0, 759.0, 759.0, 759.0, 759.0, 759.0, 758.0, 759.0, 760.0, 760.0, 759.0, 759.0, 758.0, 759.0, 760.0, 760.0, 759.0, 759.0, 758.0, 759.0, 759.0, 758.0, 757.0, 760.0, 761.0, 761.0, 761.0, 759.0, 758.0, 758.0, 760.0, 761.0, 759.0, 758.0, 757.0, 758.0, 759.0, 759.0, 759.0, 759.0, 758.0, 759.0, 759.0, 759.0, 759.0, 759.0, 758.0, 758.0, 759.0, 759.0, 758.0, 757.0, 757.0, 758.0, 760.0, 760.0, 759.0],
      "WindowWidth": [1646.0, 1645.0, 1646.0, 1645.0, 1645.0, 1645.0, 1647.0, 1649.0, 1650.0, 1646.0, 1646.0, 1646.0, 1650.0, 1649.0, 1646.0, 1641.0, 1642.0, 1642.0, 1643.0, 1644.0, 1642.0, 1646.0, 1647.0, 1645.0, 1640.0, 1638.0, 1636.0, 1638.0, 1640.0, 1639.0, 1636.0, 1640.0, 1643.0, 1642.0, 1640.0, 1639.0, 1641.0, 1641.0, 1641.0, 1642.0, 1641.0, 1640.0, 1640.0, 1641.0, 1640.0, 1640.0, 1641.0, 1640.0, 1638.0, 1636.0, 1639.0, 1638.0, 1636.0, 1636.0, 1636.0, 1638.0, 1640.0, 1643.0, 1643.0, 1644.0, 1643.0, 1641.0, 1639.0, 1637.0, 1636.0, 1640.0, 1642.0, 1642.0, 1640.0, 1638.0, 1637.0, 1639.0, 1639.0, 1638.0, 1637.0, 1638.0, 1641.0, 1642.0, 1641.0, 1640.0, 1639.0, 1637.0, 1636.0, 1636.0, 1637.0, 1639.0, 1638.0, 1636.0, 1634.0, 1637.0, 1637.0, 1636.0, 1636.0, 1634.0, 1633.0, 1629.0, 1630.0, 1631.0, 1633.0, 1633.0, 1634.0, 1633.0, 1635.0, 1635.0, 1635.0, 1631.0, 1635.0, 1638.0, 1637.0, 1634.0, 1633.0, 1631.0, 1634.0, 1636.0, 1636.0, 1633.0, 1634.0, 1632.0, 1633.0, 1632.0, 1631.0, 1630.0, 1638.0, 1641.0, 1640.0, 1638.0, 1634.0, 1630.0, 1632.0, 1636.0, 1639.0, 1634.0, 1631.0, 1629.0, 1632.0, 1633.0, 1635.0, 1633.0, 1633.0, 1632.0, 1634.0, 1633.0, 1633.0, 1635.0, 1635.0, 1632.0, 1631.0, 1633.0, 1633.0, 1631.0, 1628.0, 1630.0, 1631.0, 1636.0, 1636.0, 1635.0]
    },
    "slices": {}
  }
}