{
  "AcquisitionMatrixPE": 100,
  "AcquisitionNumber": 1,
  "AcquisitionTime": "13:43:35.475000",
  "BandwidthPerPixelPhaseEncode": 18.519,
  "BaseResolution": 100,
  "BodyPartExamined": "BRAIN",
  "CoilCombinationMethod": "Sum of Squares",
  "ConsistencyInfo": "N4_VE11C_LATEST_20160120",
  "ConversionSoftware": "dcm2niix",
  "ConversionSoftwareVersion": "v1.0.20211006",
  "DerivedVendorReportedEchoSpacing": 0.000539986,
  "DeviceSerialNumber": "166078",
  "DwellTime": 2.1e-06,
  "EchoTime": 0.034,
  "EchoTrainLength": 100,
  "EffectiveEchoSpacing": 0.000539986,
  "FlipAngle": 90,
  "ImageOrientationPatientDICOM": [1, 0, 0, 0, 0.992757, -0.120137],
  "ImageOrientationText": "Tra>Cor(-6.9)",
  "ImageType": [
    "ORIGINAL",
    "PRIMARY",
    "M",
    "ND",
    "MOSAIC"
],
  "ImagingFrequency": 123.258,
  "InPlanePhaseEncodingDirectionDICOM": "COL",
  "InstitutionAddress": "Street StreetNo,Bei Jing,District,CN,ZIP",
  "InstitutionName": "BeiJing Normal University",
  "InstitutionalDepartmentName": "Department",
  "MRAcquisitionType": "2D",
  "MagneticFieldStrength": 3,
  "Manufacturer": "Siemens",
  "ManufacturersModelName": "Prisma",
  "Modality": "MR",
  "MultibandAccelerationFactor": 3,
  "PartialFourier": 1,
  "PatientPosition": "HFS",
  "PercentPhaseFOV": 100,
  "PercentSampling": 100,
  "PhaseEncodingDirection": "j-",
  "PhaseEncodingSteps": 100,
  "PhaseResolution": 1,
  "PixelBandwidth": 2380,
  "ProcedureStepDescription": "BNU_P2018_64CH^Zhen.ZongLei",
  "ProtocolName": "bold_100x100_s3_2x2x2_static_156",
  "PulseSequenceDetails": "%SiemensSeq%\\ep2d_bold",
  "ReceiveCoilActiveElements": "HC1-7;NC1",
  "ReceiveCoilName": "HeadNeck_64",
  "ReconMatrixPE": 100,
  "RefLinesPE": 32,
  "RepetitionTime": 2,
  "SAR": 0.0736225,
  "ScanOptions": "FS",
  "ScanningSequence": "EP",
  "SequenceName": "*epfid2d1_100",
  "SequenceVariant": "SK",
  "SeriesDescription": "bold_100x100_s3_2x2x2_static_156",
  "SeriesNumber": 11,
  "ShimSetting": [-5472, -11548, -1213, 455, -35, -171, 38, 54],
  "SliceThickness": 2,
  "SliceTiming": [1.485, 0, 0.99, 0.0825, 1.0725, 0.165, 1.155, 0.2475, 1.2375, 0.33, 1.32, 0.4125, 1.4025, 0.5775, 1.5675, 0.66, 1.65, 0.7425, 1.7325, 0.825, 1.815, 0.9075, 1.8975, 0.495, 1.485, 0, 0.99, 0.0825, 1.0725, 0.165, 1.155, 0.2475, 1.2375, 0.33, 1.32, 0.4125, 1.4025, 0.5775, 1.5675, 0.66, 1.65, 0.7425, 1.7325, 0.825, 1.815, 0.9075, 1.8975, 0.495, 1.485, 0, 0.99, 0.0825, 1.0725, 0.165, 1.155, 0.2475, 1.2375, 0.33, 1.32, 0.4125, 1.4025, 0.5775, 1.5675, 0.66, 1.65, 0.7425, 1.7325, 0.825, 1.815, 0.9075, 1.8975, 0.495],
  "SoftwareVersions": "syngo MR E11",
  "SpacingBetweenSlices": 2,
  "StationName": "AWP166078",
  "TaskName": "action",
  "TotalReadoutTime": 0.0534586,
  "TxRefAmp": 207.624,
  "dcmmeta_affine": [
    [-2.0, 0.0, 0.0, 100.0],
    [0.0, 1.9855146408081055, -0.24027368426322937, -77.40457153320312],
    [0.0, 0.24027368426322937, 1.9855146408081055, -69.3778305053711],
    [0.0, 0.0, 0.0, 1.0]
],
  "dcmmeta_reorient_transform": [
    [0.0, -1.0, 0.0, 99.0],
    [1.0, 0.0, 0.0, 0.0],
    [0.0, 0.0, 1.0, 0.0],
    [0.0, 0.0, 0.0, 1.0]
],
  "dcmmeta_shape": [100, 100, 72, 156],
  "dcmmeta_slice_dim": 2,
  "dcmmeta_version": 0.6,
  "global": {
    "const": {
      "AcquisitionMatrix": [100, 0, 0, 100],
      "AngioFlag": "N",
      "BitsAllocated": 16,
      "BitsStored": 12,
      "BodyPartExamined": "BRAIN",
      "Columns": 900,
      "EchoNumbers": 1,
      "EchoTime": 34.0,
      "EchoTrainLength": 100,
      "FlipAngle": 90.0,
      "HighBit": 11,
      "ImageOrientationPatient": [1.0, 0.0, 0.0, 0.0, 0.99275734119381, -0.1201368449136],
      "ImagePositionPatient": [-900.0, -913.3672538945, 50.518744528694],
      "ImageType": [
        "ORIGINAL",
        "PRIMARY",
        "M",
        "ND",
        "MOSAIC"
],
      "ImagedNucleus": "1H",
      "ImagingFrequency": 123.257662,
      "InPlanePhaseEncodingDirection": "COL",
      "MRAcquisitionType": "2D",
      "MagneticFieldStrength": 3.0,
      "Manufacturer": "SIEMENS",
      "ManufacturerModelName": "Prisma",
      "Modality": "MR",
      "NumberOfAverages": 1.0,
      "NumberOfPhaseEncodingSteps": 100,
      "PercentPhaseFieldOfView": 100.0,
      "PercentSampling": 100.0,
      "PerformedProcedureStepStartTime": "130048.573000",
      "PhotometricInterpretation": "MONOCHROME2",
      "PixelBandwidth": 2380.0,
      "PixelRepresentation": 0,
      "PixelSpacing": [2.0, 2.0],
      "ProtocolName": "bold_100x100_s3_2x2x2_static_156",
      "RepetitionTime": 2000.0,
      "Rows": 900,
      "SAR": 0.07362253711445,
      "SamplesPerPixel": 1,
      "ScanOptions": "FS",
      "ScanningSequence": "EP",
      "SequenceName": "*epfid2d1_100",
      "SequenceVariant": "SK",
      "SeriesDescription": "bold_100x100_s3_2x2x2_static_156",
      "SeriesNumber": 11,
      "SeriesTime": "134337.612000",
      "SliceLocation": -59.576205631537,
      "SliceThickness": 2.0,
      "SmallestImagePixelValue": 0,
      "SoftwareVersions": "syngo MR E11",
      "SpacingBetweenSlices": 1.9999999955865,
      "SpecificCharacterSet": "ISO_IR 100",
      "StudyID": "1",
      "StudyTime": "130048.474000",
      "TransmitCoilName": "Body",
      "VariableFlipAngleFlag": "N",
      "WindowCenterWidthExplanation": "Algo1",
      "dBdt": 0.0},
    "slices": {}
  },
  "time": {
    "samples": {
      "AcquisitionNumber": [1, 2, 3, 4, 5, 6, 7, 8, 9, 10, 11, 12, 13, 14, 15, 16, 17, 18, 19, 20, 21, 22, 23, 24, 25, 26, 27, 28, 29, 30, 31, 32, 33, 34, 35, 36, 37, 38, 39, 40, 41, 42, 43, 44, 45, 46, 47, 48, 49, 50, 51, 52, 53, 54, 55, 56, 57, 58, 59, 60, 61, 62, 63, 64, 65, 66, 67, 68, 69, 70, 71, 72, 73, 74, 75, 76, 77, 78, 79, 80, 81, 82, 83, 84, 85, 86, 87, 88, 89, 90, 91, 92, 93, 94, 95, 96, 97, 98, 99, 100, 101, 102, 103, 104, 105, 106, 107, 108, 109, 110, 111, 112, 113, 114, 115, 116, 117, 118, 119, 120, 121, 122, 123, 124, 125, 126, 127, 128, 129, 130, 131, 132, 133, 134, 135, 136, 137, 138, 139, 140, 141, 142, 143, 144, 145, 146, 147, 148, 149, 150, 151, 152, 153, 154, 155, 156],
      "AcquisitionTime": ["134335.475000", "134337.475000", "134339.475000", "134341.475000", "134343.475000", "134345.475000", "134347.475000", "134349.475000", "134351.475000", "134353.475000", "134355.475000", "134357.475000", "134359.475000", "134401.475000", "134403.475000", "134405.475000", "134407.475000", "134409.475000", "134411.475000", "134413.475000", "134415.475000", "134417.475000", "134419.475000", "134421.475000", "134423.475000", "134425.475000", "134427.475000", "134429.475000", "134431.475000", "134433.475000", "134435.475000", "134437.475000", "134439.475000", "134441.475000", "134443.475000", "134445.475000", "134447.475000", "134449.475000", "134451.475000", "134453.475000", "134455.475000", "134457.475000", "134459.475000", "134501.475000", "134503.475000", "134505.475000", "134507.475000", "134509.475000", "134511.475000", "134513.475000", "134515.475000", "134517.475000", "134519.475000", "134521.475000", "134523.475000", "134525.475000", "134527.475000", "134529.475000", "134531.475000", "134533.475000", "134535.475000", "134537.475000", "134539.475000", "134541.475000", "134543.475000", "134545.475000", "134547.475000", "134549.475000", "134551.475000", "134553.475000", "134555.475000", "134557.475000", "134559.475000", "134601.475000", "134603.475000", "134605.475000", "134607.475000", "134609.475000", "134611.475000", "134613.475000", "134615.475000", "134617.475000", "134619.475000", "134621.475000", "134623.475000", "134625.475000", "134627.475000", "134629.475000", "134631.475000", "134633.475000", "134635.475000", "134637.475000", "134639.475000", "134641.475000", "134643.475000", "134645.475000", "134647.475000", "134649.475000", "134651.475000", "134653.475000", "134655.475000", "134657.475000", "134659.475000", "134701.475000", "134703.475000", "134705.475000", "134707.475000", "134709.475000", "134711.475000", "134713.475000", "134715.475000", "134717.475000", "134719.475000", "134721.475000", "134723.475000", "134725.475000", "134727.475000", "134729.475000", "134731.475000", "134733.475000", "134735.475000", "134737.475000", "134739.475000", "134741.475000", "134743.475000", "134745.475000", "134747.475000", "134749.475000", "134751.475000", "134753.475000", "134755.475000", "134757.475000", "134759.475000", "134801.475000", "134803.475000", "134805.475000", "134807.475000", "134809.475000", "134811.475000", "134813.475000", "134815.475000", "134817.475000", "134819.475000", "134821.475000", "134823.475000", "134825.475000", "134827.475000", "134829.475000", "134831.475000", "134833.475000", "134835.475000", "134837.475000", "134839.475000", "134841.475000", "134843.475000", "134845.475000"],
      "ContentTime": ["134337.616000", "134339.112000", "134341.111000", "134343.610000", "134345.111000", "134347.612000", "134349.611000", "134351.612000", "134353.111000", "134355.111000", "134357.111000", "134359.111000", "134401.111000", "134403.112000", "134405.111000", "134407.111000", "134409.111000", "134411.111000", "134413.111000", "134415.111000", "134417.611000", "134419.110000", "134421.612000", "134423.611000", "134425.111000", "134427.111000", "134429.111000", "134431.112000", "134433.111000", "134435.110000", "134437.111000", "134439.111000", "134441.612000", "134443.611000", "134445.111000", "134447.111000", "134449.111000", "134451.112000", "134453.110000", "134455.112000", "134457.112000", "134459.112000", "134501.612000", "134503.111000", "134505.111000", "134507.111000", "134509.111000", "134511.110000", "134513.112000", "134515.612000", "134517.112000", "134519.111000", "134521.111000", "134523.112000", "134525.112000", "134527.111000", "134529.612000", "134531.112000", "134533.111000", "134535.111000", "134537.112000", "134539.111000", "134541.111000", "134543.611000", "134545.111000", "134547.112000", "134549.111000", "134551.112000", "134553.111000", "134555.112000", "134557.111000", "134559.112000", "134601.111000", "134603.111000", "134605.111000", "134607.612000", "134609.111000", "134611.611000", "134613.112000", "134615.112000", "134617.111000", "134619.111000", "134621.610000", "134623.111000", "134625.111000", "134627.111000", "134629.112000", "134631.111000", "134633.611000", "134635.112000", "134637.610000", "134639.110000", "134641.612000", "134643.111000", "134645.612000", "134647.111000", "134649.111000", "134651.112000", "134653.111000", "134655.610000", "134657.112000", "134659.611000", "134701.112000", "134703.112000", "134705.112000", "134707.112000", "134709.111000", "134711.111000", "134713.611000", "134715.612000", "134717.112000", "134719.112000", "134721.112000", "134723.111000", "134725.111000", "134727.111000", "134729.110000", "134731.611000", "134733.611000", "134735.111000", "134737.111000", "134739.112000", "134741.112000", "134743.111000", "134745.612000", "134747.110000", "134749.612000", "134751.111000", "134753.112000", "134755.111000", "134757.112000", "134759.112000", "134801.612000", "134803.111000", "134805.110000", "134807.112000", "134809.112000", "134811.112000", "134813.111000", "134815.612000", "134817.111000", "134819.112000", "134821.111000", "134823.611000", "134825.111000", "134827.112000", "134829.611000", "134831.112000", "134833.111000", "134835.111000", "134837.111000", "134839.610000", "134841.110000", "134843.111000", "134845.111000", "134847.029000"],
      "InstanceCreationTime": ["134337.616000", "134339.112000", "134341.111000", "134343.610000", "134345.111000", "134347.612000", "134349.611000", "134351.612000", "134353.111000", "134355.111000", "134357.111000", "134359.111000", "134401.111000", "134403.112000", "134405.111000", "134407.111000", "134409.111000", "134411.111000", "134413.111000", "134415.111000", "134417.611000", "134419.110000", "134421.612000", "134423.611000", "134425.111000", "134427.111000", "134429.111000", "134431.112000", "134433.111000", "134435.110000", "134437.111000", "134439.111000", "134441.612000", "134443.611000", "134445.111000", "134447.111000", "134449.111000", "134451.112000", "134453.110000", "134455.112000", "134457.112000", "134459.112000", "134501.612000", "134503.111000", "134505.111000", "134507.111000", "134509.111000", "134511.110000", "134513.112000", "134515.612000", "134517.112000", "134519.111000", "134521.111000", "134523.112000", "134525.112000", "134527.111000", "134529.612000", "134531.112000", "134533.111000", "134535.111000", "134537.112000", "134539.111000", "134541.111000", "134543.611000", "134545.111000", "134547.112000", "134549.111000", "134551.112000", "134553.111000", "134555.112000", "134557.111000", "134559.112000", "134601.111000", "134603.111000", "134605.111000", "134607.612000", "134609.111000", "134611.611000", "134613.112000", "134615.112000", "134617.111000", "134619.111000", "134621.610000", "134623.111000", "134625.111000", "134627.111000", "134629.112000", "134631.111000", "134633.611000", "134635.112000", "134637.610000", "134639.110000", "134641.612000", "134643.111000", "134645.612000", "134647.111000", "134649.111000", "134651.112000", "134653.111000", "134655.610000", "134657.112000", "134659.611000", "134701.112000", "134703.112000", "134705.112000", "134707.112000", "134709.111000", "134711.111000", "134713.611000", "134715.612000", "134717.112000", "134719.112000", "134721.112000", "134723.111000", "134725.111000", "134727.111000", "134729.110000", "134731.611000", "134733.611000", "134735.111000", "134737.111000", "134739.112000", "134741.112000", "134743.111000", "134745.612000", "134747.110000", "134749.612000", "134751.111000", "134753.112000", "134755.111000", "134757.112000", "134759.112000", "134801.612000", "134803.111000", "134805.110000", "134807.112000", "134809.112000", "134811.112000", "134813.111000", "134815.612000", "134817.111000", "134819.112000", "134821.111000", "134823.611000", "134825.111000", "134827.112000", "134829.611000", "134831.112000", "134833.111000", "134835.111000", "134837.111000", "134839.610000", "134841.110000", "134843.111000", "134845.111000", "134847.029000"],
      "InstanceNumber": [1, 2, 3, 4, 5, 6, 7, 8, 9, 10, 11, 12, 13, 14, 15, 16, 17, 18, 19, 20, 21, 22, 23, 24, 25, 26, 27, 28, 29, 30, 31, 32, 33, 34, 35, 36, 37, 38, 39, 40, 41, 42, 43, 44, 45, 46, 47, 48, 49, 50, 51, 52, 53, 54, 55, 56, 57, 58, 59, 60, 61, 62, 63, 64, 65, 66, 67, 68, 69, 70, 71, 72, 73, 74, 75, 76, 77, 78, 79, 80, 81, 82, 83, 84, 85, 86, 87, 88, 89, 90, 91, 92, 93, 94, 95, 96, 97, 98, 99, 100, 101, 102, 103, 104, 105, 106, 107, 108, 109, 110, 111, 112, 113, 114, 115, 116, 117, 118, 119, 120, 121, 122, 123, 124, 125, 126, 127, 128, 129, 130, 131, 132, 133, 134, 135, 136, 137, 138, 139, 140, 141, 142, 143, 144, 145, 146, 147, 148, 149, 150, 151, 152, 153, 154, 155, 156],
      "LargestImagePixelValue": [2971, 2901, 2923, 2869, 2853, 2881, 2910, 2906, 2915, 2946, 2939, 2975, 3025, 2976, 2925, 2959, 2949, 3048, 3008, 3006, 2942, 2961, 2941, 2974, 2994, 2954, 2947, 2944, 2924, 2957, 2984, 2951, 2912, 2928, 2887, 2927, 2922, 2912, 2874, 2912, 2945, 2944, 2937, 2933, 2974, 2931, 2944, 2922, 2954, 2989, 3018, 2995, 3031, 3030, 3026, 2987, 2998, 2981, 2955, 3005, 2941, 2949, 2937, 2952, 2963, 3008, 3008, 3038, 3017, 3038, 2971, 3025, 2950, 2986, 2972, 2982, 2991, 2931, 2972, 2978, 2953, 2914, 2976, 2905, 2907, 2924, 2961, 3001, 3008, 3025, 3015, 2987, 2999, 2984, 2962, 2972, 2944, 2989, 2953, 2934, 2945, 2918, 2972, 2941, 2883, 2905, 2913, 2907, 2905, 2935, 2925, 2954, 2998, 2978, 2975, 2935, 2974, 2988, 3005, 2961, 2971, 2969, 2966, 2996, 2989, 2985, 2958, 2939, 2989, 2976, 2954, 2924, 2906, 2971, 2954, 2968, 2937, 2995, 3011, 3027, 2984, 3007, 2967, 2988, 2958, 2997, 2972, 2996, 2943, 2946, 3005, 3013, 2992, 2972, 2932, 2980],
      "WindowCenter": [752.0, 751.0, 751.0, 751.0, 751.0, 751.0, 751.0, 751.0, 752.0, 753.0, 754.0, 755.0, 756.0, 756.0, 754.0, 753.0, 753.0, 754.0, 755.0, 756.0, 754.0, 754.0, 752.0, 753.0, 754.0, 754.0, 752.0, 752.0, 751.0, 751.0, 752.0, 753.0, 752.0, 751.0, 751.0, 751.0, 752.0, 751.0, 750.0, 751.0, 751.0, 751.0, 750.0, 750.0, 751.0, 752.0, 751.0, 750.0, 750.0, 751.0, 752.0, 752.0, 752.0, 752.0, 751.0, 751.0, 751.0, 751.0, 752.0, 753.0, 752.0, 752.0, 751.0, 751.0, 751.0, 752.0, 752.0, 752.0, 752.0, 752.0, 753.0, 753.0, 752.0, 752.0, 753.0, 752.0, 752.0, 751.0, 751.0, 752.0, 753.0, 751.0, 750.0, 749.0, 749.0, 750.0, 749.0, 748.0, 750.0, 752.0, 751.0, 750.0, 750.0, 750.0, 750.0, 751.0, 752.0, 752.0, 751.0, 751.0, 752.0, 752.0, 751.0, 750.0, 750.0, 750.0, 752.0, 751.0, 751.0, 751.0, 752.0, 752.0, 751.0, 752.0, 752.0, 752.0, 753.0, 755.0, 755.0, 752.0, 751.0, 751.0, 752.0, 753.0, 753.0, 751.0, 749.0, 748.0, 750.0, 753.0, 752.0, 750.0, 750.0, 750.0, 750.0, 750.0, 750.0, 752.0, 752.0, 751.0, 750.0, 751.0, 749.0, 750.0, 749.0, 750.0, 750.0, 752.0, 752.0, 751.0, 749.0, 748.0, 748.0, 749.0, 749.0, 749.0],
      "WindowWidth": [1615.0, 1613.0, 1612.0, 1612.0, 1612.0, 1612.0, 1612.0, 1613.0, 1614.0, 1618.0, 1621.0, 1624.0, 1625.0, 1624.0, 1619.0, 1618.0, 1618.0, 1621.0, 1624.0, 1625.0, 1621.0, 1620.0, 1615.0, 1619.0, 1620.0, 1619.0, 1616.0, 1615.0, 1613.0, 1613.0, 1616.0, 1616.0, 1614.0, 1613.0, 1612.0, 1613.0, 1614.0, 1612.0, 1609.0, 1611.0, 1613.0, 1613.0, 1610.0, 1611.0, 1613.0, 1615.0, 1612.0, 1610.0, 1610.0, 1612.0, 1615.0, 1616.0, 1615.0, 1615.0, 1614.0, 1611.0, 1612.0, 1613.0, 1616.0, 1617.0, 1616.0, 1615.0, 1613.0, 1611.0, 1611.0, 1615.0, 1615.0, 1615.0, 1615.0, 1616.0, 1617.0, 1616.0, 1615.0, 1615.0, 1617.0, 1616.0, 1615.0, 1614.0, 1613.0, 1616.0, 1617.0, 1614.0, 1609.0, 1608.0, 1609.0, 1609.0, 1606.0, 1605.0, 1611.0, 1616.0, 1614.0, 1609.0, 1610.0, 1609.0, 1610.0, 1612.0, 1614.0, 1614.0, 1613.0, 1613.0, 1614.0, 1614.0, 1612.0, 1611.0, 1611.0, 1611.0, 1614.0, 1612.0, 1612.0, 1612.0, 1614.0, 1615.0, 1613.0, 1615.0, 1614.0, 1615.0, 1619.0, 1622.0, 1622.0, 1616.0, 1612.0, 1612.0, 1615.0, 1619.0, 1617.0, 1610.0, 1606.0, 1604.0, 1609.0, 1616.0, 1616.0, 1610.0, 1609.0, 1610.0, 1610.0, 1609.0, 1610.0, 1614.0, 1614.0, 1611.0, 1610.0, 1612.0, 1608.0, 1608.0, 1606.0, 1609.0, 1609.0, 1615.0, 1616.0, 1613.0, 1608.0, 1606.0, 1605.0, 1607.0, 1607.0, 1607.0]
    },
    "slices": {}
  }
}