{
  "AcquisitionMatrixPE": 100,
  "AcquisitionNumber": 1,
  "AcquisitionTime": "14:18:50.502500",
  "BandwidthPerPixelPhaseEncode": 18.519,
  "BaseResolution": 100,
  "BodyPartExamined": "BRAIN",
  "CoilCombinationMethod": "Sum of Squares",
  "ConsistencyInfo": "N4_VE11C_LATEST_20160120",
  "ConversionSoftware": "dcm2niix",
  "ConversionSoftwareVersion": "v1.0.20211006",
  "DerivedVendorReportedEchoSpacing": 0.000539986,
  "DeviceSerialNumber": "166078",
  "DwellTime": 2.1e-06,
  "EchoTime": 0.034,
  "EchoTrainLength": 100,
  "EffectiveEchoSpacing": 0.000539986,
  "FlipAngle": 90,
  "ImageOrientationPatientDICOM": [0.999507, -0.00523832, -0.0309709, -1.05599e-08, 0.985996, -0.166769],
  "ImageOrientationText": "Tra>Cor(-9.6)>Sag(-1.8)",
  "ImageType": [
    "ORIGINAL",
    "PRIMARY",
    "M",
    "ND",
    "MOSAIC"
],
  "ImagingFrequency": 123.258,
  "InPlanePhaseEncodingDirectionDICOM": "COL",
  "InstitutionAddress": "Street StreetNo,Bei Jing,District,CN,ZIP",
  "InstitutionName": "BeiJing Normal University",
  "InstitutionalDepartmentName": "Department",
  "MRAcquisitionType": "2D",
  "MagneticFieldStrength": 3,
  "Manufacturer": "Siemens",
  "ManufacturersModelName": "Prisma",
  "Modality": "MR",
  "MultibandAccelerationFactor": 3,
  "PartialFourier": 1,
  "PatientPosition": "HFS",
  "PercentPhaseFOV": 100,
  "PercentSampling": 100,
  "PhaseEncodingDirection": "j-",
  "PhaseEncodingSteps": 100,
  "PhaseResolution": 1,
  "PixelBandwidth": 2380,
  "ProcedureStepDescription": "BNU_P2018_64CH^Zhen.ZongLei",
  "ProtocolName": "bold_100x100_s3_2x2x2_static_156",
  "PulseSequenceDetails": "%SiemensSeq%\\ep2d_bold",
  "ReceiveCoilActiveElements": "HC1-7;NC1",
  "ReceiveCoilName": "HeadNeck_64",
  "ReconMatrixPE": 100,
  "RefLinesPE": 32,
  "RepetitionTime": 2,
  "SAR": 0.066257,
  "ScanOptions": "FS",
  "ScanningSequence": "EP",
  "SequenceName": "*epfid2d1_100",
  "SequenceVariant": "SK",
  "SeriesDescription": "bold_100x100_s3_2x2x2_static_156",
  "SeriesNumber": 17,
  "ShimSetting": [-5457, -11489, -1258, 333, -5, -153, -189, 57],
  "SliceThickness": 2,
  "SliceTiming": [1.485, 0, 0.99, 0.0825, 1.0725, 0.165, 1.155, 0.2475, 1.2375, 0.33, 1.32, 0.4125, 1.4025, 0.5775, 1.5675, 0.66, 1.65, 0.7425, 1.7325, 0.825, 1.815, 0.9075, 1.8975, 0.495, 1.485, 0, 0.99, 0.0825, 1.0725, 0.165, 1.155, 0.2475, 1.2375, 0.33, 1.32, 0.4125, 1.4025, 0.5775, 1.5675, 0.66, 1.65, 0.7425, 1.7325, 0.825, 1.815, 0.9075, 1.8975, 0.495, 1.485, 0, 0.99, 0.0825, 1.0725, 0.165, 1.155, 0.2475, 1.2375, 0.33, 1.32, 0.4125, 1.4025, 0.5775, 1.5675, 0.66, 1.65, 0.7425, 1.7325, 0.825, 1.815, 0.9075, 1.8975, 0.495],
  "SoftwareVersions": "syngo MR E11",
  "SpacingBetweenSlices": 2,
  "StationName": "AWP166078",
  "TaskName": "action",
  "TotalReadoutTime": 0.0534586,
  "TxRefAmp": 213.373,
  "dcmmeta_affine": [
    [-1.999013066291809, -2.1119825888149535e-08, -0.06282152980566025, 102.18082427978516],
    [0.01047664787620306, 1.971992015838623, -0.33337292075157166, -83.14752960205078],
    [-0.061941783875226974, 0.3335374891757965, 1.9710190296173096, -78.25739288330078],
    [0.0, 0.0, 0.0, 1.0]
],
  "dcmmeta_reorient_transform": [
    [0.0, -1.0, 0.0, 99.0],
    [1.0, 0.0, 0.0, 0.0],
    [0.0, 0.0, 1.0, 0.0],
    [0.0, 0.0, 0.0, 1.0]
],
  "dcmmeta_shape": [100, 100, 72, 156],
  "dcmmeta_slice_dim": 2,
  "dcmmeta_version": 0.6,
  "global": {
    "const": {
      "AcquisitionMatrix": [100, 0, 0, 100],
      "AngioFlag": "N",
      "BitsAllocated": 16,
      "BitsStored": 12,
      "BodyPartExamined": "BRAIN",
      "Columns": 900,
      "EchoNumbers": 1,
      "EchoTime": 34.0,
      "EchoTrainLength": 100,
      "FlipAngle": 90.0,
      "HighBit": 11,
      "ImageOrientationPatient": [0.9995065601566, -0.0052383237284, -0.0309708922772, -1.0559913e-08, 0.98599603652883, -0.1667687499187],
      "ImagePositionPatient": [-901.78605844966, -896.68585635347, 112.95453143092],
      "ImageType": [
        "ORIGINAL",
        "PRIMARY",
        "M",
        "ND",
        "MOSAIC"
],
      "ImagedNucleus": "1H",
      "ImagingFrequency": 123.257701,
      "InPlanePhaseEncodingDirection": "COL",
      "MRAcquisitionType": "2D",
      "MagneticFieldStrength": 3.0,
      "Manufacturer": "SIEMENS",
      "ManufacturerModelName": "Prisma",
      "Modality": "MR",
      "NumberOfAverages": 1.0,
      "NumberOfPhaseEncodingSteps": 100,
      "PercentPhaseFieldOfView": 100.0,
      "PercentSampling": 100.0,
      "PerformedProcedureStepStartTime": "125015.696000",
      "PhotometricInterpretation": "MONOCHROME2",
      "PixelBandwidth": 2380.0,
      "PixelRepresentation": 0,
      "PixelSpacing": [2.0, 2.0],
      "ProtocolName": "bold_100x100_s3_2x2x2_static_156",
      "RepetitionTime": 2000.0,
      "Rows": 900,
      "SAR": 0.06625700620337,
      "SamplesPerPixel": 1,
      "ScanOptions": "FS",
      "ScanningSequence": "EP",
      "SequenceName": "*epfid2d1_100",
      "SequenceVariant": "SK",
      "SeriesDescription": "bold_100x100_s3_2x2x2_static_156",
      "SeriesNumber": 17,
      "SeriesTime": "141852.850000",
      "SliceLocation": -66.473417106135,
      "SliceThickness": 2.0,
      "SmallestImagePixelValue": 0,
      "SoftwareVersions": "syngo MR E11",
      "SpacingBetweenSlices": 2.0000000300821,
      "SpecificCharacterSet": "ISO_IR 100",
      "StudyID": "1",
      "StudyTime": "125015.602000",
      "TransmitCoilName": "Body",
      "VariableFlipAngleFlag": "N",
      "WindowCenterWidthExplanation": "Algo1",
      "dBdt": 0.0},
    "slices": {}
  },
  "time": {
    "samples": {
      "AcquisitionNumber": [1, 2, 3, 4, 5, 6, 7, 8, 9, 10, 11, 12, 13, 14, 15, 16, 17, 18, 19, 20, 21, 22, 23, 24, 25, 26, 27, 28, 29, 30, 31, 32, 33, 34, 35, 36, 37, 38, 39, 40, 41, 42, 43, 44, 45, 46, 47, 48, 49, 50, 51, 52, 53, 54, 55, 56, 57, 58, 59, 60, 61, 62, 63, 64, 65, 66, 67, 68, 69, 70, 71, 72, 73, 74, 75, 76, 77, 78, 79, 80, 81, 82, 83, 84, 85, 86, 87, 88, 89, 90, 91, 92, 93, 94, 95, 96, 97, 98, 99, 100, 101, 102, 103, 104, 105, 106, 107, 108, 109, 110, 111, 112, 113, 114, 115, 116, 117, 118, 119, 120, 121, 122, 123, 124, 125, 126, 127, 128, 129, 130, 131, 132, 133, 134, 135, 136, 137, 138, 139, 140, 141, 142, 143, 144, 145, 146, 147, 148, 149, 150, 151, 152, 153, 154, 155, 156],
      "AcquisitionTime": ["141850.502500", "141852.502500", "141854.502500", "141856.502500", "141858.502500", "141900.502500", "141902.502500", "141904.502500", "141906.502500", "141908.502500", "141910.502500", "141912.502500", "141914.502500", "141916.502500", "141918.502500", "141920.502500", "141922.502500", "141924.502500", "141926.502500", "141928.502500", "141930.502500", "141932.502500", "141934.502500", "141936.502500", "141938.502500", "141940.502500", "141942.502500", "141944.502500", "141946.502500", "141948.502500", "141950.502500", "141952.502500", "141954.502500", "141956.502500", "141958.502500", "142000.502500", "142002.502500", "142004.502500", "142006.502500", "142008.502500", "142010.502500", "142012.502500", "142014.502500", "142016.502500", "142018.502500", "142020.502500", "142022.502500", "142024.502500", "142026.502500", "142028.502500", "142030.502500", "142032.502500", "142034.502500", "142036.502500", "142038.502500", "142040.502500", "142042.502500", "142044.502500", "142046.502500", "142048.502500", "142050.502500", "142052.502500", "142054.502500", "142056.502500", "142058.502500", "142100.502500", "142102.502500", "142104.502500", "142106.502500", "142108.502500", "142110.502500", "142112.502500", "142114.502500", "142116.502500", "142118.502500", "142120.502500", "142122.502500", "142124.502500", "142126.502500", "142128.502500", "142130.502500", "142132.502500", "142134.502500", "142136.502500", "142138.502500", "142140.502500", "142142.502500", "142144.502500", "142146.502500", "142148.502500", "142150.502500", "142152.502500", "142154.502500", "142156.502500", "142158.502500", "142200.502500", "142202.502500", "142204.502500", "142206.502500", "142208.502500", "142210.502500", "142212.502500", "142214.502500", "142216.502500", "142218.502500", "142220.502500", "142222.502500", "142224.502500", "142226.502500", "142228.502500", "142230.502500", "142232.502500", "142234.502500", "142236.502500", "142238.502500", "142240.502500", "142242.502500", "142244.502500", "142246.502500", "142248.502500", "142250.502500", "142252.502500", "142254.502500", "142256.502500", "142258.502500", "142300.502500", "142302.502500", "142304.502500", "142306.502500", "142308.502500", "142310.502500", "142312.502500", "142314.502500", "142316.502500", "142318.502500", "142320.502500", "142322.502500", "142324.502500", "142326.502500", "142328.502500", "142330.502500", "142332.502500", "142334.502500", "142336.502500", "142338.502500", "142340.502500", "142342.502500", "142344.502500", "142346.502500", "142348.502500", "142350.502500", "142352.502500", "142354.502500", "142356.502500", "142358.502500", "142400.502500"],
      "ContentTime": ["141852.853000", "141853.849000", "141855.848000", "141857.848000", "141859.849000", "141901.848000", "141903.849000", "141906.348000", "141907.849000", "141910.348000", "141912.348000", "141913.848000", "141915.848000", "141918.348000", "141919.848000", "141921.849000", "141923.849000", "141926.349000", "141928.349000", "141929.848000", "141931.848000", "141933.849000", "141935.848000", "141937.848000", "141939.849000", "141941.848000", "141943.849000", "141945.849000", "141948.348000", "141950.348000", "141951.849000", "141953.849000", "141956.349000", "141958.348000", "141959.848000", "142001.848000", "142004.348000", "142005.848000", "142007.849000", "142009.849000", "142011.848000", "142014.348000", "142015.849000", "142018.348000", "142019.849000", "142021.848000", "142023.848000", "142025.848000", "142027.849000", "142029.848000", "142031.849000", "142033.848000", "142036.349000", "142037.849000", "142039.848000", "142041.848000", "142043.848000", "142046.349000", "142047.848000", "142050.349000", "142051.849000", "142053.848000", "142055.849000", "142058.349000", "142100.348000", "142102.349000", "142103.849000", "142105.848000", "142107.849000", "142109.848000", "142111.848000", "142113.849000", "142115.848000", "142118.349000", "142119.849000", "142121.849000", "142123.850000", "142126.349000", "142127.849000", "142130.349000", "142131.848000", "142134.349000", "142136.348000", "142137.848000", "142139.849000", "142142.348000", "142143.849000", "142145.848000", "142147.849000", "142149.849000", "142151.848000", "142153.848000", "142155.848000", "142157.849000", "142159.849000", "142201.848000", "142204.349000", "142206.348000", "142207.848000", "142209.848000", "142211.849000", "142213.849000", "142216.350000", "142217.849000", "142220.349000", "142221.848000", "142224.349000", "142225.849000", "142227.848000", "142230.349000", "142232.348000", "142234.348000", "142235.848000", "142237.848000", "142239.848000", "142241.848000", "142244.349000", "142245.848000", "142247.848000", "142250.349000", "142252.349000", "142253.848000", "142255.848000", "142257.849000", "142259.849000", "142301.849000", "142304.348000", "142306.349000", "142307.849000", "142309.848000", "142312.349000", "142313.849000", "142315.849000", "142318.348000", "142319.849000", "142321.849000", "142323.849000", "142325.848000", "142328.349000", "142329.849000", "142331.848000", "142333.849000", "142335.848000", "142337.849000", "142339.849000", "142342.349000", "142344.349000", "142345.849000", "142347.848000", "142349.848000", "142352.349000", "142353.848000", "142356.349000", "142357.848000", "142359.848000", "142401.815000"],
      "InstanceCreationTime": ["141852.853000", "141853.849000", "141855.848000", "141857.848000", "141859.849000", "141901.848000", "141903.849000", "141906.348000", "141907.849000", "141910.348000", "141912.348000", "141913.848000", "141915.848000", "141918.348000", "141919.848000", "141921.849000", "141923.849000", "141926.349000", "141928.349000", "141929.848000", "141931.848000", "141933.849000", "141935.848000", "141937.848000", "141939.849000", "141941.848000", "141943.849000", "141945.849000", "141948.348000", "141950.348000", "141951.849000", "141953.849000", "141956.349000", "141958.348000", "141959.848000", "142001.848000", "142004.348000", "142005.848000", "142007.849000", "142009.849000", "142011.848000", "142014.348000", "142015.849000", "142018.348000", "142019.849000", "142021.848000", "142023.848000", "142025.848000", "142027.849000", "142029.848000", "142031.849000", "142033.848000", "142036.349000", "142037.849000", "142039.848000", "142041.848000", "142043.848000", "142046.349000", "142047.848000", "142050.349000", "142051.849000", "142053.848000", "142055.849000", "142058.349000", "142100.348000", "142102.349000", "142103.849000", "142105.848000", "142107.849000", "142109.848000", "142111.848000", "142113.849000", "142115.848000", "142118.349000", "142119.849000", "142121.849000", "142123.850000", "142126.349000", "142127.849000", "142130.349000", "142131.848000", "142134.349000", "142136.348000", "142137.848000", "142139.849000", "142142.348000", "142143.849000", "142145.848000", "142147.849000", "142149.849000", "142151.848000", "142153.848000", "142155.848000", "142157.849000", "142159.849000", "142201.848000", "142204.349000", "142206.348000", "142207.848000", "142209.848000", "142211.849000", "142213.849000", "142216.350000", "142217.849000", "142220.349000", "142221.848000", "142224.349000", "142225.849000", "142227.848000", "142230.349000", "142232.348000", "142234.348000", "142235.848000", "142237.848000", "142239.848000", "142241.848000", "142244.349000", "142245.848000", "142247.848000", "142250.349000", "142252.349000", "142253.848000", "142255.848000", "142257.849000", "142259.849000", "142301.849000", "142304.348000", "142306.349000", "142307.849000", "142309.848000", "142312.349000", "142313.849000", "142315.849000", "142318.348000", "142319.849000", "142321.849000", "142323.849000", "142325.848000", "142328.349000", "142329.849000", "142331.848000", "142333.849000", "142335.848000", "142337.849000", "142339.849000", "142342.349000", "142344.349000", "142345.849000", "142347.848000", "142349.848000", "142352.349000", "142353.848000", "142356.349000", "142357.848000", "142359.848000", "142401.815000"],
      "InstanceNumber": [1, 2, 3, 4, 5, 6, 7, 8, 9, 10, 11, 12, 13, 14, 15, 16, 17, 18, 19, 20, 21, 22, 23, 24, 25, 26, 27, 28, 29, 30, 31, 32, 33, 34, 35, 36, 37, 38, 39, 40, 41, 42, 43, 44, 45, 46, 47, 48, 49, 50, 51, 52, 53, 54, 55, 56, 57, 58, 59, 60, 61, 62, 63, 64, 65, 66, 67, 68, 69, 70, 71, 72, 73, 74, 75, 76, 77, 78, 79, 80, 81, 82, 83, 84, 85, 86, 87, 88, 89, 90, 91, 92, 93, 94, 95, 96, 97, 98, 99, 100, 101, 102, 103, 104, 105, 106, 107, 108, 109, 110, 111, 112, 113, 114, 115, 116, 117, 118, 119, 120, 121, 122, 123, 124, 125, 126, 127, 128, 129, 130, 131, 132, 133, 134, 135, 136, 137, 138, 139, 140, 141, 142, 143, 144, 145, 146, 147, 148, 149, 150, 151, 152, 153, 154, 155, 156],
      "LargestImagePixelValue": [3572, 3538, 3486, 3543, 3418, 3536, 3495, 3501, 3529, 3447, 3562, 3547, 3469, 3567, 3472, 3578, 3519, 3557, 3526, 3454, 3540, 3467, 3543, 3454, 3538, 3521, 3497, 3549, 3455, 3591, 3466, 3521, 3513, 3514, 3536, 3470, 3528, 3489, 3503, 3512, 3494, 3504, 3494, 3536, 3484, 3581, 3486, 3558, 3452, 3556, 3454, 3521, 3431, 3532, 3543, 3571, 3498, 3470, 3520, 3455, 3485, 3502, 3500, 3516, 3487, 3506, 3461, 3472, 3509, 3462, 3512, 3478, 3484, 3470, 3453, 3468, 3467, 3461, 3448, 3488, 3473, 3454, 3472, 3448, 3451, 3435, 3439, 3440, 3479, 3450, 3463, 3462, 3499, 3463, 3501, 3465, 3487, 3464, 3472, 3444, 3479, 3458, 3483, 3472, 3473, 3475, 3474, 3463, 3510, 3467, 3484, 3455, 3458, 3448, 3442, 3470, 3465, 3501, 3456, 3496, 3499, 3452, 3444, 3491, 3488, 3437, 3486, 3472, 3462, 3473, 3482, 3463, 3461, 3490, 3455, 3455, 3466, 3474, 3471, 3465, 3478, 3482, 3486, 3477, 3440, 3484, 3482, 3432, 3487, 3446, 3447, 3431, 3494, 3469, 3467, 3473],
      "WindowCenter": [812.0, 810.0, 812.0, 811.0, 808.0, 808.0, 808.0, 809.0, 810.0, 809.0, 810.0, 810.0, 808.0, 807.0, 806.0, 807.0, 807.0, 808.0, 807.0, 806.0, 806.0, 806.0, 806.0, 806.0, 806.0, 805.0, 806.0, 808.0, 808.0, 808.0, 805.0, 804.0, 805.0, 806.0, 807.0, 807.0, 807.0, 805.0, 805.0, 807.0, 807.0, 806.0, 805.0, 805.0, 805.0, 807.0, 806.0, 806.0, 805.0, 806.0, 807.0, 808.0, 807.0, 807.0, 805.0, 805.0, 804.0, 805.0, 806.0, 806.0, 806.0, 806.0, 807.0, 806.0, 804.0, 804.0, 804.0, 805.0, 805.0, 806.0, 807.0, 808.0, 808.0, 808.0, 805.0, 805.0, 805.0, 805.0, 805.0, 805.0, 806.0, 807.0, 809.0, 807.0, 804.0, 804.0, 805.0, 805.0, 806.0, 807.0, 806.0, 805.0, 805.0, 805.0, 806.0, 806.0, 807.0, 807.0, 807.0, 805.0, 806.0, 808.0, 809.0, 807.0, 805.0, 805.0, 806.0, 806.0, 807.0, 807.0, 807.0, 806.0, 805.0, 806.0, 806.0, 807.0, 806.0, 805.0, 805.0, 806.0, 805.0, 805.0, 805.0, 806.0, 806.0, 806.0, 805.0, 804.0, 804.0, 805.0, 805.0, 805.0, 806.0, 807.0, 806.0, 806.0, 806.0, 806.0, 806.0, 805.0, 805.0, 805.0, 806.0, 807.0, 805.0, 803.0, 803.0, 803.0, 805.0, 806.0, 805.0, 804.0, 806.0, 806.0, 806.0, 805.0],
      "WindowWidth": [1764.0, 1760.0, 1762.0, 1761.0, 1753.0, 1753.0, 1753.0, 1757.0, 1760.0, 1756.0, 1757.0, 1758.0, 1752.0, 1749.0, 1748.0, 1751.0, 1750.0, 1752.0, 1751.0, 1748.0, 1748.0, 1746.0, 1749.0, 1747.0, 1748.0, 1746.0, 1747.0, 1753.0, 1753.0, 1752.0, 1743.0, 1743.0, 1744.0, 1749.0, 1752.0, 1752.0, 1751.0, 1746.0, 1746.0, 1750.0, 1749.0, 1748.0, 1746.0, 1745.0, 1746.0, 1750.0, 1746.0, 1747.0, 1746.0, 1748.0, 1751.0, 1752.0, 1751.0, 1749.0, 1745.0, 1744.0, 1743.0, 1744.0, 1748.0, 1747.0, 1746.0, 1749.0, 1750.0, 1749.0, 1743.0, 1742.0, 1742.0, 1744.0, 1746.0, 1747.0, 1751.0, 1754.0, 1755.0, 1752.0, 1745.0, 1744.0, 1744.0, 1746.0, 1746.0, 1744.0, 1747.0, 1752.0, 1757.0, 1750.0, 1743.0, 1741.0, 1743.0, 1744.0, 1748.0, 1749.0, 1746.0, 1744.0, 1744.0, 1744.0, 1747.0, 1748.0, 1751.0, 1750.0, 1748.0, 1745.0, 1747.0, 1751.0, 1755.0, 1748.0, 1743.0, 1744.0, 1746.0, 1747.0, 1750.0, 1750.0, 1748.0, 1746.0, 1744.0, 1746.0, 1747.0, 1750.0, 1747.0, 1745.0, 1743.0, 1746.0, 1745.0, 1744.0, 1744.0, 1747.0, 1747.0, 1746.0, 1744.0, 1742.0, 1742.0, 1744.0, 1743.0, 1744.0, 1747.0, 1748.0, 1748.0, 1747.0, 1746.0, 1745.0, 1747.0, 1745.0, 1743.0, 1743.0, 1748.0, 1749.0, 1743.0, 1739.0, 1738.0, 1739.0, 1745.0, 1748.0, 1745.0, 1742.0, 1747.0, 1747.0, 1746.0, 1745.0]
    },
    "slices": {}
  }
}