{
  "AcquisitionMatrixPE": 100,
  "AcquisitionNumber": 1,
  "AcquisitionTime": "13:23:25.335000",
  "BandwidthPerPixelPhaseEncode": 18.519,
  "BaseResolution": 100,
  "BodyPartExamined": "BRAIN",
  "CoilCombinationMethod": "Sum of Squares",
  "ConsistencyInfo": "N4_VE11C_LATEST_20160120",
  "ConversionSoftware": "dcm2niix",
  "ConversionSoftwareVersion": "v1.0.20211006",
  "DerivedVendorReportedEchoSpacing": 0.000539986,
  "DeviceSerialNumber": "166078",
  "DwellTime": 2.1e-06,
  "EchoTime": 0.034,
  "EchoTrainLength": 100,
  "EffectiveEchoSpacing": 0.000539986,
  "FlipAngle": 90,
  "ImageOrientationPatientDICOM": [0.999507, -0.00523832, -0.0309709, -1.05599e-08, 0.985996, -0.166769],
  "ImageOrientationText": "Tra>Cor(-9.6)>Sag(-1.8)",
  "ImageType": [
    "ORIGINAL",
    "PRIMARY",
    "M",
    "ND",
    "MOSAIC"
],
  "ImagingFrequency": 123.258,
  "InPlanePhaseEncodingDirectionDICOM": "COL",
  "InstitutionAddress": "Street StreetNo,Bei Jing,District,CN,ZIP",
  "InstitutionName": "BeiJing Normal University",
  "InstitutionalDepartmentName": "Department",
  "MRAcquisitionType": "2D",
  "MagneticFieldStrength": 3,
  "Manufacturer": "Siemens",
  "ManufacturersModelName": "Prisma",
  "Modality": "MR",
  "MultibandAccelerationFactor": 3,
  "PartialFourier": 1,
  "PatientPosition": "HFS",
  "PercentPhaseFOV": 100,
  "PercentSampling": 100,
  "PhaseEncodingDirection": "j-",
  "PhaseEncodingSteps": 100,
  "PhaseResolution": 1,
  "PixelBandwidth": 2380,
  "ProcedureStepDescription": "BNU_P2018_64CH^Zhen.ZongLei",
  "ProtocolName": "bold_100x100_s3_2x2x2_static_156",
  "PulseSequenceDetails": "%SiemensSeq%\\ep2d_bold",
  "ReceiveCoilActiveElements": "HC1-7;NC1",
  "ReceiveCoilName": "HeadNeck_64",
  "ReconMatrixPE": 100,
  "RefLinesPE": 32,
  "RepetitionTime": 2,
  "SAR": 0.066257,
  "ScanOptions": "FS",
  "ScanningSequence": "EP",
  "SequenceName": "*epfid2d1_100",
  "SequenceVariant": "SK",
  "SeriesDescription": "bold_100x100_s3_2x2x2_static_156",
  "SeriesNumber": 6,
  "ShimSetting": [-5457, -11489, -1258, 333, -5, -153, -189, 57],
  "SliceThickness": 2,
  "SliceTiming": [1.485, 0, 0.99, 0.0825, 1.0725, 0.165, 1.155, 0.2475, 1.2375, 0.33, 1.32, 0.4125, 1.4025, 0.5775, 1.5675, 0.66, 1.65, 0.7425, 1.7325, 0.825, 1.815, 0.9075, 1.8975, 0.495, 1.485, 0, 0.99, 0.0825, 1.0725, 0.165, 1.155, 0.2475, 1.2375, 0.33, 1.32, 0.4125, 1.4025, 0.5775, 1.5675, 0.66, 1.65, 0.7425, 1.7325, 0.825, 1.815, 0.9075, 1.8975, 0.495, 1.485, 0, 0.99, 0.0825, 1.0725, 0.165, 1.155, 0.2475, 1.2375, 0.33, 1.32, 0.4125, 1.4025, 0.5775, 1.5675, 0.66, 1.65, 0.7425, 1.7325, 0.825, 1.815, 0.9075, 1.8975, 0.495],
  "SoftwareVersions": "syngo MR E11",
  "SpacingBetweenSlices": 2,
  "StationName": "AWP166078",
  "TaskName": "action",
  "TotalReadoutTime": 0.0534586,
  "TxRefAmp": 213.373,
  "dcmmeta_affine": [
    [-1.999013066291809, -2.1119825888149535e-08, -0.06282152980566025, 102.18082427978516],
    [0.01047664787620306, 1.971992015838623, -0.33337292075157166, -83.14752960205078],
    [-0.061941783875226974, 0.3335374891757965, 1.9710190296173096, -78.25739288330078],
    [0.0, 0.0, 0.0, 1.0]
],
  "dcmmeta_reorient_transform": [
    [0.0, -1.0, 0.0, 99.0],
    [1.0, 0.0, 0.0, 0.0],
    [0.0, 0.0, 1.0, 0.0],
    [0.0, 0.0, 0.0, 1.0]
],
  "dcmmeta_shape": [100, 100, 72, 156],
  "dcmmeta_slice_dim": 2,
  "dcmmeta_version": 0.6,
  "global": {
    "const": {
      "AcquisitionMatrix": [100, 0, 0, 100],
      "AngioFlag": "N",
      "BitsAllocated": 16,
      "BitsStored": 12,
      "BodyPartExamined": "BRAIN",
      "Columns": 900,
      "EchoNumbers": 1,
      "EchoTime": 34.0,
      "EchoTrainLength": 100,
      "FlipAngle": 90.0,
      "HighBit": 11,
      "ImageOrientationPatient": [0.9995065601566, -0.0052383237284, -0.0309708922772, -1.0559913e-08, 0.98599603652883, -0.1667687499187],
      "ImagePositionPatient": [-901.78605844966, -896.68585635347, 112.95453143092],
      "ImageType": [
        "ORIGINAL",
        "PRIMARY",
        "M",
        "ND",
        "MOSAIC"
],
      "ImagedNucleus": "1H",
      "ImagingFrequency": 123.257678,
      "InPlanePhaseEncodingDirection": "COL",
      "MRAcquisitionType": "2D",
      "MagneticFieldStrength": 3.0,
      "Manufacturer": "SIEMENS",
      "ManufacturerModelName": "Prisma",
      "Modality": "MR",
      "NumberOfAverages": 1.0,
      "NumberOfPhaseEncodingSteps": 100,
      "PercentPhaseFieldOfView": 100.0,
      "PercentSampling": 100.0,
      "PerformedProcedureStepStartTime": "125015.696000",
      "PhotometricInterpretation": "MONOCHROME2",
      "PixelBandwidth": 2380.0,
      "PixelRepresentation": 0,
      "PixelSpacing": [2.0, 2.0],
      "ProtocolName": "bold_100x100_s3_2x2x2_static_156",
      "RepetitionTime": 2000.0,
      "Rows": 900,
      "SAR": 0.06625700620337,
      "SamplesPerPixel": 1,
      "ScanOptions": "FS",
      "ScanningSequence": "EP",
      "SequenceName": "*epfid2d1_100",
      "SequenceVariant": "SK",
      "SeriesDescription": "bold_100x100_s3_2x2x2_static_156",
      "SeriesNumber": 6,
      "SeriesTime": "132327.383000",
      "SliceLocation": -66.473417106135,
      "SliceThickness": 2.0,
      "SmallestImagePixelValue": 0,
      "SoftwareVersions": "syngo MR E11",
      "SpacingBetweenSlices": 2.0000000300821,
      "SpecificCharacterSet": "ISO_IR 100",
      "StudyID": "1",
      "StudyTime": "125015.602000",
      "TransmitCoilName": "Body",
      "VariableFlipAngleFlag": "N",
      "WindowCenterWidthExplanation": "Algo1",
      "dBdt": 0.0},
    "slices": {}
  },
  "time": {
    "samples": {
      "AcquisitionNumber": [1, 2, 3, 4, 5, 6, 7, 8, 9, 10, 11, 12, 13, 14, 15, 16, 17, 18, 19, 20, 21, 22, 23, 24, 25, 26, 27, 28, 29, 30, 31, 32, 33, 34, 35, 36, 37, 38, 39, 40, 41, 42, 43, 44, 45, 46, 47, 48, 49, 50, 51, 52, 53, 54, 55, 56, 57, 58, 59, 60, 61, 62, 63, 64, 65, 66, 67, 68, 69, 70, 71, 72, 73, 74, 75, 76, 77, 78, 79, 80, 81, 82, 83, 84, 85, 86, 87, 88, 89, 90, 91, 92, 93, 94, 95, 96, 97, 98, 99, 100, 101, 102, 103, 104, 105, 106, 107, 108, 109, 110, 111, 112, 113, 114, 115, 116, 117, 118, 119, 120, 121, 122, 123, 124, 125, 126, 127, 128, 129, 130, 131, 132, 133, 134, 135, 136, 137, 138, 139, 140, 141, 142, 143, 144, 145, 146, 147, 148, 149, 150, 151, 152, 153, 154, 155, 156],
      "AcquisitionTime": ["132325.335000", "132327.335000", "132329.335000", "132331.335000", "132333.335000", "132335.335000", "132337.335000", "132339.335000", "132341.335000", "132343.335000", "132345.335000", "132347.335000", "132349.335000", "132351.335000", "132353.335000", "132355.335000", "132357.335000", "132359.335000", "132401.335000", "132403.335000", "132405.335000", "132407.335000", "132409.335000", "132411.335000", "132413.335000", "132415.335000", "132417.335000", "132419.335000", "132421.335000", "132423.335000", "132425.335000", "132427.335000", "132429.335000", "132431.335000", "132433.335000", "132435.335000", "132437.335000", "132439.335000", "132441.335000", "132443.335000", "132445.335000", "132447.335000", "132449.335000", "132451.335000", "132453.335000", "132455.335000", "132457.335000", "132459.335000", "132501.335000", "132503.335000", "132505.335000", "132507.335000", "132509.335000", "132511.335000", "132513.335000", "132515.335000", "132517.335000", "132519.335000", "132521.335000", "132523.335000", "132525.335000", "132527.335000", "132529.335000", "132531.335000", "132533.335000", "132535.335000", "132537.335000", "132539.335000", "132541.335000", "132543.335000", "132545.335000", "132547.335000", "132549.335000", "132551.335000", "132553.335000", "132555.335000", "132557.335000", "132559.335000", "132601.335000", "132603.335000", "132605.335000", "132607.335000", "132609.335000", "132611.335000", "132613.335000", "132615.335000", "132617.335000", "132619.335000", "132621.335000", "132623.335000", "132625.335000", "132627.335000", "132629.335000", "132631.335000", "132633.335000", "132635.335000", "132637.335000", "132639.335000", "132641.335000", "132643.335000", "132645.335000", "132647.335000", "132649.335000", "132651.335000", "132653.335000", "132655.335000", "132657.335000", "132659.335000", "132701.335000", "132703.335000", "132705.335000", "132707.335000", "132709.335000", "132711.335000", "132713.335000", "132715.335000", "132717.335000", "132719.335000", "132721.335000", "132723.335000", "132725.335000", "132727.335000", "132729.335000", "132731.335000", "132733.335000", "132735.335000", "132737.335000", "132739.335000", "132741.335000", "132743.335000", "132745.335000", "132747.335000", "132749.335000", "132751.335000", "132753.335000", "132755.335000", "132757.335000", "132759.335000", "132801.335000", "132803.335000", "132805.335000", "132807.335000", "132809.335000", "132811.335000", "132813.335000", "132815.335000", "132817.335000", "132819.335000", "132821.335000", "132823.335000", "132825.335000", "132827.335000", "132829.335000", "132831.335000", "132833.335000", "132835.335000"],
      "ContentTime": ["132327.387000", "132328.882000", "132330.882000", "132332.881000", "132334.881000", "132336.881000", "132338.882000", "132340.881000", "132342.883000", "132344.882000", "132346.881000", "132348.881000", "132350.881000", "132352.881000", "132354.882000", "132356.882000", "132358.881000", "132400.883000", "132402.883000", "132404.882000", "132406.881000", "132408.881000", "132410.882000", "132412.881000", "132414.882000", "132416.883000", "132418.883000", "132420.883000", "132422.882000", "132424.881000", "132426.882000", "132428.882000", "132430.881000", "132432.881000", "132434.883000", "132436.883000", "132438.882000", "132440.881000", "132442.881000", "132444.881000", "132446.881000", "132448.881000", "132450.881000", "132452.883000", "132454.883000", "132456.881000", "132458.881000", "132500.881000", "132502.881000", "132504.881000", "132506.881000", "132508.882000", "132510.883000", "132512.882000", "132514.881000", "132516.881000", "132518.882000", "132520.881000", "132522.881000", "132524.882000", "132526.882000", "132528.882000", "132530.882000", "132532.881000", "132534.881000", "132536.882000", "132538.882000", "132540.881000", "132542.882000", "132544.882000", "132546.883000", "132548.882000", "132550.881000", "132552.881000", "132554.881000", "132556.881000", "132558.882000", "132600.882000", "132602.882000", "132604.882000", "132606.881000", "132608.882000", "132610.882000", "132612.881000", "132614.881000", "132616.881000", "132618.882000", "132620.883000", "132622.882000", "132624.881000", "132626.881000", "132628.881000", "132630.881000", "132632.881000", "132634.881000", "132636.882000", "132638.882000", "132640.883000", "132642.881000", "132644.881000", "132646.881000", "132648.882000", "132650.882000", "132652.882000", "132654.882000", "132656.882000", "132658.882000", "132700.881000", "132702.882000", "132704.881000", "132706.881000", "132708.881000", "132710.881000", "132712.882000", "132714.882000", "132716.881000", "132718.881000", "132720.881000", "132722.881000", "132724.882000", "132726.882000", "132728.882000", "132730.882000", "132732.883000", "132734.881000", "132736.881000", "132738.882000", "132740.881000", "132742.881000", "132744.882000", "132746.883000", "132748.883000", "132750.883000", "132752.881000", "132754.881000", "132756.881000", "132758.881000", "132800.881000", "132802.881000", "132804.882000", "132806.883000", "132808.882000", "132810.882000", "132812.881000", "132814.881000", "132816.881000", "132818.882000", "132820.882000", "132822.882000", "132824.882000", "132826.881000", "132828.881000", "132830.881000", "132832.882000", "132834.881000", "132836.732000"],
      "InstanceCreationTime": ["132327.387000", "132328.882000", "132330.882000", "132332.881000", "132334.881000", "132336.881000", "132338.882000", "132340.881000", "132342.883000", "132344.882000", "132346.881000", "132348.881000", "132350.881000", "132352.881000", "132354.882000", "132356.882000", "132358.881000", "132400.883000", "132402.883000", "132404.882000", "132406.881000", "132408.881000", "132410.882000", "132412.881000", "132414.882000", "132416.883000", "132418.883000", "132420.883000", "132422.882000", "132424.881000", "132426.882000", "132428.882000", "132430.881000", "132432.881000", "132434.883000", "132436.883000", "132438.882000", "132440.881000", "132442.881000", "132444.881000", "132446.881000", "132448.881000", "132450.881000", "132452.883000", "132454.883000", "132456.881000", "132458.881000", "132500.881000", "132502.881000", "132504.881000", "132506.881000", "132508.882000", "132510.883000", "132512.882000", "132514.881000", "132516.881000", "132518.882000", "132520.881000", "132522.881000", "132524.882000", "132526.882000", "132528.882000", "132530.882000", "132532.881000", "132534.881000", "132536.882000", "132538.882000", "132540.881000", "132542.882000", "132544.882000", "132546.883000", "132548.882000", "132550.881000", "132552.881000", "132554.881000", "132556.881000", "132558.882000", "132600.882000", "132602.882000", "132604.882000", "132606.881000", "132608.882000", "132610.882000", "132612.881000", "132614.881000", "132616.881000", "132618.882000", "132620.883000", "132622.882000", "132624.881000", "132626.881000", "132628.881000", "132630.881000", "132632.881000", "132634.881000", "132636.882000", "132638.882000", "132640.883000", "132642.881000", "132644.881000", "132646.881000", "132648.882000", "132650.882000", "132652.882000", "132654.882000", "132656.882000", "132658.882000", "132700.881000", "132702.882000", "132704.881000", "132706.881000", "132708.881000", "132710.881000", "132712.882000", "132714.882000", "132716.881000", "132718.881000", "132720.881000", "132722.881000", "132724.882000", "132726.882000", "132728.882000", "132730.882000", "132732.883000", "132734.881000", "132736.881000", "132738.882000", "132740.881000", "132742.881000", "132744.882000", "132746.883000", "132748.883000", "132750.883000", "132752.881000", "132754.881000", "132756.881000", "132758.881000", "132800.881000", "132802.881000", "132804.882000", "132806.883000", "132808.882000", "132810.882000", "132812.881000", "132814.881000", "132816.881000", "132818.882000", "132820.882000", "132822.882000", "132824.882000", "132826.881000", "132828.881000", "132830.881000", "132832.882000", "132834.881000", "132836.732000"],
      "InstanceNumber": [1, 2, 3, 4, 5, 6, 7, 8, 9, 10, 11, 12, 13, 14, 15, 16, 17, 18, 19, 20, 21, 22, 23, 24, 25, 26, 27, 28, 29, 30, 31, 32, 33, 34, 35, 36, 37, 38, 39, 40, 41, 42, 43, 44, 45, 46, 47, 48, 49, 50, 51, 52, 53, 54, 55, 56, 57, 58, 59, 60, 61, 62, 63, 64, 65, 66, 67, 68, 69, 70, 71, 72, 73, 74, 75, 76, 77, 78, 79, 80, 81, 82, 83, 84, 85, 86, 87, 88, 89, 90, 91, 92, 93, 94, 95, 96, 97, 98, 99, 100, 101, 102, 103, 104, 105, 106, 107, 108, 109, 110, 111, 112, 113, 114, 115, 116, 117, 118, 119, 120, 121, 122, 123, 124, 125, 126, 127, 128, 129, 130, 131, 132, 133, 134, 135, 136, 137, 138, 139, 140, 141, 142, 143, 144, 145, 146, 147, 148, 149, 150, 151, 152, 153, 154, 155, 156],
      "LargestImagePixelValue": [3777, 3699, 3758, 3682, 3692, 3670, 3674, 3737, 3664, 3700, 3671, 3699, 3652, 3696, 3674, 3668, 3638, 3615, 3680, 3646, 3651, 3621, 3648, 3638, 3626, 3625, 3627, 3612, 3625, 3601, 3615, 3622, 3617, 3608, 3614, 3613, 3598, 3610, 3584, 3611, 3604, 3609, 3629, 3590, 3618, 3619, 3627, 3610, 3580, 3600, 3585, 3612, 3611, 3627, 3609, 3635, 3644, 3616, 3642, 3590, 3617, 3629, 3644, 3613, 3594, 3615, 3638, 3670, 3642, 3649, 3616, 3614, 3589, 3622, 3630, 3649, 3635, 3638, 3628, 3644, 3653, 3675, 3631, 3640, 3647, 3626, 3688, 3653, 3679, 3642, 3672, 3659, 3689, 3655, 3678, 3644, 3667, 3629, 3678, 3668, 3659, 3647, 3675, 3661, 3689, 3681, 3669, 3650, 3724, 3635, 3685, 3675, 3707, 3673, 3697, 3693, 3708, 3681, 3690, 3681, 3689, 3696, 3699, 3690, 3704, 3702, 3676, 3712, 3716, 3718, 3726, 3709, 3706, 3725, 3730, 3745, 3704, 3752, 3715, 3724, 3732, 3705, 3734, 3711, 3717, 3732, 3736, 3734, 3711, 3688, 3688, 3700, 3693, 3716, 3718, 3676],
      "WindowCenter": [817.0, 816.0, 818.0, 817.0, 815.0, 814.0, 816.0, 817.0, 818.0, 819.0, 819.0, 817.0, 816.0, 815.0, 816.0, 817.0, 816.0, 815.0, 816.0, 817.0, 816.0, 814.0, 813.0, 814.0, 815.0, 815.0, 815.0, 815.0, 817.0, 818.0, 817.0, 815.0, 815.0, 815.0, 817.0, 817.0, 817.0, 816.0, 815.0, 815.0, 814.0, 816.0, 816.0, 814.0, 814.0, 816.0, 816.0, 815.0, 813.0, 812.0, 812.0, 814.0, 815.0, 816.0, 814.0, 813.0, 814.0, 815.0, 817.0, 816.0, 815.0, 814.0, 815.0, 816.0, 816.0, 817.0, 817.0, 816.0, 815.0, 816.0, 816.0, 816.0, 814.0, 813.0, 814.0, 816.0, 817.0, 815.0, 814.0, 814.0, 815.0, 817.0, 817.0, 816.0, 815.0, 816.0, 818.0, 817.0, 815.0, 815.0, 816.0, 817.0, 817.0, 814.0, 813.0, 813.0, 814.0, 814.0, 814.0, 815.0, 815.0, 816.0, 815.0, 816.0, 817.0, 817.0, 815.0, 814.0, 816.0, 817.0, 818.0, 817.0, 817.0, 818.0, 820.0, 819.0, 817.0, 815.0, 815.0, 815.0, 816.0, 816.0, 816.0, 816.0, 815.0, 816.0, 817.0, 816.0, 814.0, 815.0, 816.0, 816.0, 815.0, 815.0, 815.0, 816.0, 816.0, 817.0, 817.0, 816.0, 816.0, 815.0, 816.0, 816.0, 817.0, 816.0, 815.0, 815.0, 815.0, 813.0, 812.0, 814.0, 817.0, 818.0, 817.0, 815.0],
      "WindowWidth": [1780.0, 1777.0, 1782.0, 1779.0, 1774.0, 1773.0, 1777.0, 1781.0, 1785.0, 1787.0, 1785.0, 1780.0, 1777.0, 1776.0, 1778.0, 1779.0, 1778.0, 1775.0, 1777.0, 1780.0, 1779.0, 1772.0, 1769.0, 1771.0, 1774.0, 1774.0, 1776.0, 1775.0, 1780.0, 1783.0, 1779.0, 1773.0, 1774.0, 1776.0, 1779.0, 1780.0, 1780.0, 1778.0, 1775.0, 1775.0, 1774.0, 1777.0, 1778.0, 1772.0, 1773.0, 1777.0, 1778.0, 1776.0, 1768.0, 1765.0, 1767.0, 1771.0, 1775.0, 1778.0, 1772.0, 1770.0, 1773.0, 1776.0, 1780.0, 1776.0, 1774.0, 1773.0, 1776.0, 1777.0, 1779.0, 1782.0, 1780.0, 1778.0, 1775.0, 1778.0, 1777.0, 1776.0, 1772.0, 1770.0, 1773.0, 1777.0, 1780.0, 1776.0, 1773.0, 1773.0, 1776.0, 1781.0, 1782.0, 1779.0, 1776.0, 1778.0, 1783.0, 1779.0, 1774.0, 1775.0, 1778.0, 1782.0, 1781.0, 1771.0, 1769.0, 1770.0, 1773.0, 1772.0, 1773.0, 1775.0, 1775.0, 1777.0, 1776.0, 1778.0, 1782.0, 1781.0, 1774.0, 1771.0, 1777.0, 1781.0, 1783.0, 1782.0, 1783.0, 1785.0, 1790.0, 1788.0, 1780.0, 1776.0, 1776.0, 1776.0, 1778.0, 1779.0, 1777.0, 1778.0, 1775.0, 1778.0, 1779.0, 1778.0, 1773.0, 1775.0, 1779.0, 1777.0, 1774.0, 1774.0, 1775.0, 1778.0, 1779.0, 1782.0, 1780.0, 1778.0, 1777.0, 1776.0, 1777.0, 1778.0, 1781.0, 1777.0, 1774.0, 1774.0, 1774.0, 1770.0, 1767.0, 1772.0, 1781.0, 1784.0, 1781.0, 1776.0]
    },
    "slices": {}
  }
}