{
  "AcquisitionMatrixPE": 100,
  "AcquisitionNumber": 1,
  "AcquisitionTime": "14:12:40.650000",
  "BandwidthPerPixelPhaseEncode": 18.519,
  "BaseResolution": 100,
  "BodyPartExamined": "BRAIN",
  "CoilCombinationMethod": "Sum of Squares",
  "ConsistencyInfo": "N4_VE11C_LATEST_20160120",
  "ConversionSoftware": "dcm2niix",
  "ConversionSoftwareVersion": "v1.0.20211006",
  "DerivedVendorReportedEchoSpacing": 0.000539986,
  "DeviceSerialNumber": "166078",
  "DwellTime": 2.1e-06,
  "EchoTime": 0.034,
  "EchoTrainLength": 100,
  "EffectiveEchoSpacing": 0.000539986,
  "FlipAngle": 90,
  "ImageOrientationPatientDICOM": [0.999507, -0.00523832, -0.0309709, -1.05599e-08, 0.985996, -0.166769],
  "ImageOrientationText": "Tra>Cor(-9.6)>Sag(-1.8)",
  "ImageType": [
    "ORIGINAL",
    "PRIMARY",
    "M",
    "ND",
    "MOSAIC"
],
  "ImagingFrequency": 123.258,
  "InPlanePhaseEncodingDirectionDICOM": "COL",
  "InstitutionAddress": "Street StreetNo,Bei Jing,District,CN,ZIP",
  "InstitutionName": "BeiJing Normal University",
  "InstitutionalDepartmentName": "Department",
  "MRAcquisitionType": "2D",
  "MagneticFieldStrength": 3,
  "Manufacturer": "Siemens",
  "ManufacturersModelName": "Prisma",
  "Modality": "MR",
  "MultibandAccelerationFactor": 3,
  "PartialFourier": 1,
  "PatientPosition": "HFS",
  "PercentPhaseFOV": 100,
  "PercentSampling": 100,
  "PhaseEncodingDirection": "j-",
  "PhaseEncodingSteps": 100,
  "PhaseResolution": 1,
  "PixelBandwidth": 2380,
  "ProcedureStepDescription": "BNU_P2018_64CH^Zhen.ZongLei",
  "ProtocolName": "bold_100x100_s3_2x2x2_static_156",
  "PulseSequenceDetails": "%SiemensSeq%\\ep2d_bold",
  "ReceiveCoilActiveElements": "HC1-7;NC1",
  "ReceiveCoilName": "HeadNeck_64",
  "ReconMatrixPE": 100,
  "RefLinesPE": 32,
  "RepetitionTime": 2,
  "SAR": 0.066257,
  "ScanOptions": "FS",
  "ScanningSequence": "EP",
  "SequenceName": "*epfid2d1_100",
  "SequenceVariant": "SK",
  "SeriesDescription": "bold_100x100_s3_2x2x2_static_156",
  "SeriesNumber": 16,
  "ShimSetting": [-5457, -11489, -1258, 333, -5, -153, -189, 57],
  "SliceThickness": 2,
  "SliceTiming": [1.485, 0, 0.99, 0.0825, 1.0725, 0.165, 1.155, 0.2475, 1.2375, 0.33, 1.32, 0.4125, 1.4025, 0.5775, 1.5675, 0.66, 1.65, 0.7425, 1.7325, 0.825, 1.815, 0.9075, 1.8975, 0.495, 1.485, 0, 0.99, 0.0825, 1.0725, 0.165, 1.155, 0.2475, 1.2375, 0.33, 1.32, 0.4125, 1.4025, 0.5775, 1.5675, 0.66, 1.65, 0.7425, 1.7325, 0.825, 1.815, 0.9075, 1.8975, 0.495, 1.485, 0, 0.99, 0.0825, 1.0725, 0.165, 1.155, 0.2475, 1.2375, 0.33, 1.32, 0.4125, 1.4025, 0.5775, 1.5675, 0.66, 1.65, 0.7425, 1.7325, 0.825, 1.815, 0.9075, 1.8975, 0.495],
  "SoftwareVersions": "syngo MR E11",
  "SpacingBetweenSlices": 2,
  "StationName": "AWP166078",
  "TaskName": "action",
  "TotalReadoutTime": 0.0534586,
  "TxRefAmp": 213.373,
  "dcmmeta_affine": [
    [-1.999013066291809, -2.1119825888149535e-08, -0.06282152980566025, 102.18082427978516],
    [0.01047664787620306, 1.971992015838623, -0.33337292075157166, -83.14752960205078],
    [-0.061941783875226974, 0.3335374891757965, 1.9710190296173096, -78.25739288330078],
    [0.0, 0.0, 0.0, 1.0]
],
  "dcmmeta_reorient_transform": [
    [0.0, -1.0, 0.0, 99.0],
    [1.0, 0.0, 0.0, 0.0],
    [0.0, 0.0, 1.0, 0.0],
    [0.0, 0.0, 0.0, 1.0]
],
  "dcmmeta_shape": [100, 100, 72, 156],
  "dcmmeta_slice_dim": 2,
  "dcmmeta_version": 0.6,
  "global": {
    "const": {
      "AcquisitionMatrix": [100, 0, 0, 100],
      "AngioFlag": "N",
      "BitsAllocated": 16,
      "BitsStored": 12,
      "BodyPartExamined": "BRAIN",
      "Columns": 900,
      "EchoNumbers": 1,
      "EchoTime": 34.0,
      "EchoTrainLength": 100,
      "FlipAngle": 90.0,
      "HighBit": 11,
      "ImageOrientationPatient": [0.9995065601566, -0.0052383237284, -0.0309708922772, -1.0559913e-08, 0.98599603652883, -0.1667687499187],
      "ImagePositionPatient": [-901.78605844966, -896.68585635347, 112.95453143092],
      "ImageType": [
        "ORIGINAL",
        "PRIMARY",
        "M",
        "ND",
        "MOSAIC"
],
      "ImagedNucleus": "1H",
      "ImagingFrequency": 123.257697,
      "InPlanePhaseEncodingDirection": "COL",
      "MRAcquisitionType": "2D",
      "MagneticFieldStrength": 3.0,
      "Manufacturer": "SIEMENS",
      "ManufacturerModelName": "Prisma",
      "Modality": "MR",
      "NumberOfAverages": 1.0,
      "NumberOfPhaseEncodingSteps": 100,
      "PercentPhaseFieldOfView": 100.0,
      "PercentSampling": 100.0,
      "PerformedProcedureStepStartTime": "125015.696000",
      "PhotometricInterpretation": "MONOCHROME2",
      "PixelBandwidth": 2380.0,
      "PixelRepresentation": 0,
      "PixelSpacing": [2.0, 2.0],
      "ProtocolName": "bold_100x100_s3_2x2x2_static_156",
      "RepetitionTime": 2000.0,
      "Rows": 900,
      "SAR": 0.06625700620337,
      "SamplesPerPixel": 1,
      "ScanOptions": "FS",
      "ScanningSequence": "EP",
      "SequenceName": "*epfid2d1_100",
      "SequenceVariant": "SK",
      "SeriesDescription": "bold_100x100_s3_2x2x2_static_156",
      "SeriesNumber": 16,
      "SeriesTime": "141243.229000",
      "SliceLocation": -66.473417106135,
      "SliceThickness": 2.0,
      "SmallestImagePixelValue": 0,
      "SoftwareVersions": "syngo MR E11",
      "SpacingBetweenSlices": 2.0000000300821,
      "SpecificCharacterSet": "ISO_IR 100",
      "StudyID": "1",
      "StudyTime": "125015.602000",
      "TransmitCoilName": "Body",
      "VariableFlipAngleFlag": "N",
      "WindowCenterWidthExplanation": "Algo1",
      "dBdt": 0.0},
    "slices": {}
  },
  "time": {
    "samples": {
      "AcquisitionNumber": [1, 2, 3, 4, 5, 6, 7, 8, 9, 10, 11, 12, 13, 14, 15, 16, 17, 18, 19, 20, 21, 22, 23, 24, 25, 26, 27, 28, 29, 30, 31, 32, 33, 34, 35, 36, 37, 38, 39, 40, 41, 42, 43, 44, 45, 46, 47, 48, 49, 50, 51, 52, 53, 54, 55, 56, 57, 58, 59, 60, 61, 62, 63, 64, 65, 66, 67, 68, 69, 70, 71, 72, 73, 74, 75, 76, 77, 78, 79, 80, 81, 82, 83, 84, 85, 86, 87, 88, 89, 90, 91, 92, 93, 94, 95, 96, 97, 98, 99, 100, 101, 102, 103, 104, 105, 106, 107, 108, 109, 110, 111, 112, 113, 114, 115, 116, 117, 118, 119, 120, 121, 122, 123, 124, 125, 126, 127, 128, 129, 130, 131, 132, 133, 134, 135, 136, 137, 138, 139, 140, 141, 142, 143, 144, 145, 146, 147, 148, 149, 150, 151, 152, 153, 154, 155, 156],
      "AcquisitionTime": ["141240.650000", "141242.650000", "141244.650000", "141246.650000", "141248.650000", "141250.650000", "141252.650000", "141254.650000", "141256.650000", "141258.650000", "141300.650000", "141302.650000", "141304.650000", "141306.650000", "141308.650000", "141310.650000", "141312.650000", "141314.650000", "141316.650000", "141318.650000", "141320.650000", "141322.650000", "141324.650000", "141326.650000", "141328.650000", "141330.650000", "141332.650000", "141334.650000", "141336.650000", "141338.650000", "141340.650000", "141342.650000", "141344.650000", "141346.650000", "141348.650000", "141350.650000", "141352.650000", "141354.650000", "141356.650000", "141358.650000", "141400.650000", "141402.650000", "141404.650000", "141406.650000", "141408.650000", "141410.650000", "141412.650000", "141414.650000", "141416.650000", "141418.650000", "141420.650000", "141422.650000", "141424.650000", "141426.650000", "141428.650000", "141430.650000", "141432.650000", "141434.650000", "141436.650000", "141438.650000", "141440.650000", "141442.650000", "141444.650000", "141446.650000", "141448.650000", "141450.650000", "141452.650000", "141454.650000", "141456.650000", "141458.650000", "141500.650000", "141502.650000", "141504.650000", "141506.650000", "141508.650000", "141510.650000", "141512.650000", "141514.650000", "141516.650000", "141518.650000", "141520.650000", "141522.650000", "141524.650000", "141526.650000", "141528.650000", "141530.650000", "141532.650000", "141534.650000", "141536.650000", "141538.650000", "141540.650000", "141542.650000", "141544.650000", "141546.650000", "141548.650000", "141550.650000", "141552.650000", "141554.650000", "141556.650000", "141558.650000", "141600.650000", "141602.650000", "141604.650000", "141606.650000", "141608.650000", "141610.650000", "141612.650000", "141614.650000", "141616.650000", "141618.650000", "141620.650000", "141622.650000", "141624.650000", "141626.650000", "141628.650000", "141630.650000", "141632.650000", "141634.650000", "141636.650000", "141638.650000", "141640.650000", "141642.650000", "141644.650000", "141646.650000", "141648.650000", "141650.650000", "141652.650000", "141654.650000", "141656.650000", "141658.650000", "141700.650000", "141702.650000", "141704.650000", "141706.650000", "141708.650000", "141710.650000", "141712.650000", "141714.650000", "141716.650000", "141718.650000", "141720.650000", "141722.650000", "141724.650000", "141726.650000", "141728.650000", "141730.650000", "141732.650000", "141734.650000", "141736.650000", "141738.650000", "141740.650000", "141742.650000", "141744.650000", "141746.650000", "141748.650000", "141750.650000"],
      "ContentTime": ["141243.233000", "141244.728000", "141246.728000", "141248.728000", "141250.728000", "141252.728000", "141254.728000", "141256.729000", "141258.729000", "141300.728000", "141302.729000", "141304.728000", "141306.729000", "141308.728000", "141310.728000", "141312.729000", "141314.729000", "141316.728000", "141318.728000", "141320.729000", "141322.728000", "141324.728000", "141326.728000", "141328.728000", "141330.729000", "141332.730000", "141334.728000", "141336.728000", "141338.728000", "141340.729000", "141342.729000", "141344.729000", "141346.728000", "141348.729000", "141350.729000", "141352.729000", "141354.728000", "141356.729000", "141358.729000", "141400.728000", "141402.728000", "141404.728000", "141406.729000", "141408.730000", "141410.729000", "141412.728000", "141414.729000", "141416.729000", "141418.729000", "141420.729000", "141422.728000", "141424.729000", "141426.728000", "141428.729000", "141430.729000", "141432.728000", "141434.728000", "141436.729000", "141438.728000", "141440.729000", "141442.730000", "141444.728000", "141446.728000", "141448.728000", "141450.728000", "141452.728000", "141454.728000", "141456.729000", "141458.728000", "141500.729000", "141502.729000", "141504.728000", "141506.728000", "141508.729000", "141510.729000", "141512.729000", "141514.729000", "141516.729000", "141518.729000", "141520.729000", "141522.728000", "141524.728000", "141526.729000", "141528.728000", "141530.728000", "141532.729000", "141534.729000", "141536.729000", "141538.729000", "141540.728000", "141542.728000", "141544.729000", "141546.729000", "141548.728000", "141550.729000", "141552.730000", "141554.729000", "141556.728000", "141558.729000", "141600.728000", "141602.728000", "141604.729000", "141606.728000", "141608.729000", "141610.729000", "141612.728000", "141614.728000", "141616.729000", "141618.729000", "141620.729000", "141622.729000", "141624.728000", "141626.729000", "141628.730000", "141630.728000", "141632.729000", "141634.729000", "141636.729000", "141638.728000", "141640.729000", "141642.729000", "141644.729000", "141646.728000", "141648.728000", "141650.728000", "141652.729000", "141654.729000", "141656.728000", "141658.728000", "141700.728000", "141702.730000", "141704.728000", "141706.729000", "141708.728000", "141710.729000", "141712.729000", "141714.729000", "141716.728000", "141718.728000", "141720.729000", "141722.728000", "141724.728000", "141726.729000", "141728.729000", "141730.728000", "141732.729000", "141734.728000", "141736.730000", "141738.730000", "141740.728000", "141742.728000", "141744.728000", "141746.728000", "141748.729000", "141750.741000", "141752.368000"],
      "InstanceCreationTime": ["141243.233000", "141244.728000", "141246.728000", "141248.728000", "141250.728000", "141252.728000", "141254.728000", "141256.729000", "141258.729000", "141300.728000", "141302.729000", "141304.728000", "141306.729000", "141308.728000", "141310.728000", "141312.729000", "141314.729000", "141316.728000", "141318.728000", "141320.729000", "141322.728000", "141324.728000", "141326.728000", "141328.728000", "141330.729000", "141332.730000", "141334.728000", "141336.728000", "141338.728000", "141340.729000", "141342.729000", "141344.729000", "141346.728000", "141348.729000", "141350.729000", "141352.729000", "141354.728000", "141356.729000", "141358.729000", "141400.728000", "141402.728000", "141404.728000", "141406.729000", "141408.730000", "141410.729000", "141412.728000", "141414.729000", "141416.729000", "141418.729000", "141420.729000", "141422.728000", "141424.729000", "141426.728000", "141428.729000", "141430.729000", "141432.728000", "141434.728000", "141436.729000", "141438.728000", "141440.729000", "141442.730000", "141444.728000", "141446.728000", "141448.728000", "141450.728000", "141452.728000", "141454.728000", "141456.729000", "141458.728000", "141500.729000", "141502.729000", "141504.728000", "141506.728000", "141508.729000", "141510.729000", "141512.729000", "141514.729000", "141516.729000", "141518.729000", "141520.729000", "141522.728000", "141524.728000", "141526.729000", "141528.728000", "141530.728000", "141532.729000", "141534.729000", "141536.729000", "141538.729000", "141540.728000", "141542.728000", "141544.729000", "141546.729000", "141548.728000", "141550.729000", "141552.730000", "141554.729000", "141556.728000", "141558.729000", "141600.728000", "141602.728000", "141604.729000", "141606.728000", "141608.729000", "141610.729000", "141612.728000", "141614.728000", "141616.729000", "141618.729000", "141620.729000", "141622.729000", "141624.728000", "141626.729000", "141628.730000", "141630.728000", "141632.729000", "141634.729000", "141636.729000", "141638.728000", "141640.729000", "141642.729000", "141644.729000", "141646.728000", "141648.728000", "141650.728000", "141652.729000", "141654.729000", "141656.728000", "141658.728000", "141700.728000", "141702.730000", "141704.728000", "141706.729000", "141708.728000", "141710.729000", "141712.729000", "141714.729000", "141716.728000", "141718.728000", "141720.729000", "141722.728000", "141724.728000", "141726.729000", "141728.729000", "141730.728000", "141732.729000", "141734.728000", "141736.730000", "141738.730000", "141740.728000", "141742.728000", "141744.728000", "141746.728000", "141748.729000", "141750.741000", "141752.368000"],
      "InstanceNumber": [1, 2, 3, 4, 5, 6, 7, 8, 9, 10, 11, 12, 13, 14, 15, 16, 17, 18, 19, 20, 21, 22, 23, 24, 25, 26, 27, 28, 29, 30, 31, 32, 33, 34, 35, 36, 37, 38, 39, 40, 41, 42, 43, 44, 45, 46, 47, 48, 49, 50, 51, 52, 53, 54, 55, 56, 57, 58, 59, 60, 61, 62, 63, 64, 65, 66, 67, 68, 69, 70, 71, 72, 73, 74, 75, 76, 77, 78, 79, 80, 81, 82, 83, 84, 85, 86, 87, 88, 89, 90, 91, 92, 93, 94, 95, 96, 97, 98, 99, 100, 101, 102, 103, 104, 105, 106, 107, 108, 109, 110, 111, 112, 113, 114, 115, 116, 117, 118, 119, 120, 121, 122, 123, 124, 125, 126, 127, 128, 129, 130, 131, 132, 133, 134, 135, 136, 137, 138, 139, 140, 141, 142, 143, 144, 145, 146, 147, 148, 149, 150, 151, 152, 153, 154, 155, 156],
      "LargestImagePixelValue": [3520, 3491, 3452, 3493, 3467, 3490, 3430, 3471, 3443, 3469, 3442, 3512, 3465, 3470, 3457, 3441, 3492, 3431, 3457, 3434, 3479, 3414, 3420, 3428, 3452, 3474, 3467, 3420, 3443, 3491, 3412, 3430, 3495, 3506, 3456, 3416, 3435, 3468, 3422, 3464, 3462, 3456, 3470, 3465, 3424, 3443, 3424, 3449, 3426, 3467, 3416, 3381, 3445, 3504, 3566, 3546, 3458, 3442, 3408, 3427, 3420, 3430, 3409, 3437, 3412, 3422, 3426, 3414, 3407, 3417, 3438, 3519, 3464, 3420, 3460, 3509, 3467, 3449, 3454, 3439, 3455, 3455, 3419, 3448, 3559, 3545, 3472, 3450, 3415, 3523, 3505, 3504, 3454, 3445, 3420, 3491, 3439, 3468, 3440, 3457, 3454, 3494, 3445, 3471, 3487, 3461, 3458, 3492, 3447, 3432, 3433, 3453, 3439, 3443, 3466, 3522, 3515, 3495, 3490, 3540, 3510, 3549, 3515, 3523, 3476, 3497, 3432, 3425, 3447, 3472, 3476, 3456, 3433, 3473, 3488, 3541, 3491, 3481, 3512, 3471, 3502, 3460, 3492, 3512, 3476, 3499, 3483, 3519, 3524, 3563, 3502, 3505, 3546, 3536, 3514, 3497],
      "WindowCenter": [813.0, 813.0, 813.0, 813.0, 813.0, 814.0, 814.0, 813.0, 813.0, 813.0, 813.0, 813.0, 811.0, 811.0, 812.0, 812.0, 812.0, 810.0, 811.0, 811.0, 810.0, 808.0, 808.0, 809.0, 810.0, 811.0, 810.0, 810.0, 810.0, 809.0, 807.0, 807.0, 809.0, 809.0, 808.0, 808.0, 808.0, 811.0, 812.0, 810.0, 807.0, 806.0, 806.0, 806.0, 807.0, 807.0, 807.0, 808.0, 809.0, 810.0, 810.0, 808.0, 808.0, 809.0, 810.0, 812.0, 811.0, 810.0, 809.0, 809.0, 810.0, 810.0, 810.0, 808.0, 808.0, 807.0, 807.0, 807.0, 807.0, 808.0, 808.0, 809.0, 808.0, 808.0, 809.0, 809.0, 809.0, 809.0, 810.0, 810.0, 810.0, 809.0, 809.0, 810.0, 811.0, 811.0, 810.0, 809.0, 810.0, 811.0, 811.0, 810.0, 809.0, 808.0, 808.0, 809.0, 808.0, 808.0, 808.0, 809.0, 809.0, 809.0, 808.0, 808.0, 809.0, 810.0, 810.0, 812.0, 811.0, 810.0, 810.0, 810.0, 810.0, 809.0, 808.0, 808.0, 810.0, 811.0, 811.0, 810.0, 810.0, 810.0, 811.0, 810.0, 811.0, 809.0, 807.0, 807.0, 807.0, 808.0, 808.0, 809.0, 808.0, 808.0, 810.0, 811.0, 811.0, 810.0, 809.0, 808.0, 809.0, 809.0, 809.0, 809.0, 808.0, 810.0, 811.0, 809.0, 807.0, 807.0, 808.0, 809.0, 808.0, 807.0, 807.0, 808.0],
      "WindowWidth": [1766.0, 1766.0, 1767.0, 1767.0, 1766.0, 1769.0, 1768.0, 1767.0, 1767.0, 1768.0, 1766.0, 1766.0, 1762.0, 1761.0, 1763.0, 1764.0, 1762.0, 1758.0, 1762.0, 1762.0, 1758.0, 1753.0, 1753.0, 1756.0, 1759.0, 1760.0, 1757.0, 1757.0, 1758.0, 1754.0, 1748.0, 1750.0, 1754.0, 1755.0, 1754.0, 1751.0, 1753.0, 1762.0, 1763.0, 1758.0, 1749.0, 1748.0, 1748.0, 1748.0, 1749.0, 1750.0, 1751.0, 1753.0, 1756.0, 1758.0, 1757.0, 1753.0, 1753.0, 1755.0, 1759.0, 1763.0, 1760.0, 1758.0, 1754.0, 1754.0, 1757.0, 1759.0, 1756.0, 1753.0, 1753.0, 1750.0, 1750.0, 1751.0, 1750.0, 1751.0, 1754.0, 1754.0, 1752.0, 1753.0, 1755.0, 1756.0, 1754.0, 1755.0, 1758.0, 1758.0, 1757.0, 1755.0, 1756.0, 1759.0, 1762.0, 1762.0, 1759.0, 1756.0, 1757.0, 1762.0, 1761.0, 1759.0, 1755.0, 1752.0, 1753.0, 1756.0, 1753.0, 1752.0, 1753.0, 1755.0, 1757.0, 1755.0, 1752.0, 1754.0, 1756.0, 1759.0, 1760.0, 1763.0, 1762.0, 1759.0, 1757.0, 1759.0, 1758.0, 1755.0, 1751.0, 1753.0, 1757.0, 1761.0, 1761.0, 1760.0, 1758.0, 1759.0, 1760.0, 1760.0, 1760.0, 1756.0, 1749.0, 1749.0, 1750.0, 1752.0, 1753.0, 1755.0, 1753.0, 1753.0, 1758.0, 1762.0, 1762.0, 1758.0, 1754.0, 1752.0, 1755.0, 1756.0, 1755.0, 1754.0, 1753.0, 1757.0, 1760.0, 1755.0, 1749.0, 1751.0, 1753.0, 1755.0, 1752.0, 1751.0, 1751.0, 1754.0]
    },
    "slices": {}
  }
}