{
  "AcquisitionMatrixPE": 100,
  "AcquisitionNumber": 1,
  "AcquisitionTime": "13:29:25.125000",
  "BandwidthPerPixelPhaseEncode": 18.519,
  "BaseResolution": 100,
  "BodyPartExamined": "BRAIN",
  "CoilCombinationMethod": "Sum of Squares",
  "ConsistencyInfo": "N4_VE11C_LATEST_20160120",
  "ConversionSoftware": "dcm2niix",
  "ConversionSoftwareVersion": "v1.0.20211006",
  "DerivedVendorReportedEchoSpacing": 0.000539986,
  "DeviceSerialNumber": "166078",
  "DwellTime": 2.1e-06,
  "EchoTime": 0.034,
  "EchoTrainLength": 100,
  "EffectiveEchoSpacing": 0.000539986,
  "FlipAngle": 90,
  "ImageOrientationPatientDICOM": [0.999507, -0.00523832, -0.0309709, -1.05599e-08, 0.985996, -0.166769],
  "ImageOrientationText": "Tra>Cor(-9.6)>Sag(-1.8)",
  "ImageType": [
    "ORIGINAL",
    "PRIMARY",
    "M",
    "ND",
    "MOSAIC"
],
  "ImagingFrequency": 123.258,
  "InPlanePhaseEncodingDirectionDICOM": "COL",
  "InstitutionAddress": "Street StreetNo,Bei Jing,District,CN,ZIP",
  "InstitutionName": "BeiJing Normal University",
  "InstitutionalDepartmentName": "Department",
  "MRAcquisitionType": "2D",
  "MagneticFieldStrength": 3,
  "Manufacturer": "Siemens",
  "ManufacturersModelName": "Prisma",
  "Modality": "MR",
  "MultibandAccelerationFactor": 3,
  "PartialFourier": 1,
  "PatientPosition": "HFS",
  "PercentPhaseFOV": 100,
  "PercentSampling": 100,
  "PhaseEncodingDirection": "j-",
  "PhaseEncodingSteps": 100,
  "PhaseResolution": 1,
  "PixelBandwidth": 2380,
  "ProcedureStepDescription": "BNU_P2018_64CH^Zhen.ZongLei",
  "ProtocolName": "bold_100x100_s3_2x2x2_static_156",
  "PulseSequenceDetails": "%SiemensSeq%\\ep2d_bold",
  "ReceiveCoilActiveElements": "HC1-7;NC1",
  "ReceiveCoilName": "HeadNeck_64",
  "ReconMatrixPE": 100,
  "RefLinesPE": 32,
  "RepetitionTime": 2,
  "SAR": 0.066257,
  "ScanOptions": "FS",
  "ScanningSequence": "EP",
  "SequenceName": "*epfid2d1_100",
  "SequenceVariant": "SK",
  "SeriesDescription": "bold_100x100_s3_2x2x2_static_156",
  "SeriesNumber": 7,
  "ShimSetting": [-5457, -11489, -1258, 333, -5, -153, -189, 57],
  "SliceThickness": 2,
  "SliceTiming": [1.485, 0, 0.99, 0.0825, 1.0725, 0.165, 1.155, 0.2475, 1.2375, 0.33, 1.32, 0.4125, 1.4025, 0.5775, 1.5675, 0.66, 1.65, 0.7425, 1.7325, 0.825, 1.815, 0.9075, 1.8975, 0.495, 1.485, 0, 0.99, 0.0825, 1.0725, 0.165, 1.155, 0.2475, 1.2375, 0.33, 1.32, 0.4125, 1.4025, 0.5775, 1.5675, 0.66, 1.65, 0.7425, 1.7325, 0.825, 1.815, 0.9075, 1.8975, 0.495, 1.485, 0, 0.99, 0.0825, 1.0725, 0.165, 1.155, 0.2475, 1.2375, 0.33, 1.32, 0.4125, 1.4025, 0.5775, 1.5675, 0.66, 1.65, 0.7425, 1.7325, 0.825, 1.815, 0.9075, 1.8975, 0.495],
  "SoftwareVersions": "syngo MR E11",
  "SpacingBetweenSlices": 2,
  "StationName": "AWP166078",
  "TaskName": "action",
  "TotalReadoutTime": 0.0534586,
  "TxRefAmp": 213.373,
  "dcmmeta_affine": [
    [-1.999013066291809, -2.1119825888149535e-08, -0.06282152980566025, 102.18082427978516],
    [0.01047664787620306, 1.971992015838623, -0.33337292075157166, -83.14752960205078],
    [-0.061941783875226974, 0.3335374891757965, 1.9710190296173096, -78.25739288330078],
    [0.0, 0.0, 0.0, 1.0]
],
  "dcmmeta_reorient_transform": [
    [0.0, -1.0, 0.0, 99.0],
    [1.0, 0.0, 0.0, 0.0],
    [0.0, 0.0, 1.0, 0.0],
    [0.0, 0.0, 0.0, 1.0]
],
  "dcmmeta_shape": [100, 100, 72, 156],
  "dcmmeta_slice_dim": 2,
  "dcmmeta_version": 0.6,
  "global": {
    "const": {
      "AcquisitionMatrix": [100, 0, 0, 100],
      "AngioFlag": "N",
      "BitsAllocated": 16,
      "BitsStored": 12,
      "BodyPartExamined": "BRAIN",
      "Columns": 900,
      "EchoNumbers": 1,
      "EchoTime": 34.0,
      "EchoTrainLength": 100,
      "FlipAngle": 90.0,
      "HighBit": 11,
      "ImageOrientationPatient": [0.9995065601566, -0.0052383237284, -0.0309708922772, -1.0559913e-08, 0.98599603652883, -0.1667687499187],
      "ImagePositionPatient": [-901.78605844966, -896.68585635347, 112.95453143092],
      "ImageType": [
        "ORIGINAL",
        "PRIMARY",
        "M",
        "ND",
        "MOSAIC"
],
      "ImagedNucleus": "1H",
      "ImagingFrequency": 123.257683,
      "InPlanePhaseEncodingDirection": "COL",
      "MRAcquisitionType": "2D",
      "MagneticFieldStrength": 3.0,
      "Manufacturer": "SIEMENS",
      "ManufacturerModelName": "Prisma",
      "Modality": "MR",
      "NumberOfAverages": 1.0,
      "NumberOfPhaseEncodingSteps": 100,
      "PercentPhaseFieldOfView": 100.0,
      "PercentSampling": 100.0,
      "PerformedProcedureStepStartTime": "125015.696000",
      "PhotometricInterpretation": "MONOCHROME2",
      "PixelBandwidth": 2380.0,
      "PixelRepresentation": 0,
      "PixelSpacing": [2.0, 2.0],
      "ProtocolName": "bold_100x100_s3_2x2x2_static_156",
      "RepetitionTime": 2000.0,
      "Rows": 900,
      "SAR": 0.06625700620337,
      "SamplesPerPixel": 1,
      "ScanOptions": "FS",
      "ScanningSequence": "EP",
      "SequenceName": "*epfid2d1_100",
      "SequenceVariant": "SK",
      "SeriesDescription": "bold_100x100_s3_2x2x2_static_156",
      "SeriesNumber": 7,
      "SeriesTime": "132928.060000",
      "SliceLocation": -66.473417106135,
      "SliceThickness": 2.0,
      "SmallestImagePixelValue": 0,
      "SoftwareVersions": "syngo MR E11",
      "SpacingBetweenSlices": 2.0000000300821,
      "SpecificCharacterSet": "ISO_IR 100",
      "StudyID": "1",
      "StudyTime": "125015.602000",
      "TransmitCoilName": "Body",
      "VariableFlipAngleFlag": "N",
      "WindowCenterWidthExplanation": "Algo1",
      "dBdt": 0.0},
    "slices": {}
  },
  "time": {
    "samples": {
      "AcquisitionNumber": [1, 2, 3, 4, 5, 6, 7, 8, 9, 10, 11, 12, 13, 14, 15, 16, 17, 18, 19, 20, 21, 22, 23, 24, 25, 26, 27, 28, 29, 30, 31, 32, 33, 34, 35, 36, 37, 38, 39, 40, 41, 42, 43, 44, 45, 46, 47, 48, 49, 50, 51, 52, 53, 54, 55, 56, 57, 58, 59, 60, 61, 62, 63, 64, 65, 66, 67, 68, 69, 70, 71, 72, 73, 74, 75, 76, 77, 78, 79, 80, 81, 82, 83, 84, 85, 86, 87, 88, 89, 90, 91, 92, 93, 94, 95, 96, 97, 98, 99, 100, 101, 102, 103, 104, 105, 106, 107, 108, 109, 110, 111, 112, 113, 114, 115, 116, 117, 118, 119, 120, 121, 122, 123, 124, 125, 126, 127, 128, 129, 130, 131, 132, 133, 134, 135, 136, 137, 138, 139, 140, 141, 142, 143, 144, 145, 146, 147, 148, 149, 150, 151, 152, 153, 154, 155, 156],
      "AcquisitionTime": ["132925.125000", "132927.125000", "132929.125000", "132931.125000", "132933.125000", "132935.125000", "132937.125000", "132939.125000", "132941.125000", "132943.125000", "132945.125000", "132947.125000", "132949.125000", "132951.125000", "132953.125000", "132955.125000", "132957.125000", "132959.125000", "133001.125000", "133003.125000", "133005.125000", "133007.125000", "133009.125000", "133011.125000", "133013.125000", "133015.125000", "133017.125000", "133019.125000", "133021.125000", "133023.125000", "133025.125000", "133027.125000", "133029.125000", "133031.125000", "133033.125000", "133035.125000", "133037.125000", "133039.125000", "133041.125000", "133043.125000", "133045.125000", "133047.125000", "133049.125000", "133051.125000", "133053.125000", "133055.125000", "133057.125000", "133059.125000", "133101.125000", "133103.125000", "133105.125000", "133107.125000", "133109.125000", "133111.125000", "133113.125000", "133115.125000", "133117.125000", "133119.125000", "133121.125000", "133123.125000", "133125.125000", "133127.125000", "133129.125000", "133131.125000", "133133.125000", "133135.125000", "133137.125000", "133139.125000", "133141.125000", "133143.125000", "133145.125000", "133147.125000", "133149.125000", "133151.125000", "133153.125000", "133155.125000", "133157.125000", "133159.125000", "133201.125000", "133203.125000", "133205.125000", "133207.125000", "133209.125000", "133211.125000", "133213.125000", "133215.125000", "133217.125000", "133219.125000", "133221.125000", "133223.125000", "133225.125000", "133227.125000", "133229.125000", "133231.125000", "133233.125000", "133235.125000", "133237.125000", "133239.125000", "133241.125000", "133243.125000", "133245.125000", "133247.125000", "133249.125000", "133251.125000", "133253.125000", "133255.125000", "133257.125000", "133259.125000", "133301.125000", "133303.125000", "133305.125000", "133307.125000", "133309.125000", "133311.125000", "133313.125000", "133315.125000", "133317.125000", "133319.125000", "133321.125000", "133323.125000", "133325.125000", "133327.125000", "133329.125000", "133331.125000", "133333.125000", "133335.125000", "133337.125000", "133339.125000", "133341.125000", "133343.125000", "133345.125000", "133347.125000", "133349.125000", "133351.125000", "133353.125000", "133355.125000", "133357.125000", "133359.125000", "133401.125000", "133403.125000", "133405.125000", "133407.125000", "133409.125000", "133411.125000", "133413.125000", "133415.125000", "133417.125000", "133419.125000", "133421.125000", "133423.125000", "133425.125000", "133427.125000", "133429.125000", "133431.125000", "133433.125000", "133435.125000"],
      "ContentTime": ["132928.064000", "132929.560000", "132931.558000", "132933.560000", "132935.560000", "132937.560000", "132939.560000", "132941.560000", "132943.560000", "132945.560000", "132947.559000", "132949.560000", "132951.560000", "132953.559000", "132955.559000", "132957.560000", "132959.560000", "133001.560000", "133003.560000", "133005.559000", "133007.559000", "133009.560000", "133011.560000", "133013.560000", "133015.559000", "133017.560000", "133019.559000", "133021.560000", "133023.559000", "133025.560000", "133027.560000", "133029.559000", "133031.560000", "133033.560000", "133035.560000", "133037.560000", "133039.560000", "133041.560000", "133043.560000", "133045.559000", "133047.560000", "133049.560000", "133051.560000", "133053.560000", "133055.560000", "133057.560000", "133059.560000", "133101.560000", "133103.560000", "133105.560000", "133107.559000", "133109.559000", "133111.560000", "133113.560000", "133115.558000", "133117.560000", "133119.560000", "133121.559000", "133123.560000", "133125.560000", "133127.559000", "133129.560000", "133131.559000", "133133.559000", "133135.559000", "133137.560000", "133139.560000", "133141.559000", "133143.560000", "133145.560000", "133147.560000", "133149.560000", "133151.560000", "133153.560000", "133155.560000", "133157.559000", "133159.559000", "133201.560000", "133203.560000", "133205.560000", "133207.560000", "133209.560000", "133211.560000", "133213.560000", "133215.560000", "133217.560000", "133219.560000", "133221.560000", "133223.560000", "133225.558000", "133227.559000", "133229.560000", "133231.559000", "133233.559000", "133235.559000", "133237.560000", "133239.559000", "133241.560000", "133243.558000", "133245.559000", "133247.560000", "133249.560000", "133251.560000", "133253.559000", "133255.559000", "133257.559000", "133259.559000", "133301.560000", "133303.559000", "133305.559000", "133307.559000", "133309.559000", "133311.559000", "133313.560000", "133315.560000", "133317.559000", "133319.559000", "133321.559000", "133323.560000", "133325.560000", "133327.559000", "133329.560000", "133331.560000", "133333.559000", "133335.559000", "133337.560000", "133339.560000", "133341.559000", "133343.559000", "133345.560000", "133347.559000", "133349.560000", "133351.560000", "133353.558000", "133355.560000", "133357.560000", "133359.560000", "133401.559000", "133403.560000", "133405.559000", "133407.560000", "133409.560000", "133411.560000", "133413.560000", "133415.560000", "133417.560000", "133419.560000", "133421.560000", "133423.560000", "133425.559000", "133427.559000", "133429.560000", "133431.559000", "133433.559000", "133435.560000", "133437.134000"],
      "InstanceCreationTime": ["132928.064000", "132929.560000", "132931.558000", "132933.560000", "132935.560000", "132937.560000", "132939.560000", "132941.560000", "132943.560000", "132945.560000", "132947.559000", "132949.560000", "132951.560000", "132953.559000", "132955.559000", "132957.560000", "132959.560000", "133001.560000", "133003.560000", "133005.559000", "133007.559000", "133009.560000", "133011.560000", "133013.560000", "133015.559000", "133017.560000", "133019.559000", "133021.560000", "133023.559000", "133025.560000", "133027.560000", "133029.559000", "133031.560000", "133033.560000", "133035.560000", "133037.560000", "133039.560000", "133041.560000", "133043.560000", "133045.559000", "133047.560000", "133049.560000", "133051.560000", "133053.560000", "133055.560000", "133057.560000", "133059.560000", "133101.560000", "133103.560000", "133105.560000", "133107.559000", "133109.559000", "133111.560000", "133113.560000", "133115.558000", "133117.560000", "133119.560000", "133121.559000", "133123.560000", "133125.560000", "133127.559000", "133129.560000", "133131.559000", "133133.559000", "133135.559000", "133137.560000", "133139.560000", "133141.559000", "133143.560000", "133145.560000", "133147.560000", "133149.560000", "133151.560000", "133153.560000", "133155.560000", "133157.559000", "133159.559000", "133201.560000", "133203.560000", "133205.560000", "133207.560000", "133209.560000", "133211.560000", "133213.560000", "133215.560000", "133217.560000", "133219.560000", "133221.560000", "133223.560000", "133225.558000", "133227.559000", "133229.560000", "133231.559000", "133233.559000", "133235.559000", "133237.560000", "133239.559000", "133241.560000", "133243.558000", "133245.559000", "133247.560000", "133249.560000", "133251.560000", "133253.559000", "133255.559000", "133257.559000", "133259.559000", "133301.560000", "133303.559000", "133305.559000", "133307.559000", "133309.559000", "133311.559000", "133313.560000", "133315.560000", "133317.559000", "133319.559000", "133321.559000", "133323.560000", "133325.560000", "133327.559000", "133329.560000", "133331.560000", "133333.559000", "133335.559000", "133337.560000", "133339.560000", "133341.559000", "133343.559000", "133345.560000", "133347.559000", "133349.560000", "133351.560000", "133353.558000", "133355.560000", "133357.560000", "133359.560000", "133401.559000", "133403.560000", "133405.559000", "133407.560000", "133409.560000", "133411.560000", "133413.560000", "133415.560000", "133417.560000", "133419.560000", "133421.560000", "133423.560000", "133425.559000", "133427.559000", "133429.560000", "133431.559000", "133433.559000", "133435.560000", "133437.134000"],
      "InstanceNumber": [1, 2, 3, 4, 5, 6, 7, 8, 9, 10, 11, 12, 13, 14, 15, 16, 17, 18, 19, 20, 21, 22, 23, 24, 25, 26, 27, 28, 29, 30, 31, 32, 33, 34, 35, 36, 37, 38, 39, 40, 41, 42, 43, 44, 45, 46, 47, 48, 49, 50, 51, 52, 53, 54, 55, 56, 57, 58, 59, 60, 61, 62, 63, 64, 65, 66, 67, 68, 69, 70, 71, 72, 73, 74, 75, 76, 77, 78, 79, 80, 81, 82, 83, 84, 85, 86, 87, 88, 89, 90, 91, 92, 93, 94, 95, 96, 97, 98, 99, 100, 101, 102, 103, 104, 105, 106, 107, 108, 109, 110, 111, 112, 113, 114, 115, 116, 117, 118, 119, 120, 121, 122, 123, 124, 125, 126, 127, 128, 129, 130, 131, 132, 133, 134, 135, 136, 137, 138, 139, 140, 141, 142, 143, 144, 145, 146, 147, 148, 149, 150, 151, 152, 153, 154, 155, 156],
      "LargestImagePixelValue": [3719, 3667, 3709, 3673, 3660, 3663, 3698, 3666, 3709, 3669, 3677, 3729, 3710, 3705, 3713, 3743, 3693, 3729, 3700, 3739, 3707, 3725, 3749, 3698, 3720, 3708, 3733, 3724, 3734, 3708, 3742, 3717, 3755, 3750, 3768, 3721, 3764, 3767, 3714, 3726, 3726, 3761, 3752, 3768, 3739, 3745, 3746, 3750, 3763, 3738, 3740, 3748, 3759, 3770, 3740, 3751, 3730, 3787, 3763, 3753, 3739, 3730, 3761, 3730, 3735, 3750, 3764, 3746, 3775, 3733, 3758, 3725, 3746, 3776, 3762, 3780, 3767, 3775, 3779, 3760, 3769, 3756, 3763, 3775, 3744, 3754, 3772, 3753, 3760, 3743, 3775, 3740, 3759, 3738, 3757, 3731, 3747, 3761, 3737, 3748, 3772, 3745, 3741, 3792, 3783, 3777, 3759, 3757, 3740, 3739, 3742, 3738, 3723, 3725, 3757, 3749, 3740, 3746, 3747, 3762, 3746, 3750, 3748, 3754, 3765, 3759, 3742, 3745, 3704, 3745, 3709, 3748, 3738, 3742, 3749, 3723, 3718, 3705, 3705, 3726, 3712, 3690, 3707, 3680, 3686, 3661, 3685, 3699, 3673, 3681, 3715, 3698, 3692, 3683, 3739, 3709],
      "WindowCenter": [818.0, 816.0, 815.0, 815.0, 816.0, 815.0, 814.0, 813.0, 814.0, 816.0, 817.0, 816.0, 815.0, 815.0, 816.0, 816.0, 814.0, 813.0, 813.0, 813.0, 814.0, 815.0, 816.0, 814.0, 814.0, 813.0, 813.0, 813.0, 813.0, 813.0, 814.0, 813.0, 813.0, 814.0, 814.0, 814.0, 814.0, 815.0, 815.0, 814.0, 813.0, 814.0, 814.0, 815.0, 814.0, 813.0, 813.0, 815.0, 816.0, 815.0, 813.0, 813.0, 813.0, 814.0, 814.0, 814.0, 813.0, 814.0, 815.0, 817.0, 817.0, 815.0, 814.0, 815.0, 816.0, 815.0, 815.0, 814.0, 815.0, 816.0, 815.0, 815.0, 815.0, 816.0, 817.0, 816.0, 815.0, 814.0, 813.0, 813.0, 815.0, 816.0, 815.0, 813.0, 811.0, 813.0, 814.0, 815.0, 816.0, 816.0, 814.0, 813.0, 813.0, 814.0, 815.0, 816.0, 816.0, 815.0, 814.0, 814.0, 816.0, 816.0, 815.0, 814.0, 814.0, 815.0, 815.0, 815.0, 816.0, 815.0, 815.0, 815.0, 816.0, 816.0, 815.0, 813.0, 813.0, 814.0, 815.0, 815.0, 814.0, 814.0, 814.0, 814.0, 813.0, 814.0, 815.0, 814.0, 814.0, 814.0, 813.0, 814.0, 813.0, 812.0, 813.0, 815.0, 816.0, 814.0, 814.0, 814.0, 814.0, 813.0, 813.0, 813.0, 814.0, 814.0, 815.0, 814.0, 815.0, 816.0, 816.0, 814.0, 814.0, 814.0, 813.0, 814.0],
      "WindowWidth": [1783.0, 1777.0, 1774.0, 1774.0, 1776.0, 1774.0, 1770.0, 1767.0, 1771.0, 1776.0, 1780.0, 1779.0, 1776.0, 1776.0, 1779.0, 1777.0, 1771.0, 1770.0, 1770.0, 1770.0, 1771.0, 1776.0, 1778.0, 1774.0, 1771.0, 1769.0, 1769.0, 1770.0, 1771.0, 1771.0, 1771.0, 1769.0, 1770.0, 1772.0, 1773.0, 1772.0, 1773.0, 1775.0, 1776.0, 1774.0, 1771.0, 1773.0, 1774.0, 1775.0, 1772.0, 1770.0, 1771.0, 1777.0, 1780.0, 1777.0, 1771.0, 1770.0, 1771.0, 1774.0, 1774.0, 1772.0, 1770.0, 1773.0, 1777.0, 1781.0, 1781.0, 1775.0, 1773.0, 1775.0, 1778.0, 1776.0, 1774.0, 1772.0, 1775.0, 1778.0, 1777.0, 1775.0, 1774.0, 1779.0, 1781.0, 1777.0, 1775.0, 1772.0, 1771.0, 1770.0, 1776.0, 1779.0, 1776.0, 1768.0, 1764.0, 1769.0, 1772.0, 1776.0, 1779.0, 1777.0, 1772.0, 1769.0, 1770.0, 1773.0, 1776.0, 1778.0, 1777.0, 1775.0, 1772.0, 1774.0, 1777.0, 1778.0, 1774.0, 1773.0, 1772.0, 1775.0, 1777.0, 1776.0, 1778.0, 1775.0, 1775.0, 1776.0, 1777.0, 1777.0, 1774.0, 1770.0, 1771.0, 1772.0, 1776.0, 1775.0, 1771.0, 1773.0, 1773.0, 1771.0, 1770.0, 1772.0, 1774.0, 1774.0, 1772.0, 1771.0, 1771.0, 1774.0, 1769.0, 1766.0, 1771.0, 1776.0, 1778.0, 1773.0, 1771.0, 1772.0, 1773.0, 1770.0, 1771.0, 1771.0, 1771.0, 1771.0, 1775.0, 1773.0, 1775.0, 1778.0, 1777.0, 1774.0, 1772.0, 1772.0, 1771.0, 1771.0]
    },
    "slices": {}
  }
}