{
  "AcquisitionMatrixPE": 100,
  "AcquisitionNumber": 1,
  "AcquisitionTime": "13:45:42.932500",
  "BandwidthPerPixelPhaseEncode": 18.519,
  "BaseResolution": 100,
  "BodyPartExamined": "BRAIN",
  "CoilCombinationMethod": "Sum of Squares",
  "ConsistencyInfo": "N4_VE11C_LATEST_20160120",
  "ConversionSoftware": "dcm2niix",
  "ConversionSoftwareVersion": "v1.0.20211006",
  "DerivedVendorReportedEchoSpacing": 0.000539986,
  "DeviceSerialNumber": "166078",
  "DwellTime": 2.1e-06,
  "EchoTime": 0.034,
  "EchoTrainLength": 100,
  "EffectiveEchoSpacing": 0.000539986,
  "FlipAngle": 90,
  "ImageOrientationPatientDICOM": [0.999507, -0.00523832, -0.0309709, -1.05599e-08, 0.985996, -0.166769],
  "ImageOrientationText": "Tra>Cor(-9.6)>Sag(-1.8)",
  "ImageType": [
    "ORIGINAL",
    "PRIMARY",
    "M",
    "ND",
    "MOSAIC"
],
  "ImagingFrequency": 123.258,
  "InPlanePhaseEncodingDirectionDICOM": "COL",
  "InstitutionAddress": "Street StreetNo,Bei Jing,District,CN,ZIP",
  "InstitutionName": "BeiJing Normal University",
  "InstitutionalDepartmentName": "Department",
  "MRAcquisitionType": "2D",
  "MagneticFieldStrength": 3,
  "Manufacturer": "Siemens",
  "ManufacturersModelName": "Prisma",
  "Modality": "MR",
  "MultibandAccelerationFactor": 3,
  "PartialFourier": 1,
  "PatientPosition": "HFS",
  "PercentPhaseFOV": 100,
  "PercentSampling": 100,
  "PhaseEncodingDirection": "j-",
  "PhaseEncodingSteps": 100,
  "PhaseResolution": 1,
  "PixelBandwidth": 2380,
  "ProcedureStepDescription": "BNU_P2018_64CH^Zhen.ZongLei",
  "ProtocolName": "bold_100x100_s3_2x2x2_static_156",
  "PulseSequenceDetails": "%SiemensSeq%\\ep2d_bold",
  "ReceiveCoilActiveElements": "HC1-7;NC1",
  "ReceiveCoilName": "HeadNeck_64",
  "ReconMatrixPE": 100,
  "RefLinesPE": 32,
  "RepetitionTime": 2,
  "SAR": 0.066257,
  "ScanOptions": "FS",
  "ScanningSequence": "EP",
  "SequenceName": "*epfid2d1_100",
  "SequenceVariant": "SK",
  "SeriesDescription": "bold_100x100_s3_2x2x2_static_156",
  "SeriesNumber": 11,
  "ShimSetting": [-5457, -11489, -1258, 333, -5, -153, -189, 57],
  "SliceThickness": 2,
  "SliceTiming": [1.485, 0, 0.99, 0.0825, 1.0725, 0.165, 1.155, 0.2475, 1.2375, 0.33, 1.32, 0.4125, 1.4025, 0.5775, 1.5675, 0.66, 1.65, 0.7425, 1.7325, 0.825, 1.815, 0.9075, 1.8975, 0.495, 1.485, 0, 0.99, 0.0825, 1.0725, 0.165, 1.155, 0.2475, 1.2375, 0.33, 1.32, 0.4125, 1.4025, 0.5775, 1.5675, 0.66, 1.65, 0.7425, 1.7325, 0.825, 1.815, 0.9075, 1.8975, 0.495, 1.485, 0, 0.99, 0.0825, 1.0725, 0.165, 1.155, 0.2475, 1.2375, 0.33, 1.32, 0.4125, 1.4025, 0.5775, 1.5675, 0.66, 1.65, 0.7425, 1.7325, 0.825, 1.815, 0.9075, 1.8975, 0.495],
  "SoftwareVersions": "syngo MR E11",
  "SpacingBetweenSlices": 2,
  "StationName": "AWP166078",
  "TaskName": "action",
  "TotalReadoutTime": 0.0534586,
  "TxRefAmp": 213.373,
  "dcmmeta_affine": [
    [-1.999013066291809, -2.1119825888149535e-08, -0.06282152980566025, 102.18082427978516],
    [0.01047664787620306, 1.971992015838623, -0.33337292075157166, -83.14752960205078],
    [-0.061941783875226974, 0.3335374891757965, 1.9710190296173096, -78.25739288330078],
    [0.0, 0.0, 0.0, 1.0]
],
  "dcmmeta_reorient_transform": [
    [0.0, -1.0, 0.0, 99.0],
    [1.0, 0.0, 0.0, 0.0],
    [0.0, 0.0, 1.0, 0.0],
    [0.0, 0.0, 0.0, 1.0]
],
  "dcmmeta_shape": [100, 100, 72, 156],
  "dcmmeta_slice_dim": 2,
  "dcmmeta_version": 0.6,
  "global": {
    "const": {
      "AcquisitionMatrix": [100, 0, 0, 100],
      "AngioFlag": "N",
      "BitsAllocated": 16,
      "BitsStored": 12,
      "BodyPartExamined": "BRAIN",
      "Columns": 900,
      "EchoNumbers": 1,
      "EchoTime": 34.0,
      "EchoTrainLength": 100,
      "FlipAngle": 90.0,
      "HighBit": 11,
      "ImageOrientationPatient": [0.9995065601566, -0.0052383237284, -0.0309708922772, -1.0559913e-08, 0.98599603652883, -0.1667687499187],
      "ImagePositionPatient": [-901.78605844966, -896.68585635347, 112.95453143092],
      "ImageType": [
        "ORIGINAL",
        "PRIMARY",
        "M",
        "ND",
        "MOSAIC"
],
      "ImagedNucleus": "1H",
      "ImagingFrequency": 123.257684,
      "InPlanePhaseEncodingDirection": "COL",
      "MRAcquisitionType": "2D",
      "MagneticFieldStrength": 3.0,
      "Manufacturer": "SIEMENS",
      "ManufacturerModelName": "Prisma",
      "Modality": "MR",
      "NumberOfAverages": 1.0,
      "NumberOfPhaseEncodingSteps": 100,
      "PercentPhaseFieldOfView": 100.0,
      "PercentSampling": 100.0,
      "PerformedProcedureStepStartTime": "125015.696000",
      "PhotometricInterpretation": "MONOCHROME2",
      "PixelBandwidth": 2380.0,
      "PixelRepresentation": 0,
      "PixelSpacing": [2.0, 2.0],
      "ProtocolName": "bold_100x100_s3_2x2x2_static_156",
      "RepetitionTime": 2000.0,
      "Rows": 900,
      "SAR": 0.06625700620337,
      "SamplesPerPixel": 1,
      "ScanOptions": "FS",
      "ScanningSequence": "EP",
      "SequenceName": "*epfid2d1_100",
      "SequenceVariant": "SK",
      "SeriesDescription": "bold_100x100_s3_2x2x2_static_156",
      "SeriesNumber": 11,
      "SeriesTime": "134545.528000",
      "SliceLocation": -66.473417106135,
      "SliceThickness": 2.0,
      "SmallestImagePixelValue": 0,
      "SoftwareVersions": "syngo MR E11",
      "SpacingBetweenSlices": 2.0000000300821,
      "SpecificCharacterSet": "ISO_IR 100",
      "StudyID": "1",
      "StudyTime": "125015.602000",
      "TransmitCoilName": "Body",
      "VariableFlipAngleFlag": "N",
      "WindowCenterWidthExplanation": "Algo1",
      "dBdt": 0.0},
    "slices": {}
  },
  "time": {
    "samples": {
      "AcquisitionNumber": [1, 2, 3, 4, 5, 6, 7, 8, 9, 10, 11, 12, 13, 14, 15, 16, 17, 18, 19, 20, 21, 22, 23, 24, 25, 26, 27, 28, 29, 30, 31, 32, 33, 34, 35, 36, 37, 38, 39, 40, 41, 42, 43, 44, 45, 46, 47, 48, 49, 50, 51, 52, 53, 54, 55, 56, 57, 58, 59, 60, 61, 62, 63, 64, 65, 66, 67, 68, 69, 70, 71, 72, 73, 74, 75, 76, 77, 78, 79, 80, 81, 82, 83, 84, 85, 86, 87, 88, 89, 90, 91, 92, 93, 94, 95, 96, 97, 98, 99, 100, 101, 102, 103, 104, 105, 106, 107, 108, 109, 110, 111, 112, 113, 114, 115, 116, 117, 118, 119, 120, 121, 122, 123, 124, 125, 126, 127, 128, 129, 130, 131, 132, 133, 134, 135, 136, 137, 138, 139, 140, 141, 142, 143, 144, 145, 146, 147, 148, 149, 150, 151, 152, 153, 154, 155, 156],
      "AcquisitionTime": ["134542.932500", "134544.932500", "134546.932500", "134548.932500", "134550.932500", "134552.932500", "134554.932500", "134556.932500", "134558.932500", "134600.932500", "134602.932500", "134604.932500", "134606.932500", "134608.932500", "134610.932500", "134612.932500", "134614.932500", "134616.932500", "134618.932500", "134620.932500", "134622.932500", "134624.932500", "134626.932500", "134628.932500", "134630.932500", "134632.932500", "134634.932500", "134636.932500", "134638.932500", "134640.932500", "134642.932500", "134644.932500", "134646.932500", "134648.932500", "134650.932500", "134652.932500", "134654.932500", "134656.932500", "134658.932500", "134700.932500", "134702.932500", "134704.932500", "134706.932500", "134708.932500", "134710.932500", "134712.932500", "134714.932500", "134716.932500", "134718.932500", "134720.932500", "134722.932500", "134724.932500", "134726.932500", "134728.932500", "134730.932500", "134732.932500", "134734.932500", "134736.932500", "134738.932500", "134740.932500", "134742.932500", "134744.932500", "134746.932500", "134748.932500", "134750.932500", "134752.932500", "134754.932500", "134756.932500", "134758.932500", "134800.932500", "134802.932500", "134804.932500", "134806.932500", "134808.932500", "134810.932500", "134812.932500", "134814.932500", "134816.932500", "134818.932500", "134820.932500", "134822.932500", "134824.932500", "134826.932500", "134828.932500", "134830.932500", "134832.932500", "134834.932500", "134836.932500", "134838.932500", "134840.932500", "134842.932500", "134844.932500", "134846.932500", "134848.932500", "134850.932500", "134852.932500", "134854.932500", "134856.932500", "134858.932500", "134900.932500", "134902.932500", "134904.932500", "134906.932500", "134908.932500", "134910.932500", "134912.932500", "134914.932500", "134916.932500", "134918.932500", "134920.932500", "134922.932500", "134924.932500", "134926.932500", "134928.932500", "134930.932500", "134932.932500", "134934.932500", "134936.932500", "134938.932500", "134940.932500", "134942.932500", "134944.932500", "134946.932500", "134948.932500", "134950.932500", "134952.932500", "134954.932500", "134956.932500", "134958.932500", "135000.932500", "135002.932500", "135004.932500", "135006.932500", "135008.932500", "135010.932500", "135012.932500", "135014.932500", "135016.932500", "135018.932500", "135020.932500", "135022.932500", "135024.932500", "135026.932500", "135028.932500", "135030.932500", "135032.932500", "135034.932500", "135036.932500", "135038.932500", "135040.932500", "135042.932500", "135044.932500", "135046.932500", "135048.932500", "135050.932500", "135052.932500"],
      "ContentTime": ["134545.532000", "134547.027000", "134549.027000", "134551.028000", "134553.029000", "134555.028000", "134557.529000", "134559.028000", "134601.028000", "134603.027000", "134605.028000", "134607.028000", "134609.029000", "134611.529000", "134613.029000", "134615.029000", "134617.028000", "134619.028000", "134621.028000", "134623.027000", "134625.027000", "134627.028000", "134629.028000", "134631.028000", "134633.028000", "134635.028000", "134637.028000", "134639.027000", "134641.027000", "134643.027000", "134645.029000", "134647.028000", "134649.029000", "134651.529000", "134653.028000", "134655.027000", "134657.028000", "134659.528000", "134701.029000", "134703.029000", "134705.029000", "134707.028000", "134709.028000", "134711.028000", "134713.527000", "134715.028000", "134717.027000", "134719.028000", "134721.028000", "134723.029000", "134725.028000", "134727.028000", "134729.028000", "134731.027000", "134733.528000", "134735.027000", "134737.029000", "134739.029000", "134741.029000", "134743.028000", "134745.029000", "134747.027000", "134749.028000", "134751.028000", "134753.029000", "134755.028000", "134757.028000", "134759.028000", "134801.029000", "134803.027000", "134805.028000", "134807.027000", "134809.028000", "134811.029000", "134813.028000", "134815.028000", "134817.028000", "134819.028000", "134821.027000", "134823.028000", "134825.027000", "134827.027000", "134829.028000", "134831.028000", "134833.028000", "134835.029000", "134837.028000", "134839.028000", "134841.027000", "134843.028000", "134845.028000", "134847.029000", "134849.029000", "134851.029000", "134853.029000", "134855.029000", "134857.027000", "134859.027000", "134901.027000", "134903.028000", "134905.028000", "134907.028000", "134909.029000", "134911.028000", "134913.027000", "134915.028000", "134917.028000", "134919.028000", "134921.028000", "134923.029000", "134925.028000", "134927.529000", "134929.028000", "134931.028000", "134933.027000", "134935.028000", "134937.028000", "134939.028000", "134941.029000", "134943.028000", "134945.029000", "134947.029000", "134949.027000", "134951.028000", "134953.027000", "134955.027000", "134957.028000", "134959.028000", "135001.028000", "135003.029000", "135005.028000", "135007.027000", "135009.027000", "135011.027000", "135013.028000", "135015.028000", "135017.028000", "135019.029000", "135021.028000", "135023.028000", "135025.027000", "135027.027000", "135029.027000", "135031.043000", "135033.028000", "135035.028000", "135037.028000", "135039.029000", "135041.027000", "135043.028000", "135045.027000", "135047.028000", "135049.029000", "135051.029000", "135053.028000", "135054.891000"],
      "InstanceCreationTime": ["134545.532000", "134547.027000", "134549.027000", "134551.028000", "134553.029000", "134555.028000", "134557.529000", "134559.028000", "134601.028000", "134603.027000", "134605.028000", "134607.028000", "134609.029000", "134611.529000", "134613.029000", "134615.029000", "134617.028000", "134619.028000", "134621.028000", "134623.027000", "134625.027000", "134627.028000", "134629.028000", "134631.028000", "134633.028000", "134635.028000", "134637.028000", "134639.027000", "134641.027000", "134643.027000", "134645.029000", "134647.028000", "134649.029000", "134651.529000", "134653.028000", "134655.027000", "134657.028000", "134659.528000", "134701.029000", "134703.029000", "134705.029000", "134707.028000", "134709.028000", "134711.028000", "134713.527000", "134715.028000", "134717.027000", "134719.028000", "134721.028000", "134723.029000", "134725.028000", "134727.028000", "134729.028000", "134731.027000", "134733.528000", "134735.027000", "134737.029000", "134739.029000", "134741.029000", "134743.028000", "134745.029000", "134747.027000", "134749.028000", "134751.028000", "134753.029000", "134755.028000", "134757.028000", "134759.028000", "134801.029000", "134803.027000", "134805.028000", "134807.027000", "134809.028000", "134811.029000", "134813.028000", "134815.028000", "134817.028000", "134819.028000", "134821.027000", "134823.028000", "134825.027000", "134827.027000", "134829.028000", "134831.028000", "134833.028000", "134835.029000", "134837.028000", "134839.028000", "134841.027000", "134843.028000", "134845.028000", "134847.029000", "134849.029000", "134851.029000", "134853.029000", "134855.029000", "134857.027000", "134859.027000", "134901.027000", "134903.028000", "134905.028000", "134907.028000", "134909.029000", "134911.028000", "134913.027000", "134915.028000", "134917.028000", "134919.028000", "134921.028000", "134923.029000", "134925.028000", "134927.529000", "134929.028000", "134931.028000", "134933.027000", "134935.028000", "134937.028000", "134939.028000", "134941.029000", "134943.028000", "134945.029000", "134947.029000", "134949.027000", "134951.028000", "134953.027000", "134955.027000", "134957.028000", "134959.028000", "135001.028000", "135003.029000", "135005.028000", "135007.027000", "135009.027000", "135011.027000", "135013.028000", "135015.028000", "135017.028000", "135019.029000", "135021.028000", "135023.028000", "135025.027000", "135027.027000", "135029.027000", "135031.043000", "135033.028000", "135035.028000", "135037.028000", "135039.029000", "135041.027000", "135043.028000", "135045.027000", "135047.028000", "135049.029000", "135051.029000", "135053.028000", "135054.891000"],
      "InstanceNumber": [1, 2, 3, 4, 5, 6, 7, 8, 9, 10, 11, 12, 13, 14, 15, 16, 17, 18, 19, 20, 21, 22, 23, 24, 25, 26, 27, 28, 29, 30, 31, 32, 33, 34, 35, 36, 37, 38, 39, 40, 41, 42, 43, 44, 45, 46, 47, 48, 49, 50, 51, 52, 53, 54, 55, 56, 57, 58, 59, 60, 61, 62, 63, 64, 65, 66, 67, 68, 69, 70, 71, 72, 73, 74, 75, 76, 77, 78, 79, 80, 81, 82, 83, 84, 85, 86, 87, 88, 89, 90, 91, 92, 93, 94, 95, 96, 97, 98, 99, 100, 101, 102, 103, 104, 105, 106, 107, 108, 109, 110, 111, 112, 113, 114, 115, 116, 117, 118, 119, 120, 121, 122, 123, 124, 125, 126, 127, 128, 129, 130, 131, 132, 133, 134, 135, 136, 137, 138, 139, 140, 141, 142, 143, 144, 145, 146, 147, 148, 149, 150, 151, 152, 153, 154, 155, 156],
      "LargestImagePixelValue": [3613, 3580, 3588, 3586, 3593, 3617, 3596, 3599, 3578, 3569, 3564, 3560, 3602, 3562, 3578, 3581, 3560, 3562, 3549, 3519, 3540, 3537, 3520, 3567, 3532, 3544, 3553, 3539, 3520, 3530, 3572, 3568, 3560, 3546, 3557, 3544, 3595, 3540, 3568, 3553, 3562, 3544, 3582, 3602, 3578, 3607, 3558, 3590, 3526, 3576, 3574, 3603, 3546, 3609, 3560, 3576, 3575, 3583, 3550, 3571, 3544, 3528, 3539, 3565, 3539, 3598, 3578, 3567, 3536, 3611, 3563, 3574, 3555, 3572, 3515, 3510, 3540, 3555, 3583, 3620, 3563, 3579, 3524, 3519, 3554, 3535, 3540, 3555, 3523, 3533, 3540, 3506, 3547, 3544, 3513, 3515, 3521, 3504, 3509, 3547, 3502, 3531, 3530, 3551, 3499, 3508, 3511, 3507, 3504, 3524, 3512, 3533, 3506, 3515, 3523, 3544, 3552, 3558, 3519, 3570, 3562, 3536, 3584, 3555, 3559, 3556, 3576, 3606, 3593, 3585, 3572, 3581, 3584, 3603, 3583, 3596, 3561, 3574, 3570, 3597, 3556, 3571, 3531, 3570, 3562, 3566, 3550, 3538, 3539, 3551, 3583, 3575, 3564, 3546, 3565, 3577],
      "WindowCenter": [817.0, 815.0, 814.0, 814.0, 814.0, 814.0, 814.0, 812.0, 812.0, 814.0, 814.0, 813.0, 813.0, 812.0, 812.0, 812.0, 813.0, 814.0, 813.0, 812.0, 811.0, 812.0, 813.0, 812.0, 810.0, 811.0, 812.0, 812.0, 810.0, 811.0, 811.0, 809.0, 809.0, 811.0, 812.0, 811.0, 810.0, 809.0, 810.0, 811.0, 810.0, 810.0, 810.0, 811.0, 811.0, 812.0, 811.0, 812.0, 812.0, 812.0, 811.0, 811.0, 812.0, 812.0, 809.0, 809.0, 810.0, 811.0, 812.0, 812.0, 812.0, 812.0, 812.0, 812.0, 811.0, 811.0, 811.0, 810.0, 809.0, 811.0, 812.0, 813.0, 811.0, 811.0, 811.0, 812.0, 811.0, 811.0, 811.0, 811.0, 811.0, 813.0, 813.0, 812.0, 811.0, 811.0, 813.0, 812.0, 810.0, 810.0, 811.0, 811.0, 811.0, 811.0, 811.0, 811.0, 812.0, 811.0, 812.0, 813.0, 813.0, 814.0, 811.0, 811.0, 811.0, 813.0, 813.0, 812.0, 811.0, 810.0, 812.0, 812.0, 811.0, 811.0, 810.0, 811.0, 814.0, 813.0, 811.0, 810.0, 809.0, 809.0, 811.0, 811.0, 810.0, 811.0, 811.0, 810.0, 810.0, 811.0, 812.0, 812.0, 812.0, 811.0, 810.0, 810.0, 811.0, 812.0, 811.0, 809.0, 809.0, 810.0, 812.0, 812.0, 812.0, 810.0, 810.0, 811.0, 812.0, 812.0, 811.0, 811.0, 811.0, 811.0, 810.0, 810.0],
      "WindowWidth": [1779.0, 1773.0, 1771.0, 1770.0, 1770.0, 1772.0, 1770.0, 1765.0, 1766.0, 1769.0, 1771.0, 1769.0, 1767.0, 1765.0, 1766.0, 1766.0, 1769.0, 1770.0, 1769.0, 1764.0, 1762.0, 1765.0, 1768.0, 1765.0, 1761.0, 1764.0, 1767.0, 1765.0, 1760.0, 1762.0, 1762.0, 1758.0, 1758.0, 1762.0, 1765.0, 1762.0, 1760.0, 1756.0, 1760.0, 1764.0, 1760.0, 1759.0, 1760.0, 1761.0, 1763.0, 1767.0, 1762.0, 1764.0, 1765.0, 1765.0, 1762.0, 1763.0, 1764.0, 1765.0, 1758.0, 1758.0, 1760.0, 1763.0, 1766.0, 1766.0, 1766.0, 1765.0, 1765.0, 1764.0, 1762.0, 1763.0, 1762.0, 1760.0, 1758.0, 1764.0, 1767.0, 1768.0, 1764.0, 1762.0, 1763.0, 1766.0, 1763.0, 1762.0, 1762.0, 1762.0, 1764.0, 1767.0, 1767.0, 1765.0, 1763.0, 1764.0, 1768.0, 1767.0, 1760.0, 1760.0, 1763.0, 1763.0, 1762.0, 1761.0, 1763.0, 1764.0, 1764.0, 1762.0, 1764.0, 1767.0, 1769.0, 1770.0, 1763.0, 1762.0, 1763.0, 1767.0, 1768.0, 1766.0, 1762.0, 1761.0, 1764.0, 1766.0, 1761.0, 1761.0, 1760.0, 1764.0, 1771.0, 1768.0, 1763.0, 1759.0, 1758.0, 1758.0, 1763.0, 1764.0, 1760.0, 1761.0, 1762.0, 1760.0, 1761.0, 1762.0, 1765.0, 1764.0, 1766.0, 1763.0, 1758.0, 1759.0, 1764.0, 1765.0, 1762.0, 1757.0, 1755.0, 1760.0, 1765.0, 1766.0, 1763.0, 1759.0, 1761.0, 1764.0, 1766.0, 1764.0, 1761.0, 1763.0, 1763.0, 1762.0, 1759.0, 1760.0]
    },
    "slices": {}
  }
}