{
  "AcquisitionMatrixPE": 100,
  "AcquisitionNumber": 1,
  "AcquisitionTime": "13:04:57.420000",
  "BandwidthPerPixelPhaseEncode": 18.519,
  "BaseResolution": 100,
  "BodyPartExamined": "BRAIN",
  "CoilCombinationMethod": "Sum of Squares",
  "ConsistencyInfo": "N4_VE11C_LATEST_20160120",
  "ConversionSoftware": "dcm2niix",
  "ConversionSoftwareVersion": "v1.0.20211006",
  "DerivedVendorReportedEchoSpacing": 0.000539986,
  "DeviceSerialNumber": "166078",
  "DwellTime": 2.1e-06,
  "EchoTime": 0.034,
  "EchoTrainLength": 100,
  "EffectiveEchoSpacing": 0.000539986,
  "FlipAngle": 90,
  "ImageOrientationPatientDICOM": [0.999507, -0.00523832, -0.0309709, -1.05599e-08, 0.985996, -0.166769],
  "ImageOrientationText": "Tra>Cor(-9.6)>Sag(-1.8)",
  "ImageType": [
    "ORIGINAL",
    "PRIMARY",
    "M",
    "ND",
    "MOSAIC"
],
  "ImagingFrequency": 123.258,
  "InPlanePhaseEncodingDirectionDICOM": "COL",
  "InstitutionAddress": "Street StreetNo,Bei Jing,District,CN,ZIP",
  "InstitutionName": "BeiJing Normal University",
  "InstitutionalDepartmentName": "Department",
  "MRAcquisitionType": "2D",
  "MagneticFieldStrength": 3,
  "Manufacturer": "Siemens",
  "ManufacturersModelName": "Prisma",
  "Modality": "MR",
  "MultibandAccelerationFactor": 3,
  "PartialFourier": 1,
  "PatientPosition": "HFS",
  "PercentPhaseFOV": 100,
  "PercentSampling": 100,
  "PhaseEncodingDirection": "j-",
  "PhaseEncodingSteps": 100,
  "PhaseResolution": 1,
  "PixelBandwidth": 2380,
  "ProcedureStepDescription": "BNU_P2018_64CH^Zhen.ZongLei",
  "ProtocolName": "bold_100x100_s3_2x2x2_static_156",
  "PulseSequenceDetails": "%SiemensSeq%\\ep2d_bold",
  "ReceiveCoilActiveElements": "HC1-7;NC1",
  "ReceiveCoilName": "HeadNeck_64",
  "ReconMatrixPE": 100,
  "RefLinesPE": 32,
  "RepetitionTime": 2,
  "SAR": 0.066257,
  "ScanOptions": "FS",
  "ScanningSequence": "EP",
  "SequenceName": "*epfid2d1_100",
  "SequenceVariant": "SK",
  "SeriesDescription": "bold_100x100_s3_2x2x2_static_156",
  "SeriesNumber": 3,
  "ShimSetting": [-5457, -11489, -1258, 333, -5, -153, -189, 57],
  "SliceThickness": 2,
  "SliceTiming": [1.485, 0, 0.99, 0.0825, 1.0725, 0.165, 1.155, 0.2475, 1.2375, 0.33, 1.32, 0.4125, 1.4025, 0.5775, 1.5675, 0.66, 1.65, 0.7425, 1.7325, 0.825, 1.815, 0.9075, 1.8975, 0.495, 1.485, 0, 0.99, 0.0825, 1.0725, 0.165, 1.155, 0.2475, 1.2375, 0.33, 1.32, 0.4125, 1.4025, 0.5775, 1.5675, 0.66, 1.65, 0.7425, 1.7325, 0.825, 1.815, 0.9075, 1.8975, 0.495, 1.485, 0, 0.99, 0.0825, 1.0725, 0.165, 1.155, 0.2475, 1.2375, 0.33, 1.32, 0.4125, 1.4025, 0.5775, 1.5675, 0.66, 1.65, 0.7425, 1.7325, 0.825, 1.815, 0.9075, 1.8975, 0.495],
  "SoftwareVersions": "syngo MR E11",
  "SpacingBetweenSlices": 2,
  "StationName": "AWP166078",
  "TaskName": "action",
  "TotalReadoutTime": 0.0534586,
  "TxRefAmp": 213.373,
  "dcmmeta_affine": [
    [-1.999013066291809, -2.1119825888149535e-08, -0.06282152980566025, 102.18082427978516],
    [0.01047664787620306, 1.971992015838623, -0.33337292075157166, -83.14752960205078],
    [-0.061941783875226974, 0.3335374891757965, 1.9710190296173096, -78.25739288330078],
    [0.0, 0.0, 0.0, 1.0]
],
  "dcmmeta_reorient_transform": [
    [0.0, -1.0, 0.0, 99.0],
    [1.0, 0.0, 0.0, 0.0],
    [0.0, 0.0, 1.0, 0.0],
    [0.0, 0.0, 0.0, 1.0]
],
  "dcmmeta_shape": [100, 100, 72, 156],
  "dcmmeta_slice_dim": 2,
  "dcmmeta_version": 0.6,
  "global": {
    "const": {
      "AcquisitionMatrix": [100, 0, 0, 100],
      "AngioFlag": "N",
      "BitsAllocated": 16,
      "BitsStored": 12,
      "BodyPartExamined": "BRAIN",
      "Columns": 900,
      "EchoNumbers": 1,
      "EchoTime": 34.0,
      "EchoTrainLength": 100,
      "FlipAngle": 90.0,
      "HighBit": 11,
      "ImageOrientationPatient": [0.9995065601566, -0.0052383237284, -0.0309708922772, -1.0559913e-08, 0.98599603652883, -0.1667687499187],
      "ImagePositionPatient": [-901.78605844966, -896.68585635347, 112.95453143092],
      "ImageType": [
        "ORIGINAL",
        "PRIMARY",
        "M",
        "ND",
        "MOSAIC"
],
      "ImagedNucleus": "1H",
      "ImagingFrequency": 123.257654,
      "InPlanePhaseEncodingDirection": "COL",
      "MRAcquisitionType": "2D",
      "MagneticFieldStrength": 3.0,
      "Manufacturer": "SIEMENS",
      "ManufacturerModelName": "Prisma",
      "Modality": "MR",
      "NumberOfAverages": 1.0,
      "NumberOfPhaseEncodingSteps": 100,
      "PercentPhaseFieldOfView": 100.0,
      "PercentSampling": 100.0,
      "PerformedProcedureStepStartTime": "125015.696000",
      "PhotometricInterpretation": "MONOCHROME2",
      "PixelBandwidth": 2380.0,
      "PixelRepresentation": 0,
      "PixelSpacing": [2.0, 2.0],
      "ProtocolName": "bold_100x100_s3_2x2x2_static_156",
      "RepetitionTime": 2000.0,
      "Rows": 900,
      "SAR": 0.06625700620337,
      "SamplesPerPixel": 1,
      "ScanOptions": "FS",
      "ScanningSequence": "EP",
      "SequenceName": "*epfid2d1_100",
      "SequenceVariant": "SK",
      "SeriesDescription": "bold_100x100_s3_2x2x2_static_156",
      "SeriesNumber": 3,
      "SeriesTime": "130459.803000",
      "SliceLocation": -66.473417106135,
      "SliceThickness": 2.0,
      "SmallestImagePixelValue": 0,
      "SoftwareVersions": "syngo MR E11",
      "SpacingBetweenSlices": 2.0000000300821,
      "SpecificCharacterSet": "ISO_IR 100",
      "StudyID": "1",
      "StudyTime": "125015.602000",
      "TransmitCoilName": "Body",
      "VariableFlipAngleFlag": "N",
      "WindowCenterWidthExplanation": "Algo1",
      "dBdt": 0.0},
    "slices": {}
  },
  "time": {
    "samples": {
      "AcquisitionNumber": [1, 2, 3, 4, 5, 6, 7, 8, 9, 10, 11, 12, 13, 14, 15, 16, 17, 18, 19, 20, 21, 22, 23, 24, 25, 26, 27, 28, 29, 30, 31, 32, 33, 34, 35, 36, 37, 38, 39, 40, 41, 42, 43, 44, 45, 46, 47, 48, 49, 50, 51, 52, 53, 54, 55, 56, 57, 58, 59, 60, 61, 62, 63, 64, 65, 66, 67, 68, 69, 70, 71, 72, 73, 74, 75, 76, 77, 78, 79, 80, 81, 82, 83, 84, 85, 86, 87, 88, 89, 90, 91, 92, 93, 94, 95, 96, 97, 98, 99, 100, 101, 102, 103, 104, 105, 106, 107, 108, 109, 110, 111, 112, 113, 114, 115, 116, 117, 118, 119, 120, 121, 122, 123, 124, 125, 126, 127, 128, 129, 130, 131, 132, 133, 134, 135, 136, 137, 138, 139, 140, 141, 142, 143, 144, 145, 146, 147, 148, 149, 150, 151, 152, 153, 154, 155, 156],
      "AcquisitionTime": ["130457.420000", "130459.420000", "130501.420000", "130503.420000", "130505.420000", "130507.420000", "130509.420000", "130511.420000", "130513.420000", "130515.420000", "130517.420000", "130519.420000", "130521.420000", "130523.420000", "130525.420000", "130527.420000", "130529.420000", "130531.420000", "130533.420000", "130535.420000", "130537.420000", "130539.420000", "130541.420000", "130543.420000", "130545.420000", "130547.420000", "130549.420000", "130551.420000", "130553.420000", "130555.420000", "130557.420000", "130559.420000", "130601.420000", "130603.420000", "130605.420000", "130607.420000", "130609.420000", "130611.420000", "130613.420000", "130615.420000", "130617.420000", "130619.420000", "130621.420000", "130623.420000", "130625.420000", "130627.420000", "130629.420000", "130631.420000", "130633.420000", "130635.420000", "130637.420000", "130639.420000", "130641.420000", "130643.420000", "130645.420000", "130647.420000", "130649.420000", "130651.420000", "130653.420000", "130655.420000", "130657.420000", "130659.420000", "130701.420000", "130703.420000", "130705.420000", "130707.420000", "130709.420000", "130711.420000", "130713.420000", "130715.420000", "130717.420000", "130719.420000", "130721.420000", "130723.420000", "130725.420000", "130727.420000", "130729.420000", "130731.420000", "130733.420000", "130735.420000", "130737.420000", "130739.420000", "130741.420000", "130743.420000", "130745.420000", "130747.420000", "130749.420000", "130751.420000", "130753.420000", "130755.420000", "130757.420000", "130759.420000", "130801.420000", "130803.420000", "130805.420000", "130807.420000", "130809.420000", "130811.420000", "130813.420000", "130815.420000", "130817.420000", "130819.420000", "130821.420000", "130823.420000", "130825.420000", "130827.420000", "130829.420000", "130831.420000", "130833.420000", "130835.420000", "130837.420000", "130839.420000", "130841.420000", "130843.420000", "130845.420000", "130847.420000", "130849.420000", "130851.420000", "130853.420000", "130855.420000", "130857.420000", "130859.420000", "130901.420000", "130903.420000", "130905.420000", "130907.420000", "130909.420000", "130911.420000", "130913.420000", "130915.420000", "130917.420000", "130919.420000", "130921.420000", "130923.420000", "130925.420000", "130927.420000", "130929.420000", "130931.420000", "130933.420000", "130935.420000", "130937.420000", "130939.420000", "130941.420000", "130943.420000", "130945.420000", "130947.420000", "130949.420000", "130951.420000", "130953.420000", "130955.420000", "130957.420000", "130959.420000", "131001.420000", "131003.420000", "131005.420000", "131007.420000"],
      "ContentTime": ["130459.806000", "130501.302000", "130503.302000", "130505.303000", "130507.302000", "130509.302000", "130511.302000", "130513.302000", "130515.302000", "130517.302000", "130519.302000", "130521.303000", "130523.302000", "130525.303000", "130527.302000", "130529.301000", "130531.302000", "130533.302000", "130535.302000", "130537.302000", "130539.303000", "130541.303000", "130543.302000", "130545.301000", "130547.301000", "130549.302000", "130551.301000", "130553.302000", "130555.302000", "130557.302000", "130559.303000", "130601.302000", "130603.302000", "130605.301000", "130607.301000", "130609.301000", "130611.301000", "130613.302000", "130615.302000", "130617.302000", "130619.302000", "130621.302000", "130623.302000", "130625.302000", "130627.301000", "130629.301000", "130631.303000", "130633.303000", "130635.303000", "130637.302000", "130639.301000", "130641.301000", "130643.301000", "130645.302000", "130647.301000", "130649.303000", "130651.302000", "130653.303000", "130655.301000", "130657.301000", "130659.302000", "130701.302000", "130703.302000", "130705.301000", "130707.302000", "130709.302000", "130711.301000", "130713.301000", "130715.302000", "130717.302000", "130719.301000", "130721.301000", "130723.303000", "130725.303000", "130727.302000", "130729.302000", "130731.301000", "130733.302000", "130735.302000", "130737.302000", "130739.301000", "130741.303000", "130743.303000", "130745.303000", "130747.301000", "130749.302000", "130751.302000", "130753.301000", "130755.301000", "130757.302000", "130759.303000", "130801.302000", "130803.302000", "130805.302000", "130807.301000", "130809.302000", "130811.302000", "130813.301000", "130815.302000", "130817.302000", "130819.303000", "130821.302000", "130823.301000", "130825.301000", "130827.301000", "130829.302000", "130831.302000", "130833.303000", "130835.303000", "130837.303000", "130839.301000", "130841.301000", "130843.302000", "130845.301000", "130847.301000", "130849.301000", "130851.303000", "130853.302000", "130855.303000", "130857.302000", "130859.301000", "130901.302000", "130903.302000", "130905.302000", "130907.302000", "130909.302000", "130911.303000", "130913.303000", "130915.302000", "130917.301000", "130919.302000", "130921.301000", "130923.302000", "130925.303000", "130927.303000", "130929.302000", "130931.301000", "130933.302000", "130935.301000", "130937.301000", "130939.301000", "130941.302000", "130943.303000", "130945.303000", "130947.302000", "130949.301000", "130951.302000", "130953.302000", "130955.301000", "130957.302000", "130959.302000", "131001.302000", "131003.303000", "131005.302000", "131007.301000", "131008.965000"],
      "InstanceCreationTime": ["130459.806000", "130501.302000", "130503.302000", "130505.303000", "130507.302000", "130509.302000", "130511.302000", "130513.302000", "130515.302000", "130517.302000", "130519.302000", "130521.303000", "130523.302000", "130525.303000", "130527.302000", "130529.301000", "130531.302000", "130533.302000", "130535.302000", "130537.302000", "130539.303000", "130541.303000", "130543.302000", "130545.301000", "130547.301000", "130549.302000", "130551.301000", "130553.302000", "130555.302000", "130557.302000", "130559.303000", "130601.302000", "130603.302000", "130605.301000", "130607.301000", "130609.301000", "130611.301000", "130613.302000", "130615.302000", "130617.302000", "130619.302000", "130621.302000", "130623.302000", "130625.302000", "130627.301000", "130629.301000", "130631.303000", "130633.303000", "130635.303000", "130637.302000", "130639.301000", "130641.301000", "130643.301000", "130645.302000", "130647.301000", "130649.303000", "130651.302000", "130653.303000", "130655.301000", "130657.301000", "130659.302000", "130701.302000", "130703.302000", "130705.301000", "130707.302000", "130709.302000", "130711.301000", "130713.301000", "130715.302000", "130717.302000", "130719.301000", "130721.301000", "130723.303000", "130725.303000", "130727.302000", "130729.302000", "130731.301000", "130733.302000", "130735.302000", "130737.302000", "130739.301000", "130741.303000", "130743.303000", "130745.303000", "130747.301000", "130749.302000", "130751.302000", "130753.301000", "130755.301000", "130757.302000", "130759.303000", "130801.302000", "130803.302000", "130805.302000", "130807.301000", "130809.302000", "130811.302000", "130813.301000", "130815.302000", "130817.302000", "130819.303000", "130821.302000", "130823.301000", "130825.301000", "130827.301000", "130829.302000", "130831.302000", "130833.303000", "130835.303000", "130837.303000", "130839.301000", "130841.301000", "130843.302000", "130845.301000", "130847.301000", "130849.301000", "130851.303000", "130853.302000", "130855.303000", "130857.302000", "130859.301000", "130901.302000", "130903.302000", "130905.302000", "130907.302000", "130909.302000", "130911.303000", "130913.303000", "130915.302000", "130917.301000", "130919.302000", "130921.301000", "130923.302000", "130925.303000", "130927.303000", "130929.302000", "130931.301000", "130933.302000", "130935.301000", "130937.301000", "130939.301000", "130941.302000", "130943.303000", "130945.303000", "130947.302000", "130949.301000", "130951.302000", "130953.302000", "130955.301000", "130957.302000", "130959.302000", "131001.302000", "131003.303000", "131005.302000", "131007.301000", "131008.965000"],
      "InstanceNumber": [1, 2, 3, 4, 5, 6, 7, 8, 9, 10, 11, 12, 13, 14, 15, 16, 17, 18, 19, 20, 21, 22, 23, 24, 25, 26, 27, 28, 29, 30, 31, 32, 33, 34, 35, 36, 37, 38, 39, 40, 41, 42, 43, 44, 45, 46, 47, 48, 49, 50, 51, 52, 53, 54, 55, 56, 57, 58, 59, 60, 61, 62, 63, 64, 65, 66, 67, 68, 69, 70, 71, 72, 73, 74, 75, 76, 77, 78, 79, 80, 81, 82, 83, 84, 85, 86, 87, 88, 89, 90, 91, 92, 93, 94, 95, 96, 97, 98, 99, 100, 101, 102, 103, 104, 105, 106, 107, 108, 109, 110, 111, 112, 113, 114, 115, 116, 117, 118, 119, 120, 121, 122, 123, 124, 125, 126, 127, 128, 129, 130, 131, 132, 133, 134, 135, 136, 137, 138, 139, 140, 141, 142, 143, 144, 145, 146, 147, 148, 149, 150, 151, 152, 153, 154, 155, 156],
      "LargestImagePixelValue": [3824, 3582, 4019, 3704, 3684, 3702, 3667, 3601, 3653, 3649, 3622, 3586, 3657, 3615, 3645, 3619, 3589, 3629, 3535, 3636, 3580, 3547, 3576, 3551, 3535, 3555, 3544, 3527, 3551, 3543, 3510, 3564, 3600, 3591, 3550, 3590, 3581, 3535, 3513, 3586, 3531, 3544, 3523, 3604, 3593, 3543, 3535, 3555, 3531, 3559, 3506, 3524, 3515, 3549, 3546, 3555, 3530, 3551, 3523, 3506, 3508, 3562, 3538, 3515, 3503, 3529, 3523, 3558, 3584, 3657, 3578, 3572, 3515, 3575, 3560, 3533, 3560, 3517, 3579, 3532, 3561, 3583, 3615, 3551, 3611, 3595, 3627, 3642, 3590, 3513, 3516, 3521, 3500, 3529, 3491, 3516, 3542, 3544, 3543, 3521, 3549, 3523, 3546, 3522, 3544, 3547, 3582, 3542, 3566, 3525, 3570, 3593, 3584, 3596, 3654, 3643, 3620, 3635, 3678, 3678, 3664, 3673, 3701, 3690, 3688, 3675, 3671, 3695, 3705, 3696, 3694, 3725, 3681, 3687, 3698, 3699, 3711, 3695, 3697, 3738, 3730, 3744, 3715, 3720, 3756, 3712, 3756, 3721, 3728, 3726, 3769, 3704, 3738, 3703, 3737, 3689],
      "WindowCenter": [823.0, 797.0, 821.0, 814.0, 815.0, 814.0, 812.0, 815.0, 819.0, 818.0, 817.0, 816.0, 817.0, 819.0, 818.0, 817.0, 817.0, 817.0, 816.0, 816.0, 816.0, 816.0, 816.0, 814.0, 814.0, 816.0, 816.0, 816.0, 816.0, 817.0, 816.0, 814.0, 814.0, 816.0, 816.0, 816.0, 815.0, 814.0, 813.0, 812.0, 812.0, 814.0, 813.0, 814.0, 814.0, 814.0, 815.0, 814.0, 814.0, 814.0, 815.0, 815.0, 813.0, 814.0, 814.0, 815.0, 816.0, 815.0, 813.0, 813.0, 814.0, 814.0, 813.0, 814.0, 814.0, 813.0, 811.0, 813.0, 816.0, 818.0, 815.0, 814.0, 813.0, 814.0, 815.0, 816.0, 817.0, 816.0, 814.0, 812.0, 813.0, 815.0, 815.0, 812.0, 813.0, 815.0, 817.0, 816.0, 815.0, 813.0, 814.0, 815.0, 814.0, 813.0, 812.0, 813.0, 813.0, 815.0, 815.0, 814.0, 812.0, 811.0, 813.0, 813.0, 814.0, 814.0, 815.0, 815.0, 816.0, 815.0, 815.0, 814.0, 815.0, 816.0, 816.0, 815.0, 815.0, 814.0, 816.0, 817.0, 817.0, 814.0, 814.0, 814.0, 815.0, 816.0, 815.0, 815.0, 815.0, 815.0, 816.0, 817.0, 818.0, 817.0, 816.0, 816.0, 818.0, 817.0, 816.0, 815.0, 817.0, 818.0, 818.0, 817.0, 816.0, 816.0, 817.0, 817.0, 817.0, 817.0, 817.0, 816.0, 816.0, 817.0, 818.0, 818.0],
      "WindowWidth": [1801.0, 1728.0, 1795.0, 1776.0, 1778.0, 1775.0, 1769.0, 1776.0, 1788.0, 1787.0, 1782.0, 1780.0, 1784.0, 1787.0, 1786.0, 1783.0, 1782.0, 1783.0, 1778.0, 1778.0, 1779.0, 1780.0, 1779.0, 1775.0, 1775.0, 1779.0, 1780.0, 1779.0, 1780.0, 1783.0, 1778.0, 1774.0, 1775.0, 1780.0, 1780.0, 1779.0, 1776.0, 1774.0, 1770.0, 1769.0, 1769.0, 1773.0, 1772.0, 1774.0, 1774.0, 1775.0, 1775.0, 1775.0, 1773.0, 1775.0, 1778.0, 1777.0, 1771.0, 1773.0, 1773.0, 1777.0, 1780.0, 1778.0, 1771.0, 1771.0, 1773.0, 1774.0, 1772.0, 1773.0, 1773.0, 1770.0, 1766.0, 1771.0, 1781.0, 1786.0, 1778.0, 1774.0, 1772.0, 1774.0, 1776.0, 1779.0, 1782.0, 1778.0, 1774.0, 1768.0, 1772.0, 1778.0, 1777.0, 1770.0, 1771.0, 1778.0, 1784.0, 1781.0, 1776.0, 1770.0, 1773.0, 1776.0, 1774.0, 1771.0, 1769.0, 1771.0, 1772.0, 1775.0, 1777.0, 1773.0, 1769.0, 1766.0, 1770.0, 1772.0, 1775.0, 1774.0, 1776.0, 1778.0, 1779.0, 1776.0, 1776.0, 1774.0, 1776.0, 1778.0, 1780.0, 1778.0, 1776.0, 1774.0, 1779.0, 1784.0, 1781.0, 1775.0, 1773.0, 1773.0, 1776.0, 1780.0, 1778.0, 1776.0, 1777.0, 1776.0, 1779.0, 1784.0, 1785.0, 1782.0, 1780.0, 1780.0, 1784.0, 1784.0, 1780.0, 1777.0, 1782.0, 1787.0, 1787.0, 1782.0, 1780.0, 1779.0, 1782.0, 1781.0, 1781.0, 1784.0, 1783.0, 1780.0, 1780.0, 1782.0, 1785.0, 1785.0]
    },
    "slices": {}
  }
}