{
  "AcquisitionMatrixPE": 100,
  "AcquisitionNumber": 1,
  "AcquisitionTime": "13:17:6.495000",
  "BandwidthPerPixelPhaseEncode": 18.519,
  "BaseResolution": 100,
  "BodyPartExamined": "BRAIN",
  "CoilCombinationMethod": "Sum of Squares",
  "ConsistencyInfo": "N4_VE11C_LATEST_20160120",
  "ConversionSoftware": "dcm2niix",
  "ConversionSoftwareVersion": "v1.0.20211006",
  "DerivedVendorReportedEchoSpacing": 0.000539986,
  "DeviceSerialNumber": "166078",
  "DwellTime": 2.1e-06,
  "EchoTime": 0.034,
  "EchoTrainLength": 100,
  "EffectiveEchoSpacing": 0.000539986,
  "FlipAngle": 90,
  "ImageOrientationPatientDICOM": [0.999507, -0.00523832, -0.0309709, -1.05599e-08, 0.985996, -0.166769],
  "ImageOrientationText": "Tra>Cor(-9.6)>Sag(-1.8)",
  "ImageType": [
    "ORIGINAL",
    "PRIMARY",
    "M",
    "ND",
    "MOSAIC"
],
  "ImagingFrequency": 123.258,
  "InPlanePhaseEncodingDirectionDICOM": "COL",
  "InstitutionAddress": "Street StreetNo,Bei Jing,District,CN,ZIP",
  "InstitutionName": "BeiJing Normal University",
  "InstitutionalDepartmentName": "Department",
  "MRAcquisitionType": "2D",
  "MagneticFieldStrength": 3,
  "Manufacturer": "Siemens",
  "ManufacturersModelName": "Prisma",
  "Modality": "MR",
  "MultibandAccelerationFactor": 3,
  "PartialFourier": 1,
  "PatientPosition": "HFS",
  "PercentPhaseFOV": 100,
  "PercentSampling": 100,
  "PhaseEncodingDirection": "j-",
  "PhaseEncodingSteps": 100,
  "PhaseResolution": 1,
  "PixelBandwidth": 2380,
  "ProcedureStepDescription": "BNU_P2018_64CH^Zhen.ZongLei",
  "ProtocolName": "bold_100x100_s3_2x2x2_static_156",
  "PulseSequenceDetails": "%SiemensSeq%\\ep2d_bold",
  "ReceiveCoilActiveElements": "HC1-7;NC1",
  "ReceiveCoilName": "HeadNeck_64",
  "ReconMatrixPE": 100,
  "RefLinesPE": 32,
  "RepetitionTime": 2,
  "SAR": 0.066257,
  "ScanOptions": "FS",
  "ScanningSequence": "EP",
  "SequenceName": "*epfid2d1_100",
  "SequenceVariant": "SK",
  "SeriesDescription": "bold_100x100_s3_2x2x2_static_156",
  "SeriesNumber": 5,
  "ShimSetting": [-5457, -11489, -1258, 333, -5, -153, -189, 57],
  "SliceThickness": 2,
  "SliceTiming": [1.485, 0, 0.99, 0.0825, 1.0725, 0.165, 1.155, 0.2475, 1.2375, 0.33, 1.32, 0.4125, 1.4025, 0.5775, 1.5675, 0.66, 1.65, 0.7425, 1.7325, 0.825, 1.815, 0.9075, 1.8975, 0.495, 1.485, 0, 0.99, 0.0825, 1.0725, 0.165, 1.155, 0.2475, 1.2375, 0.33, 1.32, 0.4125, 1.4025, 0.5775, 1.5675, 0.66, 1.65, 0.7425, 1.7325, 0.825, 1.815, 0.9075, 1.8975, 0.495, 1.485, 0, 0.99, 0.0825, 1.0725, 0.165, 1.155, 0.2475, 1.2375, 0.33, 1.32, 0.4125, 1.4025, 0.5775, 1.5675, 0.66, 1.65, 0.7425, 1.7325, 0.825, 1.815, 0.9075, 1.8975, 0.495],
  "SoftwareVersions": "syngo MR E11",
  "SpacingBetweenSlices": 2,
  "StationName": "AWP166078",
  "TaskName": "action",
  "TotalReadoutTime": 0.0534586,
  "TxRefAmp": 213.373,
  "dcmmeta_affine": [
    [-1.999013066291809, -2.1119825888149535e-08, -0.06282152980566025, 102.18082427978516],
    [0.01047664787620306, 1.971992015838623, -0.33337292075157166, -83.14752960205078],
    [-0.061941783875226974, 0.3335374891757965, 1.9710190296173096, -78.25739288330078],
    [0.0, 0.0, 0.0, 1.0]
],
  "dcmmeta_reorient_transform": [
    [0.0, -1.0, 0.0, 99.0],
    [1.0, 0.0, 0.0, 0.0],
    [0.0, 0.0, 1.0, 0.0],
    [0.0, 0.0, 0.0, 1.0]
],
  "dcmmeta_shape": [100, 100, 72, 156],
  "dcmmeta_slice_dim": 2,
  "dcmmeta_version": 0.6,
  "global": {
    "const": {
      "AcquisitionMatrix": [100, 0, 0, 100],
      "AngioFlag": "N",
      "BitsAllocated": 16,
      "BitsStored": 12,
      "BodyPartExamined": "BRAIN",
      "Columns": 900,
      "EchoNumbers": 1,
      "EchoTime": 34.0,
      "EchoTrainLength": 100,
      "FlipAngle": 90.0,
      "HighBit": 11,
      "ImageOrientationPatient": [0.9995065601566, -0.0052383237284, -0.0309708922772, -1.0559913e-08, 0.98599603652883, -0.1667687499187],
      "ImagePositionPatient": [-901.78605844966, -896.68585635347, 112.95453143092],
      "ImageType": [
        "ORIGINAL",
        "PRIMARY",
        "M",
        "ND",
        "MOSAIC"
],
      "ImagedNucleus": "1H",
      "ImagingFrequency": 123.257673,
      "InPlanePhaseEncodingDirection": "COL",
      "MRAcquisitionType": "2D",
      "MagneticFieldStrength": 3.0,
      "Manufacturer": "SIEMENS",
      "ManufacturerModelName": "Prisma",
      "Modality": "MR",
      "NumberOfAverages": 1.0,
      "NumberOfPhaseEncodingSteps": 100,
      "PercentPhaseFieldOfView": 100.0,
      "PercentSampling": 100.0,
      "PerformedProcedureStepStartTime": "125015.696000",
      "PhotometricInterpretation": "MONOCHROME2",
      "PixelBandwidth": 2380.0,
      "PixelRepresentation": 0,
      "PixelSpacing": [2.0, 2.0],
      "ProtocolName": "bold_100x100_s3_2x2x2_static_156",
      "RepetitionTime": 2000.0,
      "Rows": 900,
      "SAR": 0.06625700620337,
      "SamplesPerPixel": 1,
      "ScanOptions": "FS",
      "ScanningSequence": "EP",
      "SequenceName": "*epfid2d1_100",
      "SequenceVariant": "SK",
      "SeriesDescription": "bold_100x100_s3_2x2x2_static_156",
      "SeriesNumber": 5,
      "SeriesTime": "131708.520000",
      "SliceLocation": -66.473417106135,
      "SliceThickness": 2.0,
      "SmallestImagePixelValue": 0,
      "SoftwareVersions": "syngo MR E11",
      "SpacingBetweenSlices": 2.0000000300821,
      "SpecificCharacterSet": "ISO_IR 100",
      "StudyID": "1",
      "StudyTime": "125015.602000",
      "TransmitCoilName": "Body",
      "VariableFlipAngleFlag": "N",
      "WindowCenterWidthExplanation": "Algo1",
      "dBdt": 0.0},
    "slices": {}
  },
  "time": {
    "samples": {
      "AcquisitionNumber": [1, 2, 3, 4, 5, 6, 7, 8, 9, 10, 11, 12, 13, 14, 15, 16, 17, 18, 19, 20, 21, 22, 23, 24, 25, 26, 27, 28, 29, 30, 31, 32, 33, 34, 35, 36, 37, 38, 39, 40, 41, 42, 43, 44, 45, 46, 47, 48, 49, 50, 51, 52, 53, 54, 55, 56, 57, 58, 59, 60, 61, 62, 63, 64, 65, 66, 67, 68, 69, 70, 71, 72, 73, 74, 75, 76, 77, 78, 79, 80, 81, 82, 83, 84, 85, 86, 87, 88, 89, 90, 91, 92, 93, 94, 95, 96, 97, 98, 99, 100, 101, 102, 103, 104, 105, 106, 107, 108, 109, 110, 111, 112, 113, 114, 115, 116, 117, 118, 119, 120, 121, 122, 123, 124, 125, 126, 127, 128, 129, 130, 131, 132, 133, 134, 135, 136, 137, 138, 139, 140, 141, 142, 143, 144, 145, 146, 147, 148, 149, 150, 151, 152, 153, 154, 155, 156],
      "AcquisitionTime": ["131706.495000", "131708.495000", "131710.495000", "131712.495000", "131714.495000", "131716.495000", "131718.495000", "131720.495000", "131722.495000", "131724.495000", "131726.495000", "131728.495000", "131730.495000", "131732.495000", "131734.495000", "131736.495000", "131738.495000", "131740.495000", "131742.495000", "131744.495000", "131746.495000", "131748.495000", "131750.495000", "131752.495000", "131754.495000", "131756.495000", "131758.495000", "131800.495000", "131802.495000", "131804.495000", "131806.495000", "131808.495000", "131810.495000", "131812.495000", "131814.495000", "131816.495000", "131818.495000", "131820.495000", "131822.495000", "131824.495000", "131826.495000", "131828.495000", "131830.495000", "131832.495000", "131834.495000", "131836.495000", "131838.495000", "131840.495000", "131842.495000", "131844.495000", "131846.495000", "131848.495000", "131850.495000", "131852.495000", "131854.495000", "131856.495000", "131858.495000", "131900.495000", "131902.495000", "131904.495000", "131906.495000", "131908.495000", "131910.495000", "131912.495000", "131914.495000", "131916.495000", "131918.495000", "131920.495000", "131922.495000", "131924.495000", "131926.495000", "131928.495000", "131930.495000", "131932.495000", "131934.495000", "131936.495000", "131938.495000", "131940.495000", "131942.495000", "131944.495000", "131946.495000", "131948.495000", "131950.495000", "131952.495000", "131954.495000", "131956.495000", "131958.495000", "132000.495000", "132002.495000", "132004.495000", "132006.495000", "132008.495000", "132010.495000", "132012.495000", "132014.495000", "132016.495000", "132018.495000", "132020.495000", "132022.495000", "132024.495000", "132026.495000", "132028.495000", "132030.495000", "132032.495000", "132034.495000", "132036.495000", "132038.495000", "132040.495000", "132042.495000", "132044.495000", "132046.495000", "132048.495000", "132050.495000", "132052.495000", "132054.495000", "132056.495000", "132058.495000", "132100.495000", "132102.495000", "132104.495000", "132106.495000", "132108.495000", "132110.495000", "132112.495000", "132114.495000", "132116.495000", "132118.495000", "132120.495000", "132122.495000", "132124.495000", "132126.495000", "132128.495000", "132130.495000", "132132.495000", "132134.495000", "132136.495000", "132138.495000", "132140.495000", "132142.495000", "132144.495000", "132146.495000", "132148.495000", "132150.495000", "132152.495000", "132154.495000", "132156.495000", "132158.495000", "132200.495000", "132202.495000", "132204.495000", "132206.495000", "132208.495000", "132210.495000", "132212.495000", "132214.495000", "132216.495000"],
      "ContentTime": ["131708.523000", "131710.519000", "131712.017000", "131714.018000", "131716.018000", "131718.019000", "131720.019000", "131722.519000", "131724.519000", "131726.518000", "131728.019000", "131730.018000", "131732.017000", "131734.017000", "131736.518000", "131738.518000", "131740.018000", "131742.018000", "131744.518000", "131746.517000", "131748.517000", "131750.017000", "131752.017000", "131754.518000", "131756.518000", "131758.018000", "131800.018000", "131802.018000", "131804.018000", "131806.018000", "131808.018000", "131810.018000", "131812.018000", "131814.019000", "131816.518000", "131818.018000", "131820.018000", "131822.518000", "131824.518000", "131826.518000", "131828.018000", "131830.018000", "131832.019000", "131834.519000", "131836.518000", "131838.517000", "131840.018000", "131842.017000", "131844.017000", "131846.018000", "131848.519000", "131850.018000", "131852.018000", "131854.018000", "131856.517000", "131858.018000", "131900.017000", "131902.017000", "131904.519000", "131906.019000", "131908.018000", "131910.018000", "131912.519000", "131914.517000", "131916.518000", "131918.017000", "131920.519000", "131922.519000", "131924.019000", "131926.018000", "131928.018000", "131930.019000", "131932.017000", "131934.018000", "131936.018000", "131938.018000", "131940.019000", "131942.019000", "131944.518000", "131946.519000", "131948.518000", "131950.017000", "131952.017000", "131954.517000", "131956.018000", "131958.018000", "132000.518000", "132002.518000", "132004.018000", "132006.017000", "132008.517000", "132010.017000", "132012.017000", "132014.518000", "132016.018000", "132018.018000", "132020.018000", "132022.018000", "132024.518000", "132026.017000", "132028.517000", "132030.018000", "132032.018000", "132034.018000", "132036.018000", "132038.018000", "132040.018000", "132042.018000", "132044.517000", "132046.017000", "132048.518000", "132050.518000", "132052.018000", "132054.519000", "132056.519000", "132058.518000", "132100.517000", "132102.518000", "132104.017000", "132106.518000", "132108.518000", "132110.518000", "132112.018000", "132114.019000", "132116.018000", "132118.518000", "132120.517000", "132122.017000", "132124.518000", "132126.018000", "132128.018000", "132130.018000", "132132.519000", "132134.518000", "132136.017000", "132138.518000", "132140.518000", "132142.019000", "132144.019000", "132146.518000", "132148.019000", "132150.018000", "132152.518000", "132154.018000", "132156.018000", "132158.018000", "132200.019000", "132202.019000", "132204.519000", "132206.018000", "132208.019000", "132210.018000", "132212.017000", "132214.017000", "132216.018000", "132218.072000"],
      "InstanceCreationTime": ["131708.523000", "131710.519000", "131712.017000", "131714.018000", "131716.018000", "131718.019000", "131720.019000", "131722.519000", "131724.519000", "131726.518000", "131728.019000", "131730.018000", "131732.017000", "131734.017000", "131736.518000", "131738.518000", "131740.018000", "131742.018000", "131744.518000", "131746.517000", "131748.517000", "131750.017000", "131752.017000", "131754.518000", "131756.518000", "131758.018000", "131800.018000", "131802.018000", "131804.018000", "131806.018000", "131808.018000", "131810.018000", "131812.018000", "131814.019000", "131816.518000", "131818.018000", "131820.018000", "131822.518000", "131824.518000", "131826.518000", "131828.018000", "131830.018000", "131832.019000", "131834.519000", "131836.518000", "131838.517000", "131840.018000", "131842.017000", "131844.017000", "131846.018000", "131848.519000", "131850.018000", "131852.018000", "131854.018000", "131856.517000", "131858.018000", "131900.017000", "131902.017000", "131904.519000", "131906.019000", "131908.018000", "131910.018000", "131912.519000", "131914.517000", "131916.518000", "131918.017000", "131920.519000", "131922.519000", "131924.019000", "131926.018000", "131928.018000", "131930.019000", "131932.017000", "131934.018000", "131936.018000", "131938.018000", "131940.019000", "131942.019000", "131944.518000", "131946.519000", "131948.518000", "131950.017000", "131952.017000", "131954.517000", "131956.018000", "131958.018000", "132000.518000", "132002.518000", "132004.018000", "132006.017000", "132008.517000", "132010.017000", "132012.017000", "132014.518000", "132016.018000", "132018.018000", "132020.018000", "132022.018000", "132024.518000", "132026.017000", "132028.517000", "132030.018000", "132032.018000", "132034.018000", "132036.018000", "132038.018000", "132040.018000", "132042.018000", "132044.517000", "132046.017000", "132048.518000", "132050.518000", "132052.018000", "132054.519000", "132056.519000", "132058.518000", "132100.517000", "132102.518000", "132104.017000", "132106.518000", "132108.518000", "132110.518000", "132112.018000", "132114.019000", "132116.018000", "132118.518000", "132120.517000", "132122.017000", "132124.518000", "132126.018000", "132128.018000", "132130.018000", "132132.519000", "132134.518000", "132136.017000", "132138.518000", "132140.518000", "132142.019000", "132144.019000", "132146.518000", "132148.019000", "132150.018000", "132152.518000", "132154.018000", "132156.018000", "132158.018000", "132200.019000", "132202.019000", "132204.519000", "132206.018000", "132208.019000", "132210.018000", "132212.017000", "132214.017000", "132216.018000", "132218.072000"],
      "InstanceNumber": [1, 2, 3, 4, 5, 6, 7, 8, 9, 10, 11, 12, 13, 14, 15, 16, 17, 18, 19, 20, 21, 22, 23, 24, 25, 26, 27, 28, 29, 30, 31, 32, 33, 34, 35, 36, 37, 38, 39, 40, 41, 42, 43, 44, 45, 46, 47, 48, 49, 50, 51, 52, 53, 54, 55, 56, 57, 58, 59, 60, 61, 62, 63, 64, 65, 66, 67, 68, 69, 70, 71, 72, 73, 74, 75, 76, 77, 78, 79, 80, 81, 82, 83, 84, 85, 86, 87, 88, 89, 90, 91, 92, 93, 94, 95, 96, 97, 98, 99, 100, 101, 102, 103, 104, 105, 106, 107, 108, 109, 110, 111, 112, 113, 114, 115, 116, 117, 118, 119, 120, 121, 122, 123, 124, 125, 126, 127, 128, 129, 130, 131, 132, 133, 134, 135, 136, 137, 138, 139, 140, 141, 142, 143, 144, 145, 146, 147, 148, 149, 150, 151, 152, 153, 154, 155, 156],
      "LargestImagePixelValue": [3930, 3832, 3820, 3839, 3780, 3825, 3823, 3833, 3800, 3857, 3783, 3814, 3791, 3793, 3804, 3792, 3787, 3802, 3780, 3787, 3807, 3789, 3773, 3806, 3797, 3770, 3813, 3799, 3826, 3812, 3818, 3783, 3774, 3802, 3776, 3819, 3775, 3798, 3793, 3783, 3817, 3817, 3819, 3802, 3794, 3825, 3798, 3828, 3782, 3795, 3799, 3809, 3793, 3779, 3826, 3826, 3848, 3799, 3844, 3827, 3777, 3799, 3825, 3836, 3805, 3819, 3790, 3808, 3799, 3779, 3811, 3803, 3796, 3816, 3799, 3814, 3819, 3772, 3797, 3772, 3800, 3794, 3755, 3807, 3792, 3801, 3807, 3800, 3839, 3787, 3779, 3818, 3796, 3841, 3829, 3807, 3811, 3774, 3790, 3808, 3807, 3819, 3799, 3801, 3798, 3824, 3828, 3812, 3809, 3766, 3797, 3827, 3754, 3803, 3797, 3836, 3802, 3825, 3796, 3795, 3838, 3813, 3821, 3823, 3835, 3799, 3808, 3784, 3800, 3810, 3791, 3806, 3754, 3815, 3812, 3840, 3776, 3811, 3777, 3762, 3805, 3767, 3786, 3767, 3783, 3766, 3775, 3825, 3752, 3772, 3777, 3809, 3761, 3804, 3806, 3790],
      "WindowCenter": [820.0, 818.0, 818.0, 818.0, 817.0, 817.0, 817.0, 816.0, 819.0, 821.0, 820.0, 819.0, 819.0, 820.0, 820.0, 818.0, 818.0, 818.0, 818.0, 817.0, 817.0, 818.0, 818.0, 817.0, 818.0, 818.0, 818.0, 816.0, 816.0, 817.0, 816.0, 816.0, 816.0, 817.0, 817.0, 816.0, 815.0, 816.0, 817.0, 817.0, 816.0, 816.0, 817.0, 817.0, 816.0, 816.0, 816.0, 817.0, 819.0, 819.0, 817.0, 817.0, 818.0, 818.0, 817.0, 816.0, 817.0, 818.0, 818.0, 817.0, 816.0, 816.0, 817.0, 819.0, 819.0, 816.0, 815.0, 816.0, 819.0, 819.0, 818.0, 816.0, 815.0, 817.0, 817.0, 816.0, 816.0, 815.0, 814.0, 814.0, 816.0, 818.0, 816.0, 816.0, 817.0, 818.0, 819.0, 817.0, 814.0, 813.0, 813.0, 815.0, 817.0, 818.0, 819.0, 820.0, 820.0, 819.0, 818.0, 817.0, 818.0, 817.0, 817.0, 817.0, 818.0, 819.0, 818.0, 817.0, 816.0, 816.0, 817.0, 819.0, 819.0, 818.0, 816.0, 815.0, 816.0, 817.0, 817.0, 816.0, 817.0, 817.0, 817.0, 816.0, 816.0, 817.0, 818.0, 818.0, 819.0, 818.0, 818.0, 819.0, 819.0, 818.0, 816.0, 815.0, 815.0, 816.0, 815.0, 814.0, 816.0, 817.0, 818.0, 817.0, 816.0, 816.0, 816.0, 817.0, 817.0, 816.0, 814.0, 814.0, 815.0, 815.0, 815.0, 817.0],
      "WindowWidth": [1792.0, 1785.0, 1787.0, 1785.0, 1782.0, 1783.0, 1782.0, 1780.0, 1788.0, 1795.0, 1792.0, 1789.0, 1789.0, 1791.0, 1790.0, 1784.0, 1784.0, 1785.0, 1784.0, 1782.0, 1782.0, 1786.0, 1785.0, 1783.0, 1785.0, 1786.0, 1784.0, 1779.0, 1780.0, 1782.0, 1780.0, 1779.0, 1781.0, 1784.0, 1783.0, 1779.0, 1776.0, 1780.0, 1783.0, 1781.0, 1778.0, 1779.0, 1782.0, 1782.0, 1781.0, 1780.0, 1779.0, 1782.0, 1787.0, 1787.0, 1782.0, 1781.0, 1785.0, 1784.0, 1781.0, 1779.0, 1782.0, 1784.0, 1786.0, 1782.0, 1780.0, 1781.0, 1784.0, 1790.0, 1788.0, 1779.0, 1775.0, 1779.0, 1787.0, 1789.0, 1784.0, 1778.0, 1778.0, 1781.0, 1782.0, 1779.0, 1778.0, 1776.0, 1772.0, 1774.0, 1781.0, 1784.0, 1780.0, 1781.0, 1783.0, 1787.0, 1788.0, 1782.0, 1773.0, 1771.0, 1772.0, 1778.0, 1782.0, 1786.0, 1788.0, 1792.0, 1792.0, 1788.0, 1786.0, 1783.0, 1784.0, 1783.0, 1782.0, 1783.0, 1786.0, 1788.0, 1786.0, 1782.0, 1778.0, 1779.0, 1782.0, 1788.0, 1788.0, 1784.0, 1777.0, 1776.0, 1779.0, 1782.0, 1781.0, 1780.0, 1781.0, 1781.0, 1782.0, 1780.0, 1780.0, 1782.0, 1786.0, 1786.0, 1787.0, 1786.0, 1784.0, 1787.0, 1789.0, 1785.0, 1779.0, 1777.0, 1777.0, 1778.0, 1775.0, 1774.0, 1779.0, 1782.0, 1785.0, 1782.0, 1779.0, 1777.0, 1780.0, 1784.0, 1781.0, 1780.0, 1774.0, 1774.0, 1775.0, 1776.0, 1777.0, 1781.0]
    },
    "slices": {}
  }
}