{
  "AcquisitionMatrixPE": 100,
  "AcquisitionNumber": 1,
  "AcquisitionTime": "14:01:0.060000",
  "BandwidthPerPixelPhaseEncode": 18.519,
  "BaseResolution": 100,
  "BodyPartExamined": "BRAIN",
  "CoilCombinationMethod": "Sum of Squares",
  "ConsistencyInfo": "N4_VE11C_LATEST_20160120",
  "ConversionSoftware": "dcm2niix",
  "ConversionSoftwareVersion": "v1.0.20211006",
  "DerivedVendorReportedEchoSpacing": 0.000539986,
  "DeviceSerialNumber": "166078",
  "DwellTime": 2.1e-06,
  "EchoTime": 0.034,
  "EchoTrainLength": 100,
  "EffectiveEchoSpacing": 0.000539986,
  "FlipAngle": 90,
  "ImageOrientationPatientDICOM": [1, -5.21588e-05, -0.000273251, 3.9258e-08, 0.982292, -0.187358],
  "ImageOrientationText": "Tra>Cor(-10.8)>Sag(-0.0)",
  "ImageType": [
    "ORIGINAL",
    "PRIMARY",
    "M",
    "ND",
    "MOSAIC"
],
  "ImagingFrequency": 123.258,
  "InPlanePhaseEncodingDirectionDICOM": "COL",
  "InstitutionAddress": "Street StreetNo,Bei Jing,District,CN,ZIP",
  "InstitutionName": "BeiJing Normal University",
  "InstitutionalDepartmentName": "Department",
  "MRAcquisitionType": "2D",
  "MagneticFieldStrength": 3,
  "Manufacturer": "Siemens",
  "ManufacturersModelName": "Prisma",
  "Modality": "MR",
  "MultibandAccelerationFactor": 3,
  "PartialFourier": 1,
  "PatientPosition": "HFS",
  "PercentPhaseFOV": 100,
  "PercentSampling": 100,
  "PhaseEncodingDirection": "j-",
  "PhaseEncodingSteps": 100,
  "PhaseResolution": 1,
  "PixelBandwidth": 2380,
  "ProcedureStepDescription": "BNU_P2018_64CH^Zhen.ZongLei",
  "ProtocolName": "bold_100x100_s3_2x2x2_static_156",
  "PulseSequenceDetails": "%SiemensSeq%\\ep2d_bold",
  "ReceiveCoilActiveElements": "HC1-7;NC1",
  "ReceiveCoilName": "HeadNeck_64",
  "ReconMatrixPE": 100,
  "RefLinesPE": 32,
  "RepetitionTime": 2,
  "SAR": 0.0858331,
  "ScanOptions": "FS",
  "ScanningSequence": "EP",
  "SequenceName": "*epfid2d1_100",
  "SequenceVariant": "SK",
  "SeriesDescription": "bold_100x100_s3_2x2x2_static_156",
  "SeriesNumber": 14,
  "ShimSetting": [-5444, -11516, -1230, 507, 35, -190, -117, 18],
  "SliceThickness": 2,
  "SliceTiming": [1.485, 0, 0.99, 0.0825, 1.0725, 0.165, 1.155, 0.2475, 1.2375, 0.33, 1.32, 0.4125, 1.4025, 0.5775, 1.5675, 0.66, 1.65, 0.7425, 1.7325, 0.825, 1.815, 0.9075, 1.8975, 0.495, 1.485, 0, 0.99, 0.0825, 1.0725, 0.165, 1.155, 0.2475, 1.2375, 0.33, 1.32, 0.4125, 1.4025, 0.5775, 1.5675, 0.66, 1.65, 0.7425, 1.7325, 0.825, 1.815, 0.9075, 1.8975, 0.495, 1.485, 0, 0.99, 0.0825, 1.0725, 0.165, 1.155, 0.2475, 1.2375, 0.33, 1.32, 0.4125, 1.4025, 0.5775, 1.5675, 0.66, 1.65, 0.7425, 1.7325, 0.825, 1.815, 0.9075, 1.8975, 0.495],
  "SoftwareVersions": "syngo MR E11",
  "SpacingBetweenSlices": 2,
  "StationName": "AWP166078",
  "TaskName": "action",
  "TotalReadoutTime": 0.0534586,
  "TxRefAmp": 227.505,
  "dcmmeta_affine": [
    [-1.9999998807907104, 7.851598127217585e-08, -0.0005563698359765112, 101.46329498291016],
    [0.00010431757982587442, 1.9645832777023315, -0.3747164011001587, -80.93180084228516],
    [-0.0005465027643367648, 0.3747164011001587, 1.9645832777023315, -77.75297546386719],
    [0.0, 0.0, 0.0, 1.0]
],
  "dcmmeta_reorient_transform": [
    [0.0, -1.0, 0.0, 99.0],
    [1.0, 0.0, 0.0, 0.0],
    [0.0, 0.0, 1.0, 0.0],
    [0.0, 0.0, 0.0, 1.0]
],
  "dcmmeta_shape": [100, 100, 72, 156],
  "dcmmeta_slice_dim": 2,
  "dcmmeta_version": 0.6,
  "global": {
    "const": {
      "AcquisitionMatrix": [100, 0, 0, 100],
      "AngioFlag": "N",
      "BitsAllocated": 16,
      "BitsStored": 12,
      "BodyPartExamined": "BRAIN",
      "Columns": 900,
      "EchoNumbers": 1,
      "EchoTime": 34.0,
      "EchoTrainLength": 100,
      "FlipAngle": 90.0,
      "HighBit": 11,
      "ImageOrientationPatient": [0.99999996130657, -5.21587901e-05, -0.0002732513719, 3.9257991e-08, 0.98229165890162, -0.187358204657],
      "ImagePositionPatient": [-901.46330645827, -899.35355135159, 109.44911334353],
      "ImageType": [
        "ORIGINAL",
        "PRIMARY",
        "M",
        "ND",
        "MOSAIC"
],
      "ImagedNucleus": "1H",
      "ImagingFrequency": 123.257734,
      "InPlanePhaseEncodingDirection": "COL",
      "MRAcquisitionType": "2D",
      "MagneticFieldStrength": 3.0,
      "Manufacturer": "SIEMENS",
      "ManufacturerModelName": "Prisma",
      "Modality": "MR",
      "NumberOfAverages": 1.0,
      "NumberOfPhaseEncodingSteps": 100,
      "PercentPhaseFieldOfView": 100.0,
      "PercentSampling": 100.0,
      "PerformedProcedureStepStartTime": "125823.622000",
      "PhotometricInterpretation": "MONOCHROME2",
      "PixelBandwidth": 2380.0,
      "PixelRepresentation": 0,
      "PixelSpacing": [2.0, 2.0],
      "ProtocolName": "bold_100x100_s3_2x2x2_static_156",
      "RepetitionTime": 2000.0,
      "Rows": 900,
      "SAR": 0.08583313248598,
      "SamplesPerPixel": 1,
      "ScanOptions": "FS",
      "ScanningSequence": "EP",
      "SequenceName": "*epfid2d1_100",
      "SequenceVariant": "SK",
      "SeriesDescription": "bold_100x100_s3_2x2x2_static_156",
      "SeriesNumber": 14,
      "SeriesTime": "140102.531000",
      "SliceLocation": -61.241086750241,
      "SliceThickness": 2.0,
      "SmallestImagePixelValue": 0,
      "SoftwareVersions": "syngo MR E11",
      "SpacingBetweenSlices": 2.0000000338651,
      "SpecificCharacterSet": "ISO_IR 100",
      "StudyID": "1",
      "StudyTime": "125823.466000",
      "TransmitCoilName": "Body",
      "VariableFlipAngleFlag": "N",
      "WindowCenterWidthExplanation": "Algo1",
      "dBdt": 0.0},
    "slices": {}
  },
  "time": {
    "samples": {
      "AcquisitionNumber": [1, 2, 3, 4, 5, 6, 7, 8, 9, 10, 11, 12, 13, 14, 15, 16, 17, 18, 19, 20, 21, 22, 23, 24, 25, 26, 27, 28, 29, 30, 31, 32, 33, 34, 35, 36, 37, 38, 39, 40, 41, 42, 43, 44, 45, 46, 47, 48, 49, 50, 51, 52, 53, 54, 55, 56, 57, 58, 59, 60, 61, 62, 63, 64, 65, 66, 67, 68, 69, 70, 71, 72, 73, 74, 75, 76, 77, 78, 79, 80, 81, 82, 83, 84, 85, 86, 87, 88, 89, 90, 91, 92, 93, 94, 95, 96, 97, 98, 99, 100, 101, 102, 103, 104, 105, 106, 107, 108, 109, 110, 111, 112, 113, 114, 115, 116, 117, 118, 119, 120, 121, 122, 123, 124, 125, 126, 127, 128, 129, 130, 131, 132, 133, 134, 135, 136, 137, 138, 139, 140, 141, 142, 143, 144, 145, 146, 147, 148, 149, 150, 151, 152, 153, 154, 155, 156],
      "AcquisitionTime": ["140100.060000", "140102.060000", "140104.060000", "140106.060000", "140108.060000", "140110.060000", "140112.060000", "140114.060000", "140116.060000", "140118.060000", "140120.060000", "140122.060000", "140124.060000", "140126.060000", "140128.060000", "140130.060000", "140132.060000", "140134.060000", "140136.060000", "140138.060000", "140140.060000", "140142.060000", "140144.060000", "140146.060000", "140148.060000", "140150.060000", "140152.060000", "140154.060000", "140156.060000", "140158.060000", "140200.060000", "140202.060000", "140204.060000", "140206.060000", "140208.060000", "140210.060000", "140212.060000", "140214.060000", "140216.060000", "140218.060000", "140220.060000", "140222.060000", "140224.060000", "140226.060000", "140228.060000", "140230.060000", "140232.060000", "140234.060000", "140236.060000", "140238.060000", "140240.060000", "140242.060000", "140244.060000", "140246.060000", "140248.060000", "140250.060000", "140252.060000", "140254.060000", "140256.060000", "140258.060000", "140300.060000", "140302.060000", "140304.060000", "140306.060000", "140308.060000", "140310.060000", "140312.060000", "140314.060000", "140316.060000", "140318.060000", "140320.060000", "140322.060000", "140324.060000", "140326.060000", "140328.060000", "140330.060000", "140332.060000", "140334.060000", "140336.060000", "140338.060000", "140340.060000", "140342.060000", "140344.060000", "140346.060000", "140348.060000", "140350.060000", "140352.060000", "140354.060000", "140356.060000", "140358.060000", "140400.060000", "140402.060000", "140404.060000", "140406.060000", "140408.060000", "140410.060000", "140412.060000", "140414.060000", "140416.060000", "140418.060000", "140420.060000", "140422.060000", "140424.060000", "140426.060000", "140428.060000", "140430.060000", "140432.060000", "140434.060000", "140436.060000", "140438.060000", "140440.060000", "140442.060000", "140444.060000", "140446.060000", "140448.060000", "140450.060000", "140452.060000", "140454.060000", "140456.060000", "140458.060000", "140500.060000", "140502.060000", "140504.060000", "140506.060000", "140508.060000", "140510.060000", "140512.060000", "140514.060000", "140516.060000", "140518.060000", "140520.060000", "140522.060000", "140524.060000", "140526.060000", "140528.060000", "140530.060000", "140532.060000", "140534.060000", "140536.060000", "140538.060000", "140540.060000", "140542.060000", "140544.060000", "140546.060000", "140548.060000", "140550.060000", "140552.060000", "140554.060000", "140556.060000", "140558.060000", "140600.060000", "140602.060000", "140604.060000", "140606.060000", "140608.060000", "140610.060000"],
      "ContentTime": ["140102.545000", "140104.031000", "140106.030000", "140108.031000", "140110.030000", "140111.531000", "140114.031000", "140116.031000", "140118.030000", "140120.031000", "140122.031000", "140124.030000", "140126.031000", "140128.031000", "140130.031000", "140131.532000", "140134.031000", "140135.530000", "140138.031000", "140140.030000", "140142.030000", "140144.031000", "140146.030000", "140148.032000", "140150.032000", "140152.030000", "140154.031000", "140156.031000", "140158.031000", "140200.030000", "140202.031000", "140204.030000", "140206.031000", "140208.031000", "140210.030000", "140212.031000", "140214.031000", "140216.030000", "140217.530000", "140220.030000", "140222.031000", "140224.032000", "140225.531000", "140228.030000", "140230.030000", "140231.530000", "140234.031000", "140236.031000", "140238.031000", "140240.032000", "140241.532000", "140244.031000", "140246.031000", "140248.030000", "140250.030000", "140252.031000", "140254.031000", "140256.031000", "140258.031000", "140259.531000", "140301.531000", "140303.531000", "140305.530000", "140308.031000", "140310.031000", "140312.030000", "140314.031000", "140315.531000", "140318.031000", "140320.031000", "140322.030000", "140324.031000", "140325.531000", "140327.530000", "140330.030000", "140332.031000", "140334.031000", "140336.030000", "140338.030000", "140339.530000", "140342.031000", "140344.031000", "140346.030000", "140348.030000", "140350.032000", "140352.032000", "140354.030000", "140356.030000", "140358.030000", "140400.031000", "140402.030000", "140404.031000", "140405.531000", "140408.031000", "140410.032000", "140411.531000", "140414.030000", "140416.031000", "140418.031000", "140419.530000", "140422.031000", "140424.030000", "140426.031000", "140428.032000", "140430.030000", "140432.031000", "140434.030000", "140436.031000", "140438.031000", "140440.031000", "140442.032000", "140444.031000", "140446.031000", "140448.030000", "140450.030000", "140452.030000", "140454.030000", "140455.531000", "140458.031000", "140500.031000", "140502.032000", "140504.030000", "140506.031000", "140508.031000", "140510.031000", "140512.030000", "140514.031000", "140516.030000", "140518.031000", "140520.031000", "140522.031000", "140524.031000", "140526.031000", "140528.031000", "140530.030000", "140532.030000", "140534.031000", "140536.032000", "140538.031000", "140540.030000", "140542.031000", "140544.031000", "140546.031000", "140548.031000", "140550.030000", "140552.032000", "140554.032000", "140556.031000", "140558.031000", "140600.031000", "140601.531000", "140604.031000", "140606.031000", "140608.031000", "140609.540000", "140611.619000"],
      "InstanceCreationTime": ["140102.545000", "140104.031000", "140106.030000", "140108.031000", "140110.030000", "140111.531000", "140114.031000", "140116.031000", "140118.030000", "140120.031000", "140122.031000", "140124.030000", "140126.031000", "140128.031000", "140130.031000", "140131.532000", "140134.031000", "140135.530000", "140138.031000", "140140.030000", "140142.030000", "140144.031000", "140146.030000", "140148.032000", "140150.032000", "140152.030000", "140154.031000", "140156.031000", "140158.031000", "140200.030000", "140202.031000", "140204.030000", "140206.031000", "140208.031000", "140210.030000", "140212.031000", "140214.031000", "140216.030000", "140217.530000", "140220.030000", "140222.031000", "140224.032000", "140225.531000", "140228.030000", "140230.030000", "140231.530000", "140234.031000", "140236.031000", "140238.031000", "140240.032000", "140241.532000", "140244.031000", "140246.031000", "140248.030000", "140250.030000", "140252.031000", "140254.031000", "140256.031000", "140258.031000", "140259.531000", "140301.531000", "140303.531000", "140305.530000", "140308.031000", "140310.031000", "140312.030000", "140314.031000", "140315.531000", "140318.031000", "140320.031000", "140322.030000", "140324.031000", "140325.531000", "140327.530000", "140330.030000", "140332.031000", "140334.031000", "140336.030000", "140338.030000", "140339.530000", "140342.031000", "140344.031000", "140346.030000", "140348.030000", "140350.032000", "140352.032000", "140354.030000", "140356.030000", "140358.030000", "140400.031000", "140402.030000", "140404.031000", "140405.531000", "140408.031000", "140410.032000", "140411.531000", "140414.030000", "140416.031000", "140418.031000", "140419.530000", "140422.031000", "140424.030000", "140426.031000", "140428.032000", "140430.030000", "140432.031000", "140434.030000", "140436.031000", "140438.031000", "140440.031000", "140442.032000", "140444.031000", "140446.031000", "140448.030000", "140450.030000", "140452.030000", "140454.030000", "140455.531000", "140458.031000", "140500.031000", "140502.032000", "140504.030000", "140506.031000", "140508.031000", "140510.031000", "140512.030000", "140514.031000", "140516.030000", "140518.031000", "140520.031000", "140522.031000", "140524.031000", "140526.031000", "140528.031000", "140530.030000", "140532.030000", "140534.031000", "140536.032000", "140538.031000", "140540.030000", "140542.031000", "140544.031000", "140546.031000", "140548.031000", "140550.030000", "140552.032000", "140554.032000", "140556.031000", "140558.031000", "140600.031000", "140601.531000", "140604.031000", "140606.031000", "140608.031000", "140609.540000", "140611.619000"],
      "InstanceNumber": [1, 2, 3, 4, 5, 6, 7, 8, 9, 10, 11, 12, 13, 14, 15, 16, 17, 18, 19, 20, 21, 22, 23, 24, 25, 26, 27, 28, 29, 30, 31, 32, 33, 34, 35, 36, 37, 38, 39, 40, 41, 42, 43, 44, 45, 46, 47, 48, 49, 50, 51, 52, 53, 54, 55, 56, 57, 58, 59, 60, 61, 62, 63, 64, 65, 66, 67, 68, 69, 70, 71, 72, 73, 74, 75, 76, 77, 78, 79, 80, 81, 82, 83, 84, 85, 86, 87, 88, 89, 90, 91, 92, 93, 94, 95, 96, 97, 98, 99, 100, 101, 102, 103, 104, 105, 106, 107, 108, 109, 110, 111, 112, 113, 114, 115, 116, 117, 118, 119, 120, 121, 122, 123, 124, 125, 126, 127, 128, 129, 130, 131, 132, 133, 134, 135, 136, 137, 138, 139, 140, 141, 142, 143, 144, 145, 146, 147, 148, 149, 150, 151, 152, 153, 154, 155, 156],
      "LargestImagePixelValue": [3010, 3010, 3005, 3003, 3007, 3003, 2983, 3004, 3022, 2997, 3008, 2992, 3019, 3025, 3031, 3070, 3048, 3033, 3034, 3014, 3038, 3012, 2972, 2972, 2947, 2961, 2959, 3015, 3000, 3034, 3082, 3096, 3027, 3053, 3057, 3065, 3038, 3031, 3040, 3015, 2966, 2992, 2981, 2965, 2975, 2975, 3001, 2973, 3003, 3010, 3004, 2978, 2985, 2969, 2980, 2977, 2968, 2967, 2958, 2946, 2936, 2931, 2962, 2941, 2953, 3014, 2969, 2920, 2991, 2962, 2956, 2959, 2974, 2967, 2946, 2945, 2967, 2978, 2976, 2948, 2969, 2981, 2986, 3007, 2991, 3026, 3014, 3015, 2972, 2948, 2955, 2928, 2997, 2976, 2979, 2979, 2982, 3006, 2983, 3004, 2992, 2984, 2956, 2992, 2996, 2966, 2958, 2958, 2975, 3003, 2995, 2968, 2959, 2958, 2961, 2955, 2954, 2960, 2975, 2949, 2970, 2962, 2970, 2941, 2966, 2967, 2990, 2944, 2941, 2955, 2957, 2965, 2979, 2997, 2976, 2975, 3017, 3016, 3000, 2915, 2947, 2995, 2953, 2950, 2969, 2932, 2958, 2957, 2953, 2996, 2996, 2974, 2943, 2937, 2961, 2974],
      "WindowCenter": [782.0, 781.0, 780.0, 780.0, 780.0, 781.0, 781.0, 782.0, 783.0, 783.0, 784.0, 784.0, 783.0, 783.0, 784.0, 784.0, 783.0, 781.0, 780.0, 779.0, 780.0, 778.0, 778.0, 779.0, 779.0, 780.0, 779.0, 779.0, 780.0, 780.0, 781.0, 780.0, 780.0, 781.0, 781.0, 781.0, 780.0, 780.0, 780.0, 779.0, 779.0, 779.0, 779.0, 779.0, 780.0, 779.0, 779.0, 778.0, 778.0, 779.0, 780.0, 780.0, 779.0, 778.0, 778.0, 779.0, 780.0, 779.0, 779.0, 778.0, 777.0, 777.0, 778.0, 778.0, 780.0, 781.0, 778.0, 777.0, 778.0, 778.0, 778.0, 778.0, 778.0, 778.0, 779.0, 780.0, 782.0, 781.0, 779.0, 779.0, 780.0, 781.0, 781.0, 780.0, 780.0, 781.0, 781.0, 781.0, 780.0, 778.0, 778.0, 780.0, 782.0, 782.0, 781.0, 780.0, 780.0, 780.0, 780.0, 780.0, 780.0, 780.0, 778.0, 778.0, 779.0, 779.0, 779.0, 780.0, 782.0, 782.0, 780.0, 779.0, 779.0, 780.0, 780.0, 779.0, 779.0, 778.0, 778.0, 778.0, 779.0, 778.0, 779.0, 778.0, 778.0, 778.0, 779.0, 778.0, 779.0, 779.0, 780.0, 780.0, 780.0, 779.0, 779.0, 779.0, 781.0, 780.0, 778.0, 777.0, 778.0, 779.0, 778.0, 778.0, 778.0, 778.0, 778.0, 778.0, 779.0, 779.0, 778.0, 778.0, 779.0, 781.0, 781.0, 780.0],
      "WindowWidth": [1678.0, 1674.0, 1672.0, 1671.0, 1671.0, 1673.0, 1675.0, 1677.0, 1680.0, 1680.0, 1682.0, 1682.0, 1680.0, 1680.0, 1683.0, 1684.0, 1679.0, 1675.0, 1672.0, 1670.0, 1671.0, 1668.0, 1667.0, 1668.0, 1670.0, 1671.0, 1670.0, 1670.0, 1672.0, 1673.0, 1674.0, 1673.0, 1672.0, 1674.0, 1675.0, 1674.0, 1674.0, 1674.0, 1673.0, 1671.0, 1670.0, 1670.0, 1670.0, 1671.0, 1672.0, 1670.0, 1669.0, 1667.0, 1668.0, 1669.0, 1672.0, 1672.0, 1670.0, 1668.0, 1666.0, 1669.0, 1671.0, 1670.0, 1669.0, 1666.0, 1665.0, 1665.0, 1667.0, 1668.0, 1673.0, 1674.0, 1666.0, 1664.0, 1668.0, 1667.0, 1668.0, 1668.0, 1668.0, 1667.0, 1669.0, 1672.0, 1677.0, 1675.0, 1670.0, 1669.0, 1672.0, 1675.0, 1675.0, 1673.0, 1672.0, 1674.0, 1674.0, 1675.0, 1671.0, 1667.0, 1667.0, 1671.0, 1677.0, 1676.0, 1674.0, 1672.0, 1673.0, 1672.0, 1672.0, 1672.0, 1672.0, 1670.0, 1667.0, 1666.0, 1669.0, 1669.0, 1670.0, 1672.0, 1677.0, 1676.0, 1672.0, 1669.0, 1670.0, 1671.0, 1670.0, 1669.0, 1668.0, 1666.0, 1668.0, 1668.0, 1669.0, 1668.0, 1669.0, 1668.0, 1667.0, 1668.0, 1668.0, 1667.0, 1669.0, 1670.0, 1671.0, 1672.0, 1671.0, 1670.0, 1670.0, 1670.0, 1675.0, 1673.0, 1667.0, 1663.0, 1666.0, 1668.0, 1667.0, 1666.0, 1666.0, 1666.0, 1667.0, 1667.0, 1668.0, 1669.0, 1667.0, 1667.0, 1669.0, 1673.0, 1673.0, 1672.0]
    },
    "slices": {}
  }
}