{
  "AcquisitionMatrixPE": 100,
  "AcquisitionNumber": 1,
  "AcquisitionTime": "13:54:34.532500",
  "BandwidthPerPixelPhaseEncode": 18.519,
  "BaseResolution": 100,
  "BodyPartExamined": "BRAIN",
  "CoilCombinationMethod": "Sum of Squares",
  "ConsistencyInfo": "N4_VE11C_LATEST_20160120",
  "ConversionSoftware": "dcm2niix",
  "ConversionSoftwareVersion": "v1.0.20211006",
  "DerivedVendorReportedEchoSpacing": 0.000539986,
  "DeviceSerialNumber": "166078",
  "DwellTime": 2.1e-06,
  "EchoTime": 0.034,
  "EchoTrainLength": 100,
  "EffectiveEchoSpacing": 0.000539986,
  "FlipAngle": 90,
  "ImageOrientationPatientDICOM": [1, -5.21588e-05, -0.000273251, 3.9258e-08, 0.982292, -0.187358],
  "ImageOrientationText": "Tra>Cor(-10.8)>Sag(-0.0)",
  "ImageType": [
    "ORIGINAL",
    "PRIMARY",
    "M",
    "ND",
    "MOSAIC"
],
  "ImagingFrequency": 123.258,
  "InPlanePhaseEncodingDirectionDICOM": "COL",
  "InstitutionAddress": "Street StreetNo,Bei Jing,District,CN,ZIP",
  "InstitutionName": "BeiJing Normal University",
  "InstitutionalDepartmentName": "Department",
  "MRAcquisitionType": "2D",
  "MagneticFieldStrength": 3,
  "Manufacturer": "Siemens",
  "ManufacturersModelName": "Prisma",
  "Modality": "MR",
  "MultibandAccelerationFactor": 3,
  "PartialFourier": 1,
  "PatientPosition": "HFS",
  "PercentPhaseFOV": 100,
  "PercentSampling": 100,
  "PhaseEncodingDirection": "j-",
  "PhaseEncodingSteps": 100,
  "PhaseResolution": 1,
  "PixelBandwidth": 2380,
  "ProcedureStepDescription": "BNU_P2018_64CH^Zhen.ZongLei",
  "ProtocolName": "bold_100x100_s3_2x2x2_static_156",
  "PulseSequenceDetails": "%SiemensSeq%\\ep2d_bold",
  "ReceiveCoilActiveElements": "HC1-7;NC1",
  "ReceiveCoilName": "HeadNeck_64",
  "ReconMatrixPE": 100,
  "RefLinesPE": 32,
  "RepetitionTime": 2,
  "SAR": 0.0858331,
  "ScanOptions": "FS",
  "ScanningSequence": "EP",
  "SequenceName": "*epfid2d1_100",
  "SequenceVariant": "SK",
  "SeriesDescription": "bold_100x100_s3_2x2x2_static_156",
  "SeriesNumber": 13,
  "ShimSetting": [-5444, -11516, -1230, 507, 35, -190, -117, 18],
  "SliceThickness": 2,
  "SliceTiming": [1.485, 0, 0.99, 0.0825, 1.0725, 0.165, 1.155, 0.2475, 1.2375, 0.33, 1.32, 0.4125, 1.4025, 0.5775, 1.5675, 0.66, 1.65, 0.7425, 1.7325, 0.825, 1.815, 0.9075, 1.8975, 0.495, 1.485, 0, 0.99, 0.0825, 1.0725, 0.165, 1.155, 0.2475, 1.2375, 0.33, 1.32, 0.4125, 1.4025, 0.5775, 1.5675, 0.66, 1.65, 0.7425, 1.7325, 0.825, 1.815, 0.9075, 1.8975, 0.495, 1.485, 0, 0.99, 0.0825, 1.0725, 0.165, 1.155, 0.2475, 1.2375, 0.33, 1.32, 0.4125, 1.4025, 0.5775, 1.5675, 0.66, 1.65, 0.7425, 1.7325, 0.825, 1.815, 0.9075, 1.8975, 0.495],
  "SoftwareVersions": "syngo MR E11",
  "SpacingBetweenSlices": 2,
  "StationName": "AWP166078",
  "TaskName": "action",
  "TotalReadoutTime": 0.0534586,
  "TxRefAmp": 227.505,
  "dcmmeta_affine": [
    [-1.9999998807907104, 7.851598127217585e-08, -0.0005563698359765112, 101.46329498291016],
    [0.00010431757982587442, 1.9645832777023315, -0.3747164011001587, -80.93180084228516],
    [-0.0005465027643367648, 0.3747164011001587, 1.9645832777023315, -77.75297546386719],
    [0.0, 0.0, 0.0, 1.0]
],
  "dcmmeta_reorient_transform": [
    [0.0, -1.0, 0.0, 99.0],
    [1.0, 0.0, 0.0, 0.0],
    [0.0, 0.0, 1.0, 0.0],
    [0.0, 0.0, 0.0, 1.0]
],
  "dcmmeta_shape": [100, 100, 72, 156],
  "dcmmeta_slice_dim": 2,
  "dcmmeta_version": 0.6,
  "global": {
    "const": {
      "AcquisitionMatrix": [100, 0, 0, 100],
      "AngioFlag": "N",
      "BitsAllocated": 16,
      "BitsStored": 12,
      "BodyPartExamined": "BRAIN",
      "Columns": 900,
      "EchoNumbers": 1,
      "EchoTime": 34.0,
      "EchoTrainLength": 100,
      "FlipAngle": 90.0,
      "HighBit": 11,
      "ImageOrientationPatient": [0.99999996130657, -5.21587901e-05, -0.0002732513719, 3.9257991e-08, 0.98229165890162, -0.187358204657],
      "ImagePositionPatient": [-901.46330645827, -899.35355135159, 109.44911334353],
      "ImageType": [
        "ORIGINAL",
        "PRIMARY",
        "M",
        "ND",
        "MOSAIC"
],
      "ImagedNucleus": "1H",
      "ImagingFrequency": 123.257731,
      "InPlanePhaseEncodingDirection": "COL",
      "MRAcquisitionType": "2D",
      "MagneticFieldStrength": 3.0,
      "Manufacturer": "SIEMENS",
      "ManufacturerModelName": "Prisma",
      "Modality": "MR",
      "NumberOfAverages": 1.0,
      "NumberOfPhaseEncodingSteps": 100,
      "PercentPhaseFieldOfView": 100.0,
      "PercentSampling": 100.0,
      "PerformedProcedureStepStartTime": "125823.622000",
      "PhotometricInterpretation": "MONOCHROME2",
      "PixelBandwidth": 2380.0,
      "PixelRepresentation": 0,
      "PixelSpacing": [2.0, 2.0],
      "ProtocolName": "bold_100x100_s3_2x2x2_static_156",
      "RepetitionTime": 2000.0,
      "Rows": 900,
      "SAR": 0.08583313248598,
      "SamplesPerPixel": 1,
      "ScanOptions": "FS",
      "ScanningSequence": "EP",
      "SequenceName": "*epfid2d1_100",
      "SequenceVariant": "SK",
      "SeriesDescription": "bold_100x100_s3_2x2x2_static_156",
      "SeriesNumber": 13,
      "SeriesTime": "135437.167000",
      "SliceLocation": -61.241086750241,
      "SliceThickness": 2.0,
      "SmallestImagePixelValue": 0,
      "SoftwareVersions": "syngo MR E11",
      "SpacingBetweenSlices": 2.0000000338651,
      "SpecificCharacterSet": "ISO_IR 100",
      "StudyID": "1",
      "StudyTime": "125823.466000",
      "TransmitCoilName": "Body",
      "VariableFlipAngleFlag": "N",
      "WindowCenterWidthExplanation": "Algo1",
      "dBdt": 0.0},
    "slices": {}
  },
  "time": {
    "samples": {
      "AcquisitionNumber": [1, 2, 3, 4, 5, 6, 7, 8, 9, 10, 11, 12, 13, 14, 15, 16, 17, 18, 19, 20, 21, 22, 23, 24, 25, 26, 27, 28, 29, 30, 31, 32, 33, 34, 35, 36, 37, 38, 39, 40, 41, 42, 43, 44, 45, 46, 47, 48, 49, 50, 51, 52, 53, 54, 55, 56, 57, 58, 59, 60, 61, 62, 63, 64, 65, 66, 67, 68, 69, 70, 71, 72, 73, 74, 75, 76, 77, 78, 79, 80, 81, 82, 83, 84, 85, 86, 87, 88, 89, 90, 91, 92, 93, 94, 95, 96, 97, 98, 99, 100, 101, 102, 103, 104, 105, 106, 107, 108, 109, 110, 111, 112, 113, 114, 115, 116, 117, 118, 119, 120, 121, 122, 123, 124, 125, 126, 127, 128, 129, 130, 131, 132, 133, 134, 135, 136, 137, 138, 139, 140, 141, 142, 143, 144, 145, 146, 147, 148, 149, 150, 151, 152, 153, 154, 155, 156],
      "AcquisitionTime": ["135434.532500", "135436.532500", "135438.532500", "135440.532500", "135442.532500", "135444.532500", "135446.532500", "135448.532500", "135450.532500", "135452.532500", "135454.532500", "135456.532500", "135458.532500", "135500.532500", "135502.532500", "135504.532500", "135506.532500", "135508.532500", "135510.532500", "135512.532500", "135514.532500", "135516.532500", "135518.532500", "135520.532500", "135522.532500", "135524.532500", "135526.532500", "135528.532500", "135530.532500", "135532.532500", "135534.532500", "135536.532500", "135538.532500", "135540.532500", "135542.532500", "135544.532500", "135546.532500", "135548.532500", "135550.532500", "135552.532500", "135554.532500", "135556.532500", "135558.532500", "135600.532500", "135602.532500", "135604.532500", "135606.532500", "135608.532500", "135610.532500", "135612.532500", "135614.532500", "135616.532500", "135618.532500", "135620.532500", "135622.532500", "135624.532500", "135626.532500", "135628.532500", "135630.532500", "135632.532500", "135634.532500", "135636.532500", "135638.532500", "135640.532500", "135642.532500", "135644.532500", "135646.532500", "135648.532500", "135650.532500", "135652.532500", "135654.532500", "135656.532500", "135658.532500", "135700.532500", "135702.532500", "135704.532500", "135706.532500", "135708.532500", "135710.532500", "135712.532500", "135714.532500", "135716.532500", "135718.532500", "135720.532500", "135722.532500", "135724.532500", "135726.532500", "135728.532500", "135730.532500", "135732.532500", "135734.532500", "135736.532500", "135738.532500", "135740.532500", "135742.532500", "135744.532500", "135746.532500", "135748.532500", "135750.532500", "135752.532500", "135754.532500", "135756.532500", "135758.532500", "135800.532500", "135802.532500", "135804.532500", "135806.532500", "135808.532500", "135810.532500", "135812.532500", "135814.532500", "135816.532500", "135818.532500", "135820.532500", "135822.532500", "135824.532500", "135826.532500", "135828.532500", "135830.532500", "135832.532500", "135834.532500", "135836.532500", "135838.532500", "135840.532500", "135842.532500", "135844.532500", "135846.532500", "135848.532500", "135850.532500", "135852.532500", "135854.532500", "135856.532500", "135858.532500", "135900.532500", "135902.532500", "135904.532500", "135906.532500", "135908.532500", "135910.532500", "135912.532500", "135914.532500", "135916.532500", "135918.532500", "135920.532500", "135922.532500", "135924.532500", "135926.532500", "135928.532500", "135930.532500", "135932.532500", "135934.532500", "135936.532500", "135938.532500", "135940.532500", "135942.532500", "135944.532500"],
      "ContentTime": ["135437.171000", "135438.666000", "135440.667000", "135442.665000", "135444.665000", "135446.666000", "135448.666000", "135450.666000", "135452.666000", "135454.666000", "135456.166000", "135458.667000", "135500.666000", "135502.165000", "135504.665000", "135506.667000", "135508.666000", "135510.666000", "135512.666000", "135514.166000", "135516.167000", "135518.665000", "135520.665000", "135522.667000", "135524.166000", "135526.666000", "135528.666000", "135530.666000", "135532.666000", "135534.666000", "135536.665000", "135538.665000", "135540.666000", "135542.666000", "135544.166000", "135546.666000", "135548.166000", "135550.166000", "135552.666000", "135554.665000", "135556.665000", "135558.667000", "135600.667000", "135602.667000", "135604.166000", "135606.667000", "135608.666000", "135610.666000", "135612.666000", "135614.165000", "135616.167000", "135618.667000", "135620.667000", "135622.667000", "135624.667000", "135626.166000", "135628.665000", "135630.665000", "135632.666000", "135634.667000", "135636.667000", "135638.666000", "135640.166000", "135642.667000", "135644.665000", "135646.165000", "135648.666000", "135650.667000", "135652.167000", "135654.166000", "135656.667000", "135658.667000", "135700.666000", "135702.165000", "135704.666000", "135706.666000", "135708.166000", "135710.166000", "135712.666000", "135714.667000", "135716.666000", "135718.666000", "135720.665000", "135722.666000", "135724.165000", "135726.667000", "135728.166000", "135730.667000", "135732.167000", "135734.667000", "135736.666000", "135738.165000", "135740.165000", "135742.667000", "135744.667000", "135746.666000", "135748.666000", "135750.667000", "135752.666000", "135754.665000", "135756.665000", "135758.166000", "135800.166000", "135802.667000", "135804.666000", "135806.667000", "135808.667000", "135810.667000", "135812.665000", "135814.666000", "135816.665000", "135818.666000", "135820.667000", "135822.667000", "135824.666000", "135826.667000", "135828.666000", "135830.665000", "135832.665000", "135834.665000", "135836.666000", "135838.666000", "135840.666000", "135842.666000", "135844.666000", "135846.666000", "135848.666000", "135850.666000", "135852.667000", "135854.667000", "135856.166000", "135858.667000", "135900.667000", "135902.666000", "135904.666000", "135906.666000", "135908.665000", "135910.666000", "135912.667000", "135914.666000", "135916.166000", "135918.666000", "135920.666000", "135922.166000", "135924.665000", "135926.666000", "135928.667000", "135930.667000", "135932.167000", "135934.166000", "135936.667000", "135938.666000", "135940.165000", "135942.666000", "135944.666000", "135946.155000"],
      "InstanceCreationTime": ["135437.171000", "135438.666000", "135440.667000", "135442.665000", "135444.665000", "135446.666000", "135448.666000", "135450.666000", "135452.666000", "135454.666000", "135456.166000", "135458.667000", "135500.666000", "135502.165000", "135504.665000", "135506.667000", "135508.666000", "135510.666000", "135512.666000", "135514.166000", "135516.167000", "135518.665000", "135520.665000", "135522.667000", "135524.166000", "135526.666000", "135528.666000", "135530.666000", "135532.666000", "135534.666000", "135536.665000", "135538.665000", "135540.666000", "135542.666000", "135544.166000", "135546.666000", "135548.166000", "135550.166000", "135552.666000", "135554.665000", "135556.665000", "135558.667000", "135600.667000", "135602.667000", "135604.166000", "135606.667000", "135608.666000", "135610.666000", "135612.666000", "135614.165000", "135616.167000", "135618.667000", "135620.667000", "135622.667000", "135624.667000", "135626.166000", "135628.665000", "135630.665000", "135632.666000", "135634.667000", "135636.667000", "135638.666000", "135640.166000", "135642.667000", "135644.665000", "135646.165000", "135648.666000", "135650.667000", "135652.167000", "135654.166000", "135656.667000", "135658.667000", "135700.666000", "135702.165000", "135704.666000", "135706.666000", "135708.166000", "135710.166000", "135712.666000", "135714.667000", "135716.666000", "135718.666000", "135720.665000", "135722.666000", "135724.165000", "135726.667000", "135728.166000", "135730.667000", "135732.167000", "135734.667000", "135736.666000", "135738.165000", "135740.165000", "135742.667000", "135744.667000", "135746.666000", "135748.666000", "135750.667000", "135752.666000", "135754.665000", "135756.665000", "135758.166000", "135800.166000", "135802.667000", "135804.666000", "135806.667000", "135808.667000", "135810.667000", "135812.665000", "135814.666000", "135816.665000", "135818.666000", "135820.667000", "135822.667000", "135824.666000", "135826.667000", "135828.666000", "135830.665000", "135832.665000", "135834.665000", "135836.666000", "135838.666000", "135840.666000", "135842.666000", "135844.666000", "135846.666000", "135848.666000", "135850.666000", "135852.667000", "135854.667000", "135856.166000", "135858.667000", "135900.667000", "135902.666000", "135904.666000", "135906.666000", "135908.665000", "135910.666000", "135912.667000", "135914.666000", "135916.166000", "135918.666000", "135920.666000", "135922.166000", "135924.665000", "135926.666000", "135928.667000", "135930.667000", "135932.167000", "135934.166000", "135936.667000", "135938.666000", "135940.165000", "135942.666000", "135944.666000", "135946.155000"],
      "InstanceNumber": [1, 2, 3, 4, 5, 6, 7, 8, 9, 10, 11, 12, 13, 14, 15, 16, 17, 18, 19, 20, 21, 22, 23, 24, 25, 26, 27, 28, 29, 30, 31, 32, 33, 34, 35, 36, 37, 38, 39, 40, 41, 42, 43, 44, 45, 46, 47, 48, 49, 50, 51, 52, 53, 54, 55, 56, 57, 58, 59, 60, 61, 62, 63, 64, 65, 66, 67, 68, 69, 70, 71, 72, 73, 74, 75, 76, 77, 78, 79, 80, 81, 82, 83, 84, 85, 86, 87, 88, 89, 90, 91, 92, 93, 94, 95, 96, 97, 98, 99, 100, 101, 102, 103, 104, 105, 106, 107, 108, 109, 110, 111, 112, 113, 114, 115, 116, 117, 118, 119, 120, 121, 122, 123, 124, 125, 126, 127, 128, 129, 130, 131, 132, 133, 134, 135, 136, 137, 138, 139, 140, 141, 142, 143, 144, 145, 146, 147, 148, 149, 150, 151, 152, 153, 154, 155, 156],
      "LargestImagePixelValue": [3274, 3267, 3216, 3240, 3218, 3221, 3213, 3196, 3200, 3216, 3178, 3169, 3171, 3152, 3161, 3149, 3175, 3159, 3144, 3085, 3082, 3121, 3082, 3108, 3109, 3119, 3123, 3142, 3162, 3176, 3168, 3163, 3182, 3159, 3165, 3156, 3161, 3135, 3183, 3170, 3208, 3186, 3165, 3176, 3176, 3141, 3165, 3155, 3151, 3158, 3178, 3209, 3216, 3187, 3207, 3176, 3169, 3146, 3156, 3150, 3108, 3109, 3081, 3130, 3132, 3086, 3115, 3128, 3150, 3122, 3105, 3103, 3121, 3109, 3108, 3099, 3112, 3098, 3134, 3116, 3091, 3089, 3106, 3077, 3073, 3092, 3115, 3086, 3113, 3085, 3112, 3086, 3098, 3095, 3132, 3130, 3135, 3128, 3125, 3090, 3143, 3142, 3053, 3070, 3018, 3064, 3057, 3038, 3048, 3062, 3052, 3067, 3055, 3020, 3033, 2996, 3008, 3036, 3050, 3022, 3021, 3006, 3046, 2961, 2983, 3025, 2991, 3030, 3029, 3027, 3015, 3056, 3025, 3016, 2973, 3028, 3029, 3033, 3028, 3006, 3032, 3042, 3059, 3032, 3009, 3037, 3068, 3050, 3070, 3054, 3059, 3076, 3090, 3107, 3019, 3035],
      "WindowCenter": [788.0, 786.0, 785.0, 784.0, 784.0, 783.0, 782.0, 782.0, 782.0, 783.0, 784.0, 783.0, 783.0, 783.0, 783.0, 782.0, 783.0, 783.0, 782.0, 781.0, 782.0, 782.0, 782.0, 781.0, 781.0, 781.0, 782.0, 784.0, 784.0, 784.0, 783.0, 783.0, 784.0, 783.0, 782.0, 782.0, 782.0, 782.0, 783.0, 784.0, 783.0, 782.0, 781.0, 782.0, 782.0, 782.0, 782.0, 782.0, 782.0, 783.0, 784.0, 784.0, 784.0, 784.0, 783.0, 781.0, 782.0, 781.0, 781.0, 781.0, 781.0, 781.0, 780.0, 781.0, 781.0, 781.0, 781.0, 781.0, 782.0, 782.0, 783.0, 784.0, 784.0, 783.0, 783.0, 783.0, 783.0, 782.0, 782.0, 782.0, 783.0, 783.0, 782.0, 781.0, 781.0, 781.0, 781.0, 781.0, 782.0, 781.0, 781.0, 781.0, 781.0, 781.0, 781.0, 782.0, 782.0, 781.0, 782.0, 783.0, 783.0, 783.0, 781.0, 781.0, 781.0, 781.0, 782.0, 783.0, 783.0, 783.0, 783.0, 783.0, 784.0, 784.0, 782.0, 780.0, 781.0, 781.0, 781.0, 781.0, 781.0, 780.0, 780.0, 779.0, 781.0, 781.0, 781.0, 781.0, 781.0, 781.0, 780.0, 781.0, 782.0, 782.0, 781.0, 781.0, 781.0, 781.0, 780.0, 780.0, 781.0, 782.0, 782.0, 783.0, 783.0, 782.0, 783.0, 783.0, 783.0, 781.0, 782.0, 782.0, 782.0, 782.0, 782.0, 784.0],
      "WindowWidth": [1694.0, 1688.0, 1684.0, 1682.0, 1681.0, 1680.0, 1677.0, 1676.0, 1678.0, 1681.0, 1681.0, 1680.0, 1681.0, 1681.0, 1680.0, 1678.0, 1679.0, 1679.0, 1678.0, 1674.0, 1677.0, 1678.0, 1677.0, 1676.0, 1675.0, 1676.0, 1678.0, 1682.0, 1684.0, 1683.0, 1680.0, 1680.0, 1683.0, 1681.0, 1678.0, 1678.0, 1679.0, 1679.0, 1681.0, 1682.0, 1681.0, 1678.0, 1676.0, 1676.0, 1679.0, 1677.0, 1677.0, 1678.0, 1678.0, 1680.0, 1682.0, 1683.0, 1684.0, 1682.0, 1679.0, 1676.0, 1677.0, 1676.0, 1675.0, 1674.0, 1676.0, 1676.0, 1674.0, 1675.0, 1676.0, 1674.0, 1675.0, 1675.0, 1678.0, 1678.0, 1681.0, 1684.0, 1683.0, 1680.0, 1680.0, 1680.0, 1680.0, 1677.0, 1677.0, 1677.0, 1681.0, 1680.0, 1678.0, 1676.0, 1676.0, 1676.0, 1676.0, 1676.0, 1677.0, 1675.0, 1674.0, 1675.0, 1675.0, 1674.0, 1675.0, 1677.0, 1677.0, 1676.0, 1677.0, 1680.0, 1681.0, 1679.0, 1675.0, 1674.0, 1675.0, 1676.0, 1678.0, 1679.0, 1681.0, 1681.0, 1680.0, 1681.0, 1683.0, 1682.0, 1677.0, 1673.0, 1675.0, 1675.0, 1675.0, 1675.0, 1675.0, 1673.0, 1672.0, 1670.0, 1675.0, 1675.0, 1674.0, 1675.0, 1675.0, 1674.0, 1672.0, 1675.0, 1677.0, 1677.0, 1676.0, 1674.0, 1674.0, 1675.0, 1672.0, 1672.0, 1675.0, 1676.0, 1677.0, 1679.0, 1679.0, 1678.0, 1681.0, 1680.0, 1678.0, 1674.0, 1676.0, 1676.0, 1678.0, 1677.0, 1678.0, 1682.0]
    },
    "slices": {}
  }
}