{
  "AcquisitionMatrixPE": 100,
  "AcquisitionNumber": 1,
  "AcquisitionTime": "13:42:45.307500",
  "BandwidthPerPixelPhaseEncode": 18.519,
  "BaseResolution": 100,
  "BodyPartExamined": "BRAIN",
  "CoilCombinationMethod": "Sum of Squares",
  "ConsistencyInfo": "N4_VE11C_LATEST_20160120",
  "ConversionSoftware": "dcm2niix",
  "ConversionSoftwareVersion": "v1.0.20211006",
  "DerivedVendorReportedEchoSpacing": 0.000539986,
  "DeviceSerialNumber": "166078",
  "DwellTime": 2.1e-06,
  "EchoTime": 0.034,
  "EchoTrainLength": 100,
  "EffectiveEchoSpacing": 0.000539986,
  "FlipAngle": 90,
  "ImageOrientationPatientDICOM": [1, -5.21588e-05, -0.000273251, 3.9258e-08, 0.982292, -0.187358],
  "ImageOrientationText": "Tra>Cor(-10.8)>Sag(-0.0)",
  "ImageType": [
    "ORIGINAL",
    "PRIMARY",
    "M",
    "ND",
    "MOSAIC"
],
  "ImagingFrequency": 123.258,
  "InPlanePhaseEncodingDirectionDICOM": "COL",
  "InstitutionAddress": "Street StreetNo,Bei Jing,District,CN,ZIP",
  "InstitutionName": "BeiJing Normal University",
  "InstitutionalDepartmentName": "Department",
  "MRAcquisitionType": "2D",
  "MagneticFieldStrength": 3,
  "Manufacturer": "Siemens",
  "ManufacturersModelName": "Prisma",
  "Modality": "MR",
  "MultibandAccelerationFactor": 3,
  "PartialFourier": 1,
  "PatientPosition": "HFS",
  "PercentPhaseFOV": 100,
  "PercentSampling": 100,
  "PhaseEncodingDirection": "j-",
  "PhaseEncodingSteps": 100,
  "PhaseResolution": 1,
  "PixelBandwidth": 2380,
  "ProcedureStepDescription": "BNU_P2018_64CH^Zhen.ZongLei",
  "ProtocolName": "bold_100x100_s3_2x2x2_static_156",
  "PulseSequenceDetails": "%SiemensSeq%\\ep2d_bold",
  "ReceiveCoilActiveElements": "HC1-7;NC1",
  "ReceiveCoilName": "HeadNeck_64",
  "ReconMatrixPE": 100,
  "RefLinesPE": 32,
  "RepetitionTime": 2,
  "SAR": 0.0858331,
  "ScanOptions": "FS",
  "ScanningSequence": "EP",
  "SequenceName": "*epfid2d1_100",
  "SequenceVariant": "SK",
  "SeriesDescription": "bold_100x100_s3_2x2x2_static_156",
  "SeriesNumber": 11,
  "ShimSetting": [-5444, -11516, -1230, 507, 35, -190, -117, 18],
  "SliceThickness": 2,
  "SliceTiming": [1.485, 0, 0.99, 0.0825, 1.0725, 0.165, 1.155, 0.2475, 1.2375, 0.33, 1.32, 0.4125, 1.4025, 0.5775, 1.5675, 0.66, 1.65, 0.7425, 1.7325, 0.825, 1.815, 0.9075, 1.8975, 0.495, 1.485, 0, 0.99, 0.0825, 1.0725, 0.165, 1.155, 0.2475, 1.2375, 0.33, 1.32, 0.4125, 1.4025, 0.5775, 1.5675, 0.66, 1.65, 0.7425, 1.7325, 0.825, 1.815, 0.9075, 1.8975, 0.495, 1.485, 0, 0.99, 0.0825, 1.0725, 0.165, 1.155, 0.2475, 1.2375, 0.33, 1.32, 0.4125, 1.4025, 0.5775, 1.5675, 0.66, 1.65, 0.7425, 1.7325, 0.825, 1.815, 0.9075, 1.8975, 0.495],
  "SoftwareVersions": "syngo MR E11",
  "SpacingBetweenSlices": 2,
  "StationName": "AWP166078",
  "TaskName": "action",
  "TotalReadoutTime": 0.0534586,
  "TxRefAmp": 227.505,
  "dcmmeta_affine": [
    [-1.9999998807907104, 7.851598127217585e-08, -0.0005563698359765112, 101.46329498291016],
    [0.00010431757982587442, 1.9645832777023315, -0.3747164011001587, -80.93180084228516],
    [-0.0005465027643367648, 0.3747164011001587, 1.9645832777023315, -77.75297546386719],
    [0.0, 0.0, 0.0, 1.0]
],
  "dcmmeta_reorient_transform": [
    [0.0, -1.0, 0.0, 99.0],
    [1.0, 0.0, 0.0, 0.0],
    [0.0, 0.0, 1.0, 0.0],
    [0.0, 0.0, 0.0, 1.0]
],
  "dcmmeta_shape": [100, 100, 72, 156],
  "dcmmeta_slice_dim": 2,
  "dcmmeta_version": 0.6,
  "global": {
    "const": {
      "AcquisitionMatrix": [100, 0, 0, 100],
      "AngioFlag": "N",
      "BitsAllocated": 16,
      "BitsStored": 12,
      "BodyPartExamined": "BRAIN",
      "Columns": 900,
      "EchoNumbers": 1,
      "EchoTime": 34.0,
      "EchoTrainLength": 100,
      "FlipAngle": 90.0,
      "HighBit": 11,
      "ImageOrientationPatient": [0.99999996130657, -5.21587901e-05, -0.0002732513719, 3.9257991e-08, 0.98229165890162, -0.187358204657],
      "ImagePositionPatient": [-901.46330645827, -899.35355135159, 109.44911334353],
      "ImageType": [
        "ORIGINAL",
        "PRIMARY",
        "M",
        "ND",
        "MOSAIC"
],
      "ImagedNucleus": "1H",
      "ImagingFrequency": 123.257723,
      "InPlanePhaseEncodingDirection": "COL",
      "MRAcquisitionType": "2D",
      "MagneticFieldStrength": 3.0,
      "Manufacturer": "SIEMENS",
      "ManufacturerModelName": "Prisma",
      "Modality": "MR",
      "NumberOfAverages": 1.0,
      "NumberOfPhaseEncodingSteps": 100,
      "PercentPhaseFieldOfView": 100.0,
      "PercentSampling": 100.0,
      "PerformedProcedureStepStartTime": "125823.622000",
      "PhotometricInterpretation": "MONOCHROME2",
      "PixelBandwidth": 2380.0,
      "PixelRepresentation": 0,
      "PixelSpacing": [2.0, 2.0],
      "ProtocolName": "bold_100x100_s3_2x2x2_static_156",
      "RepetitionTime": 2000.0,
      "Rows": 900,
      "SAR": 0.08583313248598,
      "SamplesPerPixel": 1,
      "ScanOptions": "FS",
      "ScanningSequence": "EP",
      "SequenceName": "*epfid2d1_100",
      "SequenceVariant": "SK",
      "SeriesDescription": "bold_100x100_s3_2x2x2_static_156",
      "SeriesNumber": 11,
      "SeriesTime": "134248.123000",
      "SliceLocation": -61.241086750241,
      "SliceThickness": 2.0,
      "SmallestImagePixelValue": 0,
      "SoftwareVersions": "syngo MR E11",
      "SpacingBetweenSlices": 2.0000000338651,
      "SpecificCharacterSet": "ISO_IR 100",
      "StudyID": "1",
      "StudyTime": "125823.466000",
      "TransmitCoilName": "Body",
      "VariableFlipAngleFlag": "N",
      "WindowCenterWidthExplanation": "Algo1",
      "dBdt": 0.0},
    "slices": {}
  },
  "time": {
    "samples": {
      "AcquisitionNumber": [1, 2, 3, 4, 5, 6, 7, 8, 9, 10, 11, 12, 13, 14, 15, 16, 17, 18, 19, 20, 21, 22, 23, 24, 25, 26, 27, 28, 29, 30, 31, 32, 33, 34, 35, 36, 37, 38, 39, 40, 41, 42, 43, 44, 45, 46, 47, 48, 49, 50, 51, 52, 53, 54, 55, 56, 57, 58, 59, 60, 61, 62, 63, 64, 65, 66, 67, 68, 69, 70, 71, 72, 73, 74, 75, 76, 77, 78, 79, 80, 81, 82, 83, 84, 85, 86, 87, 88, 89, 90, 91, 92, 93, 94, 95, 96, 97, 98, 99, 100, 101, 102, 103, 104, 105, 106, 107, 108, 109, 110, 111, 112, 113, 114, 115, 116, 117, 118, 119, 120, 121, 122, 123, 124, 125, 126, 127, 128, 129, 130, 131, 132, 133, 134, 135, 136, 137, 138, 139, 140, 141, 142, 143, 144, 145, 146, 147, 148, 149, 150, 151, 152, 153, 154, 155, 156],
      "AcquisitionTime": ["134245.307500", "134247.307500", "134249.307500", "134251.307500", "134253.307500", "134255.307500", "134257.307500", "134259.307500", "134301.307500", "134303.307500", "134305.307500", "134307.307500", "134309.307500", "134311.307500", "134313.307500", "134315.307500", "134317.307500", "134319.307500", "134321.307500", "134323.307500", "134325.307500", "134327.307500", "134329.307500", "134331.307500", "134333.307500", "134335.307500", "134337.307500", "134339.307500", "134341.307500", "134343.307500", "134345.307500", "134347.307500", "134349.307500", "134351.307500", "134353.307500", "134355.307500", "134357.307500", "134359.307500", "134401.307500", "134403.307500", "134405.307500", "134407.307500", "134409.307500", "134411.307500", "134413.307500", "134415.307500", "134417.307500", "134419.307500", "134421.307500", "134423.307500", "134425.307500", "134427.307500", "134429.307500", "134431.307500", "134433.307500", "134435.307500", "134437.307500", "134439.307500", "134441.307500", "134443.307500", "134445.307500", "134447.307500", "134449.307500", "134451.307500", "134453.307500", "134455.307500", "134457.307500", "134459.307500", "134501.307500", "134503.307500", "134505.307500", "134507.307500", "134509.307500", "134511.307500", "134513.307500", "134515.307500", "134517.307500", "134519.307500", "134521.307500", "134523.307500", "134525.307500", "134527.307500", "134529.307500", "134531.307500", "134533.307500", "134535.307500", "134537.307500", "134539.307500", "134541.307500", "134543.307500", "134545.307500", "134547.307500", "134549.307500", "134551.307500", "134553.307500", "134555.307500", "134557.307500", "134559.307500", "134601.307500", "134603.307500", "134605.307500", "134607.307500", "134609.307500", "134611.307500", "134613.307500", "134615.307500", "134617.307500", "134619.307500", "134621.307500", "134623.307500", "134625.307500", "134627.307500", "134629.307500", "134631.307500", "134633.307500", "134635.307500", "134637.307500", "134639.307500", "134641.307500", "134643.307500", "134645.307500", "134647.307500", "134649.307500", "134651.307500", "134653.307500", "134655.307500", "134657.307500", "134659.307500", "134701.307500", "134703.307500", "134705.307500", "134707.307500", "134709.307500", "134711.307500", "134713.307500", "134715.307500", "134717.307500", "134719.307500", "134721.307500", "134723.307500", "134725.307500", "134727.307500", "134729.307500", "134731.307500", "134733.307500", "134735.307500", "134737.307500", "134739.307500", "134741.307500", "134743.307500", "134745.307500", "134747.307500", "134749.307500", "134751.307500", "134753.307500", "134755.307500"],
      "ContentTime": ["134248.126000", "134249.621000", "134251.623000", "134253.623000", "134255.622000", "134257.623000", "134259.622000", "134301.621000", "134303.621000", "134305.621000", "134307.622000", "134309.622000", "134311.623000", "134313.623000", "134315.622000", "134317.622000", "134319.621000", "134321.621000", "134323.622000", "134325.621000", "134327.622000", "134329.622000", "134331.622000", "134333.623000", "134335.621000", "134337.621000", "134339.622000", "134341.621000", "134343.642000", "134345.622000", "134347.622000", "134349.622000", "134351.622000", "134353.621000", "134355.622000", "134357.621000", "134359.622000", "134401.622000", "134403.622000", "134405.622000", "134407.622000", "134409.622000", "134411.622000", "134413.622000", "134415.622000", "134417.622000", "134419.622000", "134421.623000", "134423.622000", "134425.622000", "134427.623000", "134429.621000", "134431.621000", "134433.621000", "134435.623000", "134437.623000", "134439.624000", "134441.623000", "134443.623000", "134445.621000", "134447.621000", "134449.622000", "134451.622000", "134453.622000", "134455.623000", "134457.622000", "134459.623000", "134501.622000", "134503.622000", "134505.621000", "134507.621000", "134509.622000", "134511.622000", "134513.622000", "134515.622000", "134517.623000", "134519.622000", "134521.621000", "134523.621000", "134525.621000", "134527.621000", "134529.622000", "134531.623000", "134533.622000", "134535.623000", "134537.622000", "134539.622000", "134541.621000", "134543.622000", "134545.623000", "134547.623000", "134549.622000", "134551.623000", "134553.622000", "134555.621000", "134557.621000", "134559.621000", "134601.621000", "134603.622000", "134605.622000", "134607.622000", "134609.622000", "134611.622000", "134613.622000", "134615.622000", "134617.621000", "134619.621000", "134621.623000", "134623.622000", "134626.122000", "134627.622000", "134629.622000", "134631.621000", "134633.622000", "134635.621000", "134637.622000", "134639.622000", "134641.622000", "134643.623000", "134645.622000", "134647.623000", "134649.625000", "134651.621000", "134653.622000", "134655.622000", "134657.623000", "134659.623000", "134701.622000", "134703.622000", "134705.621000", "134707.621000", "134709.622000", "134711.635000", "134713.622000", "134715.622000", "134717.622000", "134719.623000", "134721.622000", "134723.622000", "134725.622000", "134727.622000", "134729.622000", "134731.622000", "134733.623000", "134735.623000", "134737.623000", "134739.622000", "134741.621000", "134743.622000", "134745.621000", "134747.621000", "134749.623000", "134751.623000", "134753.622000", "134755.623000", "134757.470000"],
      "InstanceCreationTime": ["134248.126000", "134249.621000", "134251.623000", "134253.623000", "134255.622000", "134257.623000", "134259.622000", "134301.621000", "134303.621000", "134305.621000", "134307.622000", "134309.622000", "134311.623000", "134313.623000", "134315.622000", "134317.622000", "134319.621000", "134321.621000", "134323.622000", "134325.621000", "134327.622000", "134329.622000", "134331.622000", "134333.623000", "134335.621000", "134337.621000", "134339.622000", "134341.621000", "134343.642000", "134345.622000", "134347.622000", "134349.622000", "134351.622000", "134353.621000", "134355.622000", "134357.621000", "134359.622000", "134401.622000", "134403.622000", "134405.622000", "134407.622000", "134409.622000", "134411.622000", "134413.622000", "134415.622000", "134417.622000", "134419.622000", "134421.623000", "134423.622000", "134425.622000", "134427.623000", "134429.621000", "134431.621000", "134433.621000", "134435.623000", "134437.623000", "134439.624000", "134441.623000", "134443.623000", "134445.621000", "134447.621000", "134449.622000", "134451.622000", "134453.622000", "134455.623000", "134457.622000", "134459.623000", "134501.622000", "134503.622000", "134505.621000", "134507.621000", "134509.622000", "134511.622000", "134513.622000", "134515.622000", "134517.623000", "134519.622000", "134521.621000", "134523.621000", "134525.621000", "134527.621000", "134529.622000", "134531.623000", "134533.622000", "134535.623000", "134537.622000", "134539.622000", "134541.621000", "134543.622000", "134545.623000", "134547.623000", "134549.622000", "134551.623000", "134553.622000", "134555.621000", "134557.621000", "134559.621000", "134601.621000", "134603.622000", "134605.622000", "134607.622000", "134609.622000", "134611.622000", "134613.622000", "134615.622000", "134617.621000", "134619.621000", "134621.623000", "134623.622000", "134626.122000", "134627.622000", "134629.622000", "134631.621000", "134633.622000", "134635.621000", "134637.622000", "134639.622000", "134641.622000", "134643.623000", "134645.622000", "134647.623000", "134649.625000", "134651.621000", "134653.622000", "134655.622000", "134657.623000", "134659.623000", "134701.622000", "134703.622000", "134705.621000", "134707.621000", "134709.622000", "134711.635000", "134713.622000", "134715.622000", "134717.622000", "134719.623000", "134721.622000", "134723.622000", "134725.622000", "134727.622000", "134729.622000", "134731.622000", "134733.623000", "134735.623000", "134737.623000", "134739.622000", "134741.621000", "134743.622000", "134745.621000", "134747.621000", "134749.623000", "134751.623000", "134753.622000", "134755.623000", "134757.470000"],
      "InstanceNumber": [1, 2, 3, 4, 5, 6, 7, 8, 9, 10, 11, 12, 13, 14, 15, 16, 17, 18, 19, 20, 21, 22, 23, 24, 25, 26, 27, 28, 29, 30, 31, 32, 33, 34, 35, 36, 37, 38, 39, 40, 41, 42, 43, 44, 45, 46, 47, 48, 49, 50, 51, 52, 53, 54, 55, 56, 57, 58, 59, 60, 61, 62, 63, 64, 65, 66, 67, 68, 69, 70, 71, 72, 73, 74, 75, 76, 77, 78, 79, 80, 81, 82, 83, 84, 85, 86, 87, 88, 89, 90, 91, 92, 93, 94, 95, 96, 97, 98, 99, 100, 101, 102, 103, 104, 105, 106, 107, 108, 109, 110, 111, 112, 113, 114, 115, 116, 117, 118, 119, 120, 121, 122, 123, 124, 125, 126, 127, 128, 129, 130, 131, 132, 133, 134, 135, 136, 137, 138, 139, 140, 141, 142, 143, 144, 145, 146, 147, 148, 149, 150, 151, 152, 153, 154, 155, 156],
      "LargestImagePixelValue": [3298, 3273, 3266, 3215, 3235, 3274, 3291, 3262, 3265, 3257, 3229, 3220, 3243, 3246, 3208, 3208, 3181, 3165, 3184, 3163, 3159, 3166, 3186, 3162, 3171, 3161, 3211, 3227, 3242, 3238, 3217, 3204, 3206, 3188, 3179, 3178, 3187, 3207, 3185, 3184, 3180, 3195, 3184, 3217, 3240, 3212, 3234, 3219, 3231, 3215, 3200, 3247, 3264, 3239, 3252, 3204, 3182, 3179, 3169, 3163, 3208, 3190, 3193, 3204, 3158, 3197, 3177, 3198, 3202, 3180, 3223, 3231, 3274, 3247, 3236, 3208, 3180, 3198, 3221, 3185, 3197, 3182, 3169, 3196, 3174, 3183, 3207, 3175, 3173, 3171, 3176, 3178, 3187, 3191, 3197, 3197, 3182, 3157, 3171, 3186, 3173, 3241, 3251, 3262, 3232, 3213, 3180, 3164, 3197, 3140, 3169, 3196, 3187, 3188, 3187, 3180, 3216, 3199, 3214, 3224, 3244, 3205, 3194, 3215, 3218, 3202, 3225, 3208, 3178, 3220, 3260, 3235, 3201, 3185, 3204, 3189, 3194, 3183, 3174, 3205, 3188, 3213, 3201, 3207, 3212, 3206, 3217, 3227, 3190, 3174, 3204, 3214, 3212, 3170, 3204, 3231],
      "WindowCenter": [789.0, 787.0, 786.0, 786.0, 786.0, 787.0, 787.0, 786.0, 786.0, 786.0, 786.0, 786.0, 786.0, 786.0, 786.0, 787.0, 786.0, 784.0, 784.0, 782.0, 782.0, 783.0, 784.0, 784.0, 784.0, 784.0, 785.0, 785.0, 785.0, 784.0, 784.0, 784.0, 784.0, 784.0, 784.0, 785.0, 785.0, 785.0, 785.0, 784.0, 784.0, 785.0, 784.0, 786.0, 786.0, 784.0, 784.0, 784.0, 784.0, 783.0, 784.0, 786.0, 787.0, 786.0, 784.0, 783.0, 784.0, 783.0, 782.0, 782.0, 783.0, 784.0, 783.0, 782.0, 782.0, 783.0, 783.0, 783.0, 784.0, 784.0, 784.0, 785.0, 786.0, 785.0, 784.0, 783.0, 784.0, 784.0, 784.0, 783.0, 784.0, 784.0, 784.0, 784.0, 783.0, 783.0, 783.0, 783.0, 784.0, 784.0, 783.0, 783.0, 783.0, 783.0, 783.0, 783.0, 783.0, 784.0, 784.0, 785.0, 786.0, 786.0, 786.0, 786.0, 785.0, 784.0, 784.0, 783.0, 783.0, 783.0, 784.0, 785.0, 784.0, 783.0, 783.0, 784.0, 785.0, 785.0, 785.0, 784.0, 785.0, 785.0, 784.0, 784.0, 785.0, 785.0, 784.0, 783.0, 784.0, 785.0, 787.0, 786.0, 784.0, 783.0, 783.0, 784.0, 785.0, 784.0, 784.0, 784.0, 784.0, 784.0, 783.0, 783.0, 784.0, 784.0, 784.0, 784.0, 783.0, 783.0, 783.0, 783.0, 784.0, 783.0, 783.0, 785.0],
      "WindowWidth": [1697.0, 1690.0, 1688.0, 1686.0, 1687.0, 1688.0, 1689.0, 1687.0, 1687.0, 1688.0, 1687.0, 1688.0, 1688.0, 1689.0, 1687.0, 1689.0, 1687.0, 1683.0, 1681.0, 1677.0, 1678.0, 1680.0, 1682.0, 1681.0, 1681.0, 1682.0, 1684.0, 1684.0, 1684.0, 1683.0, 1682.0, 1681.0, 1683.0, 1682.0, 1683.0, 1684.0, 1684.0, 1684.0, 1684.0, 1683.0, 1683.0, 1684.0, 1683.0, 1688.0, 1687.0, 1683.0, 1682.0, 1682.0, 1683.0, 1681.0, 1682.0, 1687.0, 1690.0, 1687.0, 1683.0, 1680.0, 1682.0, 1680.0, 1679.0, 1679.0, 1681.0, 1682.0, 1680.0, 1678.0, 1679.0, 1680.0, 1679.0, 1679.0, 1681.0, 1682.0, 1683.0, 1685.0, 1688.0, 1685.0, 1683.0, 1681.0, 1682.0, 1682.0, 1681.0, 1681.0, 1682.0, 1682.0, 1683.0, 1683.0, 1681.0, 1679.0, 1679.0, 1680.0, 1683.0, 1683.0, 1681.0, 1680.0, 1681.0, 1681.0, 1681.0, 1681.0, 1680.0, 1682.0, 1683.0, 1686.0, 1687.0, 1688.0, 1688.0, 1687.0, 1685.0, 1683.0, 1682.0, 1680.0, 1681.0, 1679.0, 1681.0, 1684.0, 1682.0, 1680.0, 1679.0, 1681.0, 1685.0, 1685.0, 1684.0, 1682.0, 1685.0, 1684.0, 1683.0, 1683.0, 1685.0, 1685.0, 1682.0, 1680.0, 1682.0, 1686.0, 1689.0, 1687.0, 1682.0, 1679.0, 1680.0, 1682.0, 1685.0, 1682.0, 1681.0, 1681.0, 1682.0, 1682.0, 1680.0, 1679.0, 1681.0, 1682.0, 1682.0, 1682.0, 1680.0, 1679.0, 1679.0, 1680.0, 1681.0, 1680.0, 1680.0, 1684.0]
    },
    "slices": {}
  }
}