{
  "AcquisitionMatrixPE": 100,
  "AcquisitionNumber": 1,
  "AcquisitionTime": "09:27:32.922500",
  "BandwidthPerPixelPhaseEncode": 18.519,
  "BaseResolution": 100,
  "BodyPartExamined": "BRAIN",
  "CoilCombinationMethod": "Sum of Squares",
  "ConsistencyInfo": "N4_VE11C_LATEST_20160120",
  "ConversionSoftware": "dcm2niix",
  "ConversionSoftwareVersion": "v1.0.20211006",
  "DerivedVendorReportedEchoSpacing": 0.000539986,
  "DeviceSerialNumber": "166078",
  "DwellTime": 2.1e-06,
  "EchoTime": 0.034,
  "EchoTrainLength": 100,
  "EffectiveEchoSpacing": 0.000539986,
  "FlipAngle": 90,
  "ImageOrientationPatientDICOM": [0.99685, 0.0187054, 0.0770665, -5.99349e-09, 0.971785, -0.235869],
  "ImageOrientationText": "Tra>Cor(-13.6)>Sag(4.5)",
  "ImageType": [
    "ORIGINAL",
    "PRIMARY",
    "M",
    "ND",
    "MOSAIC"
],
  "ImagingFrequency": 123.258,
  "InPlanePhaseEncodingDirectionDICOM": "COL",
  "InstitutionAddress": "Street StreetNo,Bei Jing,District,CN,ZIP",
  "InstitutionName": "BeiJing Normal University",
  "InstitutionalDepartmentName": "Department",
  "MRAcquisitionType": "2D",
  "MagneticFieldStrength": 3,
  "Manufacturer": "Siemens",
  "ManufacturersModelName": "Prisma",
  "Modality": "MR",
  "MultibandAccelerationFactor": 3,
  "PartialFourier": 1,
  "PatientPosition": "HFS",
  "PercentPhaseFOV": 100,
  "PercentSampling": 100,
  "PhaseEncodingDirection": "j-",
  "PhaseEncodingSteps": 100,
  "PhaseResolution": 1,
  "PixelBandwidth": 2380,
  "ProcedureStepDescription": "BNU_P2018_64CH^Zhen.ZongLei",
  "ProtocolName": "bold_100x100_s3_2x2x2_static_156",
  "PulseSequenceDetails": "%SiemensSeq%\\ep2d_bold",
  "ReceiveCoilActiveElements": "HC1-7;NC1",
  "ReceiveCoilName": "HeadNeck_64",
  "ReconMatrixPE": 100,
  "RefLinesPE": 32,
  "RepetitionTime": 2,
  "SAR": 0.0680172,
  "ScanOptions": "FS",
  "ScanningSequence": "EP",
  "SequenceName": "*epfid2d1_100",
  "SequenceVariant": "SK",
  "SeriesDescription": "bold_100x100_s3_2x2x2_static_156",
  "SeriesNumber": 5,
  "ShimSetting": [-5428, -11517, -1313, 415, 115, -426, -218, -38],
  "SliceThickness": 2,
  "SliceTiming": [1.485, 0, 0.99, 0.0825, 1.0725, 0.165, 1.155, 0.2475, 1.2375, 0.33, 1.32, 0.4125, 1.4025, 0.5775, 1.5675, 0.66, 1.65, 0.7425, 1.7325, 0.825, 1.815, 0.9075, 1.8975, 0.495, 1.485, 0, 0.99, 0.0825, 1.0725, 0.165, 1.155, 0.2475, 1.2375, 0.33, 1.32, 0.4125, 1.4025, 0.5775, 1.5675, 0.66, 1.65, 0.7425, 1.7325, 0.825, 1.815, 0.9075, 1.8975, 0.495, 1.485, 0, 0.99, 0.0825, 1.0725, 0.165, 1.155, 0.2475, 1.2375, 0.33, 1.32, 0.4125, 1.4025, 0.5775, 1.5675, 0.66, 1.65, 0.7425, 1.7325, 0.825, 1.815, 0.9075, 1.8975, 0.495],
  "SoftwareVersions": "syngo MR E11",
  "SpacingBetweenSlices": 2,
  "StationName": "AWP166078",
  "TaskName": "action",
  "TotalReadoutTime": 0.0534586,
  "TxRefAmp": 209.779,
  "dcmmeta_affine": [
    [-1.9937009811401367, -1.1986972303645871e-08, 0.15860825777053833, 97.49837493896484],
    [-0.03741084039211273, 1.943569540977478, -0.4702529311180115, -70.97064208984375],
    [0.15413309633731842, 0.47173869609832764, 1.937448263168335, -101.6880111694336],
    [0.0, 0.0, 0.0, 1.0]
],
  "dcmmeta_reorient_transform": [
    [0.0, -1.0, 0.0, 99.0],
    [1.0, 0.0, 0.0, 0.0],
    [0.0, 0.0, 1.0, 0.0],
    [0.0, 0.0, 0.0, 1.0]
],
  "dcmmeta_shape": [100, 100, 72, 156],
  "dcmmeta_slice_dim": 2,
  "dcmmeta_version": 0.6,
  "global": {
    "const": {
      "AcquisitionMatrix": [100, 0, 0, 100],
      "AngioFlag": "N",
      "BitsAllocated": 16,
      "BitsStored": 12,
      "BodyPartExamined": "BRAIN",
      "Columns": 900,
      "EchoNumbers": 1,
      "EchoTime": 34.0,
      "EchoTrainLength": 100,
      "FlipAngle": 90.0,
      "HighBit": 11,
      "ImageOrientationPatient": [0.99685046763352, 0.018705419536, 0.07706654565252, -5.993486e-09, 0.9717847756587, -0.2358693490006],
      "ImagePositionPatient": [-894.97874111957, -913.83490011676, 72.056365481554],
      "ImageType": [
        "ORIGINAL",
        "PRIMARY",
        "M",
        "ND",
        "MOSAIC"
],
      "ImagedNucleus": "1H",
      "ImagingFrequency": 123.257723,
      "InPlanePhaseEncodingDirection": "COL",
      "MRAcquisitionType": "2D",
      "MagneticFieldStrength": 3.0,
      "Manufacturer": "SIEMENS",
      "ManufacturerModelName": "Prisma",
      "Modality": "MR",
      "NumberOfAverages": 1.0,
      "NumberOfPhaseEncodingSteps": 100,
      "PercentPhaseFieldOfView": 100.0,
      "PercentSampling": 100.0,
      "PerformedProcedureStepStartTime": "090325.218000",
      "PhotometricInterpretation": "MONOCHROME2",
      "PixelBandwidth": 2380.0,
      "PixelRepresentation": 0,
      "PixelSpacing": [2.0, 2.0],
      "ProtocolName": "bold_100x100_s3_2x2x2_static_156",
      "RepetitionTime": 2000.0,
      "Rows": 900,
      "SAR": 0.06801716196721,
      "SamplesPerPixel": 1,
      "ScanOptions": "FS",
      "ScanningSequence": "EP",
      "SequenceName": "*epfid2d1_100",
      "SequenceVariant": "SK",
      "SeriesDescription": "bold_100x100_s3_2x2x2_static_156",
      "SeriesNumber": 5,
      "SeriesTime": "092735.165000",
      "SliceLocation": -74.088524950361,
      "SliceThickness": 2.0,
      "SmallestImagePixelValue": 0,
      "SoftwareVersions": "syngo MR E11",
      "SpacingBetweenSlices": 1.9999999926164,
      "SpecificCharacterSet": "ISO_IR 100",
      "StudyID": "1",
      "StudyTime": "090325.146000",
      "TransmitCoilName": "Body",
      "VariableFlipAngleFlag": "N",
      "WindowCenterWidthExplanation": "Algo1",
      "dBdt": 0.0},
    "slices": {}
  },
  "time": {
    "samples": {
      "AcquisitionNumber": [1, 2, 3, 4, 5, 6, 7, 8, 9, 10, 11, 12, 13, 14, 15, 16, 17, 18, 19, 20, 21, 22, 23, 24, 25, 26, 27, 28, 29, 30, 31, 32, 33, 34, 35, 36, 37, 38, 39, 40, 41, 42, 43, 44, 45, 46, 47, 48, 49, 50, 51, 52, 53, 54, 55, 56, 57, 58, 59, 60, 61, 62, 63, 64, 65, 66, 67, 68, 69, 70, 71, 72, 73, 74, 75, 76, 77, 78, 79, 80, 81, 82, 83, 84, 85, 86, 87, 88, 89, 90, 91, 92, 93, 94, 95, 96, 97, 98, 99, 100, 101, 102, 103, 104, 105, 106, 107, 108, 109, 110, 111, 112, 113, 114, 115, 116, 117, 118, 119, 120, 121, 122, 123, 124, 125, 126, 127, 128, 129, 130, 131, 132, 133, 134, 135, 136, 137, 138, 139, 140, 141, 142, 143, 144, 145, 146, 147, 148, 149, 150, 151, 152, 153, 154, 155, 156],
      "AcquisitionTime": ["092732.922500", "092734.922500", "092736.922500", "092738.922500", "092740.922500", "092742.922500", "092744.922500", "092746.922500", "092748.922500", "092750.922500", "092752.922500", "092754.922500", "092756.922500", "092758.922500", "092800.922500", "092802.922500", "092804.922500", "092806.922500", "092808.922500", "092810.922500", "092812.922500", "092814.922500", "092816.922500", "092818.922500", "092820.922500", "092822.922500", "092824.922500", "092826.922500", "092828.922500", "092830.922500", "092832.922500", "092834.922500", "092836.922500", "092838.922500", "092840.922500", "092842.922500", "092844.922500", "092846.922500", "092848.922500", "092850.922500", "092852.922500", "092854.922500", "092856.922500", "092858.922500", "092900.922500", "092902.922500", "092904.922500", "092906.922500", "092908.922500", "092910.922500", "092912.922500", "092914.922500", "092916.922500", "092918.922500", "092920.922500", "092922.922500", "092924.922500", "092926.922500", "092928.922500", "092930.922500", "092932.922500", "092934.922500", "092936.922500", "092938.922500", "092940.922500", "092942.922500", "092944.922500", "092946.922500", "092948.922500", "092950.922500", "092952.922500", "092954.922500", "092956.922500", "092958.922500", "093000.922500", "093002.922500", "093004.922500", "093006.922500", "093008.922500", "093010.922500", "093012.922500", "093014.922500", "093016.922500", "093018.922500", "093020.922500", "093022.922500", "093024.922500", "093026.922500", "093028.922500", "093030.922500", "093032.922500", "093034.922500", "093036.922500", "093038.922500", "093040.922500", "093042.922500", "093044.922500", "093046.922500", "093048.922500", "093050.922500", "093052.922500", "093054.922500", "093056.922500", "093058.922500", "093100.922500", "093102.922500", "093104.922500", "093106.922500", "093108.922500", "093110.922500", "093112.922500", "093114.922500", "093116.922500", "093118.922500", "093120.922500", "093122.922500", "093124.922500", "093126.922500", "093128.922500", "093130.922500", "093132.922500", "093134.922500", "093136.922500", "093138.922500", "093140.922500", "093142.922500", "093144.922500", "093146.922500", "093148.922500", "093150.922500", "093152.922500", "093154.922500", "093156.922500", "093158.922500", "093200.922500", "093202.922500", "093204.922500", "093206.922500", "093208.922500", "093210.922500", "093212.922500", "093214.922500", "093216.922500", "093218.922500", "093220.922500", "093222.922500", "093224.922500", "093226.922500", "093228.922500", "093230.922500", "093232.922500", "093234.922500", "093236.922500", "093238.922500", "093240.922500", "093242.922500"],
      "ContentTime": ["092735.168000", "092736.663000", "092738.664000", "092740.663000", "092742.664000", "092744.664000", "092746.665000", "092748.664000", "092750.665000", "092752.663000", "092754.663000", "092756.664000", "092758.664000", "092800.665000", "092802.665000", "092804.664000", "092806.664000", "092808.665000", "092811.163000", "092812.663000", "092814.663000", "092816.663000", "092818.665000", "092820.665000", "092822.664000", "092824.665000", "092826.665000", "092828.663000", "092830.664000", "092832.663000", "092834.663000", "092836.665000", "092838.665000", "092841.164000", "092842.665000", "092844.665000", "092846.663000", "092848.663000", "092850.664000", "092852.664000", "092854.665000", "092856.665000", "092858.665000", "092900.665000", "092902.664000", "092904.664000", "092906.663000", "092908.663000", "092910.664000", "092912.665000", "092914.664000", "092916.665000", "092918.665000", "092920.663000", "092922.664000", "092924.663000", "092926.663000", "092928.664000", "092930.665000", "092932.664000", "092934.664000", "092936.665000", "092938.664000", "092940.664000", "092942.663000", "092944.664000", "092946.665000", "092948.664000", "092950.665000", "092952.665000", "092954.665000", "092956.663000", "092958.663000", "093000.663000", "093002.663000", "093004.664000", "093006.665000", "093008.664000", "093010.664000", "093012.664000", "093014.663000", "093016.664000", "093018.664000", "093020.664000", "093022.664000", "093024.664000", "093026.664000", "093028.664000", "093030.663000", "093032.664000", "093034.663000", "093036.663000", "093038.665000", "093040.664000", "093042.665000", "093044.665000", "093046.665000", "093048.663000", "093050.664000", "093052.664000", "093054.663000", "093056.665000", "093058.664000", "093100.664000", "093102.665000", "093104.664000", "093106.663000", "093108.663000", "093110.663000", "093112.665000", "093114.665000", "093116.665000", "093118.664000", "093120.665000", "093122.664000", "093124.663000", "093126.664000", "093128.664000", "093130.664000", "093132.664000", "093134.664000", "093136.665000", "093138.665000", "093140.664000", "093142.663000", "093144.663000", "093146.663000", "093148.664000", "093150.665000", "093152.665000", "093154.664000", "093156.665000", "093158.663000", "093200.664000", "093202.663000", "093204.663000", "093206.665000", "093208.665000", "093210.664000", "093212.665000", "093214.664000", "093216.664000", "093218.663000", "093220.675000", "093222.664000", "093224.664000", "093226.664000", "093228.664000", "093230.664000", "093232.664000", "093234.663000", "093236.664000", "093238.664000", "093240.665000", "093242.665000", "093244.498000"],
      "InstanceCreationTime": ["092735.168000", "092736.663000", "092738.664000", "092740.663000", "092742.664000", "092744.664000", "092746.665000", "092748.664000", "092750.665000", "092752.663000", "092754.663000", "092756.664000", "092758.664000", "092800.665000", "092802.665000", "092804.664000", "092806.664000", "092808.665000", "092811.163000", "092812.663000", "092814.663000", "092816.663000", "092818.665000", "092820.665000", "092822.664000", "092824.665000", "092826.665000", "092828.663000", "092830.664000", "092832.663000", "092834.663000", "092836.665000", "092838.665000", "092841.164000", "092842.665000", "092844.665000", "092846.663000", "092848.663000", "092850.664000", "092852.664000", "092854.665000", "092856.665000", "092858.665000", "092900.665000", "092902.664000", "092904.664000", "092906.663000", "092908.663000", "092910.664000", "092912.665000", "092914.664000", "092916.665000", "092918.665000", "092920.663000", "092922.664000", "092924.663000", "092926.663000", "092928.664000", "092930.665000", "092932.664000", "092934.664000", "092936.665000", "092938.664000", "092940.664000", "092942.663000", "092944.664000", "092946.665000", "092948.664000", "092950.665000", "092952.665000", "092954.665000", "092956.663000", "092958.663000", "093000.663000", "093002.663000", "093004.664000", "093006.665000", "093008.664000", "093010.664000", "093012.664000", "093014.663000", "093016.664000", "093018.664000", "093020.664000", "093022.664000", "093024.664000", "093026.664000", "093028.664000", "093030.663000", "093032.664000", "093034.663000", "093036.663000", "093038.665000", "093040.664000", "093042.665000", "093044.665000", "093046.665000", "093048.663000", "093050.664000", "093052.664000", "093054.663000", "093056.665000", "093058.664000", "093100.664000", "093102.665000", "093104.664000", "093106.663000", "093108.663000", "093110.663000", "093112.665000", "093114.665000", "093116.665000", "093118.664000", "093120.665000", "093122.664000", "093124.663000", "093126.664000", "093128.664000", "093130.664000", "093132.664000", "093134.664000", "093136.665000", "093138.665000", "093140.664000", "093142.663000", "093144.663000", "093146.663000", "093148.664000", "093150.665000", "093152.665000", "093154.664000", "093156.665000", "093158.663000", "093200.664000", "093202.663000", "093204.663000", "093206.665000", "093208.665000", "093210.664000", "093212.665000", "093214.664000", "093216.664000", "093218.663000", "093220.675000", "093222.664000", "093224.664000", "093226.664000", "093228.664000", "093230.664000", "093232.664000", "093234.663000", "093236.664000", "093238.664000", "093240.665000", "093242.665000", "093244.498000"],
      "InstanceNumber": [1, 2, 3, 4, 5, 6, 7, 8, 9, 10, 11, 12, 13, 14, 15, 16, 17, 18, 19, 20, 21, 22, 23, 24, 25, 26, 27, 28, 29, 30, 31, 32, 33, 34, 35, 36, 37, 38, 39, 40, 41, 42, 43, 44, 45, 46, 47, 48, 49, 50, 51, 52, 53, 54, 55, 56, 57, 58, 59, 60, 61, 62, 63, 64, 65, 66, 67, 68, 69, 70, 71, 72, 73, 74, 75, 76, 77, 78, 79, 80, 81, 82, 83, 84, 85, 86, 87, 88, 89, 90, 91, 92, 93, 94, 95, 96, 97, 98, 99, 100, 101, 102, 103, 104, 105, 106, 107, 108, 109, 110, 111, 112, 113, 114, 115, 116, 117, 118, 119, 120, 121, 122, 123, 124, 125, 126, 127, 128, 129, 130, 131, 132, 133, 134, 135, 136, 137, 138, 139, 140, 141, 142, 143, 144, 145, 146, 147, 148, 149, 150, 151, 152, 153, 154, 155, 156],
      "LargestImagePixelValue": [4095, 4095, 4095, 4095, 4062, 4095, 4095, 4095, 4095, 4095, 4095, 4095, 4095, 4087, 4095, 4095, 4095, 4095, 4095, 4095, 4095, 4078, 4082, 4095, 4095, 4095, 4095, 4095, 4095, 4095, 4095, 4095, 4095, 4095, 4095, 4095, 4095, 4095, 4087, 4095, 4095, 4095, 4095, 4080, 4095, 4095, 4059, 4077, 4052, 4095, 4079, 4095, 4069, 4077, 4095, 4081, 4095, 4043, 4068, 4029, 4039, 4059, 4033, 4042, 4080, 4055, 4095, 4056, 4085, 4037, 4072, 4038, 3984, 4033, 4010, 4095, 4095, 4095, 4095, 4076, 4052, 4095, 4093, 4095, 4087, 4059, 4095, 4052, 4074, 4081, 4074, 4078, 4042, 4013, 3993, 3996, 4032, 3944, 3965, 3939, 3983, 3981, 3955, 3949, 4011, 3975, 3996, 3969, 3943, 3936, 3932, 3901, 3954, 3986, 4053, 4032, 3994, 3948, 3959, 3947, 3960, 3923, 3961, 3943, 3938, 3963, 3960, 4037, 3933, 3932, 3941, 3926, 3923, 3948, 3946, 3933, 3981, 3970, 4033, 4058, 4065, 4095, 4095, 4095, 4068, 4014, 4010, 3989, 4051, 4016, 4042, 4049, 4032, 4040, 4068, 4068],
      "WindowCenter": [826.0, 824.0, 824.0, 823.0, 822.0, 823.0, 822.0, 821.0, 821.0, 822.0, 823.0, 822.0, 822.0, 823.0, 824.0, 824.0, 821.0, 820.0, 820.0, 821.0, 820.0, 822.0, 823.0, 822.0, 820.0, 821.0, 822.0, 822.0, 822.0, 821.0, 821.0, 822.0, 823.0, 823.0, 822.0, 821.0, 822.0, 823.0, 825.0, 824.0, 824.0, 823.0, 823.0, 822.0, 821.0, 823.0, 824.0, 824.0, 822.0, 821.0, 823.0, 824.0, 824.0, 822.0, 821.0, 821.0, 821.0, 821.0, 821.0, 822.0, 823.0, 823.0, 823.0, 823.0, 824.0, 824.0, 823.0, 823.0, 824.0, 824.0, 823.0, 822.0, 822.0, 822.0, 823.0, 824.0, 824.0, 824.0, 823.0, 823.0, 823.0, 824.0, 825.0, 824.0, 823.0, 823.0, 824.0, 824.0, 823.0, 822.0, 823.0, 823.0, 821.0, 820.0, 823.0, 825.0, 822.0, 820.0, 819.0, 821.0, 823.0, 822.0, 821.0, 820.0, 820.0, 821.0, 823.0, 823.0, 821.0, 820.0, 820.0, 821.0, 821.0, 821.0, 822.0, 823.0, 822.0, 822.0, 821.0, 821.0, 821.0, 821.0, 821.0, 821.0, 820.0, 821.0, 821.0, 821.0, 821.0, 821.0, 821.0, 821.0, 821.0, 821.0, 821.0, 821.0, 822.0, 823.0, 823.0, 822.0, 821.0, 822.0, 823.0, 824.0, 825.0, 823.0, 822.0, 822.0, 822.0, 822.0, 822.0, 822.0, 821.0, 822.0, 822.0, 822.0],
      "WindowWidth": [1846.0, 1839.0, 1837.0, 1836.0, 1832.0, 1834.0, 1833.0, 1830.0, 1829.0, 1832.0, 1834.0, 1833.0, 1833.0, 1834.0, 1839.0, 1838.0, 1830.0, 1827.0, 1827.0, 1828.0, 1827.0, 1833.0, 1836.0, 1833.0, 1827.0, 1830.0, 1834.0, 1834.0, 1831.0, 1829.0, 1830.0, 1833.0, 1835.0, 1836.0, 1834.0, 1830.0, 1831.0, 1836.0, 1840.0, 1838.0, 1837.0, 1836.0, 1834.0, 1830.0, 1828.0, 1834.0, 1838.0, 1839.0, 1833.0, 1830.0, 1836.0, 1838.0, 1836.0, 1833.0, 1830.0, 1829.0, 1829.0, 1827.0, 1828.0, 1833.0, 1835.0, 1835.0, 1833.0, 1833.0, 1838.0, 1837.0, 1835.0, 1835.0, 1838.0, 1837.0, 1833.0, 1831.0, 1830.0, 1832.0, 1836.0, 1837.0, 1837.0, 1837.0, 1835.0, 1835.0, 1836.0, 1838.0, 1840.0, 1837.0, 1835.0, 1834.0, 1837.0, 1838.0, 1833.0, 1833.0, 1835.0, 1834.0, 1829.0, 1826.0, 1834.0, 1839.0, 1832.0, 1823.0, 1822.0, 1827.0, 1832.0, 1829.0, 1827.0, 1823.0, 1826.0, 1827.0, 1833.0, 1833.0, 1826.0, 1823.0, 1825.0, 1826.0, 1829.0, 1828.0, 1832.0, 1832.0, 1832.0, 1829.0, 1828.0, 1829.0, 1828.0, 1827.0, 1826.0, 1826.0, 1825.0, 1827.0, 1827.0, 1829.0, 1827.0, 1826.0, 1827.0, 1827.0, 1828.0, 1827.0, 1828.0, 1828.0, 1831.0, 1832.0, 1832.0, 1830.0, 1829.0, 1832.0, 1835.0, 1839.0, 1839.0, 1835.0, 1832.0, 1831.0, 1831.0, 1832.0, 1831.0, 1830.0, 1828.0, 1829.0, 1831.0, 1832.0]
    },
    "slices": {}
  }
}