{
  "AcquisitionMatrixPE": 100,
  "AcquisitionNumber": 1,
  "AcquisitionTime": "15:12:57.257500",
  "BandwidthPerPixelPhaseEncode": 18.519,
  "BaseResolution": 100,
  "BodyPartExamined": "BRAIN",
  "CoilCombinationMethod": "Sum of Squares",
  "ConsistencyInfo": "N4_VE11C_LATEST_20160120",
  "ConversionSoftware": "dcm2niix",
  "ConversionSoftwareVersion": "v1.0.20211006",
  "DerivedVendorReportedEchoSpacing": 0.000539986,
  "DeviceSerialNumber": "166078",
  "DwellTime": 2.1e-06,
  "EchoTime": 0.034,
  "EchoTrainLength": 100,
  "EffectiveEchoSpacing": 0.000539986,
  "FlipAngle": 90,
  "ImageOrientationPatientDICOM": [1, 0, 0, 0, 0.973579, -0.228351],
  "ImageOrientationText": "Tra>Cor(-13.2)",
  "ImageType": [
    "ORIGINAL",
    "PRIMARY",
    "M",
    "ND",
    "MOSAIC"
],
  "ImagingFrequency": 123.258,
  "InPlanePhaseEncodingDirectionDICOM": "COL",
  "InstitutionAddress": "Street StreetNo,Bei Jing,District,CN,ZIP",
  "InstitutionName": "BeiJing Normal University",
  "InstitutionalDepartmentName": "Department",
  "MRAcquisitionType": "2D",
  "MagneticFieldStrength": 3,
  "Manufacturer": "Siemens",
  "ManufacturersModelName": "Prisma",
  "Modality": "MR",
  "MultibandAccelerationFactor": 3,
  "PartialFourier": 1,
  "PatientPosition": "HFS",
  "PercentPhaseFOV": 100,
  "PercentSampling": 100,
  "PhaseEncodingDirection": "j-",
  "PhaseEncodingSteps": 100,
  "PhaseResolution": 1,
  "PixelBandwidth": 2380,
  "ProcedureStepDescription": "BNU_P2018_64CH^Zhen.ZongLei",
  "ProtocolName": "bold_100x100_s3_2x2x2_static_156",
  "PulseSequenceDetails": "%SiemensSeq%\\ep2d_bold",
  "ReceiveCoilActiveElements": "HC1-7;NC1",
  "ReceiveCoilName": "HeadNeck_64",
  "ReconMatrixPE": 100,
  "RefLinesPE": 32,
  "RepetitionTime": 2,
  "SAR": 0.0843285,
  "ScanOptions": "FS",
  "ScanningSequence": "EP",
  "SequenceName": "*epfid2d1_100",
  "SequenceVariant": "SK",
  "SeriesDescription": "bold_100x100_s3_2x2x2_static_156",
  "SeriesNumber": 12,
  "ShimSetting": [-5481, -11471, -1239, 161, -88, -543, 3, 1],
  "SliceThickness": 2,
  "SliceTiming": [1.485, 0, 0.99, 0.0825, 1.0725, 0.165, 1.155, 0.2475, 1.2375, 0.33, 1.32, 0.4125, 1.4025, 0.5775, 1.5675, 0.66, 1.65, 0.7425, 1.7325, 0.825, 1.815, 0.9075, 1.8975, 0.495, 1.485, 0, 0.99, 0.0825, 1.0725, 0.165, 1.155, 0.2475, 1.2375, 0.33, 1.32, 0.4125, 1.4025, 0.5775, 1.5675, 0.66, 1.65, 0.7425, 1.7325, 0.825, 1.815, 0.9075, 1.8975, 0.495, 1.485, 0, 0.99, 0.0825, 1.0725, 0.165, 1.155, 0.2475, 1.2375, 0.33, 1.32, 0.4125, 1.4025, 0.5775, 1.5675, 0.66, 1.65, 0.7425, 1.7325, 0.825, 1.815, 0.9075, 1.8975, 0.495],
  "SoftwareVersions": "syngo MR E11",
  "SpacingBetweenSlices": 2,
  "StationName": "AWP166078",
  "TaskName": "action",
  "TotalReadoutTime": 0.0534586,
  "TxRefAmp": 261.79,
  "dcmmeta_affine": [
    [-2.0, 0.0, 0.0, 101.3559341430664],
    [0.0, 1.9471577405929565, -0.45670175552368164, -69.9145278930664],
    [0.0, 0.45670175552368164, 1.9471577405929565, -103.58965301513672],
    [0.0, 0.0, 0.0, 1.0]
],
  "dcmmeta_reorient_transform": [
    [0.0, -1.0, 0.0, 99.0],
    [1.0, 0.0, 0.0, 0.0],
    [0.0, 0.0, 1.0, 0.0],
    [0.0, 0.0, 0.0, 1.0]
],
  "dcmmeta_shape": [100, 100, 72, 156],
  "dcmmeta_slice_dim": 2,
  "dcmmeta_version": 0.6,
  "global": {
    "const": {
      "AcquisitionMatrix": [100, 0, 0, 100],
      "AngioFlag": "N",
      "BitsAllocated": 16,
      "BitsStored": 12,
      "BodyPartExamined": "BRAIN",
      "Columns": 900,
      "EchoNumbers": 1,
      "EchoTime": 34.0,
      "EchoTrainLength": 100,
      "FlipAngle": 90.0,
      "HighBit": 11,
      "ImageOrientationPatient": [1.0, 0.0, 0.0, 0.0, 0.97357889963852, -0.2283508839016],
      "ImagePositionPatient": [-901.35593223572, -901.71721405089, 124.3045299475],
      "ImageType": [
        "ORIGINAL",
        "PRIMARY",
        "M",
        "ND",
        "MOSAIC"
],
      "ImagedNucleus": "1H",
      "ImagingFrequency": 123.257692,
      "InPlanePhaseEncodingDirection": "COL",
      "MRAcquisitionType": "2D",
      "MagneticFieldStrength": 3.0,
      "Manufacturer": "SIEMENS",
      "ManufacturerModelName": "Prisma",
      "Modality": "MR",
      "NumberOfAverages": 1.0,
      "NumberOfPhaseEncodingSteps": 100,
      "PercentPhaseFieldOfView": 100.0,
      "PercentSampling": 100.0,
      "PerformedProcedureStepStartTime": "142555.533000",
      "PhotometricInterpretation": "MONOCHROME2",
      "PixelBandwidth": 2380.0,
      "PixelRepresentation": 0,
      "PixelSpacing": [2.0, 2.0],
      "ProtocolName": "bold_100x100_s3_2x2x2_static_156",
      "RepetitionTime": 2000.0,
      "Rows": 900,
      "SAR": 0.08432847388955,
      "SamplesPerPixel": 1,
      "ScanOptions": "FS",
      "ScanningSequence": "EP",
      "SequenceName": "*epfid2d1_100",
      "SequenceVariant": "SK",
      "SeriesDescription": "bold_100x100_s3_2x2x2_static_156",
      "SeriesNumber": 12,
      "SeriesTime": "151259.753000",
      "SliceLocation": -84.887655371463,
      "SliceThickness": 2.0,
      "SmallestImagePixelValue": 0,
      "SoftwareVersions": "syngo MR E11",
      "SpacingBetweenSlices": 1.9999999338269,
      "SpecificCharacterSet": "ISO_IR 100",
      "StudyID": "1",
      "StudyTime": "142555.425000",
      "TransmitCoilName": "Body",
      "VariableFlipAngleFlag": "N",
      "WindowCenterWidthExplanation": "Algo1",
      "dBdt": 0.0},
    "slices": {}
  },
  "time": {
    "samples": {
      "AcquisitionNumber": [1, 2, 3, 4, 5, 6, 7, 8, 9, 10, 11, 12, 13, 14, 15, 16, 17, 18, 19, 20, 21, 22, 23, 24, 25, 26, 27, 28, 29, 30, 31, 32, 33, 34, 35, 36, 37, 38, 39, 40, 41, 42, 43, 44, 45, 46, 47, 48, 49, 50, 51, 52, 53, 54, 55, 56, 57, 58, 59, 60, 61, 62, 63, 64, 65, 66, 67, 68, 69, 70, 71, 72, 73, 74, 75, 76, 77, 78, 79, 80, 81, 82, 83, 84, 85, 86, 87, 88, 89, 90, 91, 92, 93, 94, 95, 96, 97, 98, 99, 100, 101, 102, 103, 104, 105, 106, 107, 108, 109, 110, 111, 112, 113, 114, 115, 116, 117, 118, 119, 120, 121, 122, 123, 124, 125, 126, 127, 128, 129, 130, 131, 132, 133, 134, 135, 136, 137, 138, 139, 140, 141, 142, 143, 144, 145, 146, 147, 148, 149, 150, 151, 152, 153, 154, 155, 156],
      "AcquisitionTime": ["151257.257500", "151259.257500", "151301.257500", "151303.257500", "151305.257500", "151307.257500", "151309.257500", "151311.257500", "151313.257500", "151315.257500", "151317.257500", "151319.257500", "151321.257500", "151323.257500", "151325.257500", "151327.257500", "151329.257500", "151331.257500", "151333.257500", "151335.257500", "151337.257500", "151339.257500", "151341.257500", "151343.257500", "151345.257500", "151347.257500", "151349.257500", "151351.257500", "151353.257500", "151355.257500", "151357.257500", "151359.257500", "151401.257500", "151403.257500", "151405.257500", "151407.257500", "151409.257500", "151411.257500", "151413.257500", "151415.257500", "151417.257500", "151419.257500", "151421.257500", "151423.257500", "151425.257500", "151427.257500", "151429.257500", "151431.257500", "151433.257500", "151435.257500", "151437.257500", "151439.257500", "151441.257500", "151443.257500", "151445.257500", "151447.257500", "151449.257500", "151451.257500", "151453.257500", "151455.257500", "151457.257500", "151459.257500", "151501.257500", "151503.257500", "151505.257500", "151507.257500", "151509.257500", "151511.257500", "151513.257500", "151515.257500", "151517.257500", "151519.257500", "151521.257500", "151523.257500", "151525.257500", "151527.257500", "151529.257500", "151531.257500", "151533.257500", "151535.257500", "151537.257500", "151539.257500", "151541.257500", "151543.257500", "151545.257500", "151547.257500", "151549.257500", "151551.257500", "151553.257500", "151555.257500", "151557.257500", "151559.257500", "151601.257500", "151603.257500", "151605.257500", "151607.257500", "151609.257500", "151611.257500", "151613.257500", "151615.257500", "151617.257500", "151619.257500", "151621.257500", "151623.257500", "151625.257500", "151627.257500", "151629.257500", "151631.257500", "151633.257500", "151635.257500", "151637.257500", "151639.257500", "151641.257500", "151643.257500", "151645.257500", "151647.257500", "151649.257500", "151651.257500", "151653.257500", "151655.257500", "151657.257500", "151659.257500", "151701.257500", "151703.257500", "151705.257500", "151707.257500", "151709.257500", "151711.257500", "151713.257500", "151715.257500", "151717.257500", "151719.257500", "151721.257500", "151723.257500", "151725.257500", "151727.257500", "151729.257500", "151731.257500", "151733.257500", "151735.257500", "151737.257500", "151739.257500", "151741.257500", "151743.257500", "151745.257500", "151747.257500", "151749.257500", "151751.257500", "151753.257500", "151755.257500", "151757.257500", "151759.257500", "151801.257500", "151803.257500", "151805.257500", "151807.257500"],
      "ContentTime": ["151259.757000", "151301.252000", "151303.254000", "151305.253000", "151307.253000", "151309.253000", "151311.254000", "151313.253000", "151315.253000", "151317.252000", "151319.253000", "151321.253000", "151323.254000", "151325.254000", "151327.253000", "151329.254000", "151331.254000", "151333.253000", "151335.253000", "151337.254000", "151339.254000", "151341.253000", "151343.253000", "151345.253000", "151347.254000", "151349.253000", "151351.253000", "151353.253000", "151355.254000", "151357.253000", "151359.253000", "151401.254000", "151403.254000", "151405.254000", "151407.254000", "151409.252000", "151411.253000", "151413.254000", "151415.254000", "151417.254000", "151419.254000", "151421.254000", "151423.254000", "151425.253000", "151427.252000", "151429.252000", "151431.253000", "151433.253000", "151435.253000", "151437.253000", "151439.253000", "151441.253000", "151443.253000", "151445.253000", "151447.254000", "151449.254000", "151451.254000", "151453.254000", "151455.254000", "151457.254000", "151459.254000", "151501.253000", "151503.253000", "151505.254000", "151507.253000", "151509.253000", "151511.253000", "151513.253000", "151515.254000", "151517.254000", "151519.253000", "151521.253000", "151523.253000", "151525.254000", "151527.253000", "151529.254000", "151531.253000", "151533.254000", "151535.253000", "151537.252000", "151539.252000", "151541.253000", "151543.253000", "151545.253000", "151547.254000", "151549.254000", "151551.254000", "151553.254000", "151555.252000", "151557.254000", "151559.254000", "151601.254000", "151603.254000", "151605.254000", "151607.253000", "151609.254000", "151611.253000", "151613.252000", "151615.253000", "151617.253000", "151619.254000", "151621.254000", "151623.253000", "151625.254000", "151627.254000", "151629.253000", "151631.252000", "151633.253000", "151635.253000", "151637.254000", "151639.254000", "151641.254000", "151643.253000", "151645.253000", "151647.252000", "151649.253000", "151651.254000", "151653.253000", "151655.253000", "151657.254000", "151659.254000", "151701.254000", "151703.254000", "151705.252000", "151707.253000", "151709.253000", "151711.254000", "151713.253000", "151715.253000", "151717.253000", "151719.253000", "151721.253000", "151723.253000", "151725.254000", "151727.254000", "151729.274000", "151731.253000", "151733.254000", "151735.254000", "151737.254000", "151739.253000", "151741.253000", "151743.254000", "151745.254000", "151747.254000", "151749.254000", "151751.254000", "151753.254000", "151755.254000", "151757.253000", "151759.253000", "151801.254000", "151803.253000", "151805.253000", "151807.254000", "151808.964000"],
      "InstanceCreationTime": ["151259.757000", "151301.252000", "151303.254000", "151305.253000", "151307.253000", "151309.253000", "151311.254000", "151313.253000", "151315.253000", "151317.252000", "151319.253000", "151321.253000", "151323.254000", "151325.254000", "151327.253000", "151329.254000", "151331.254000", "151333.253000", "151335.253000", "151337.254000", "151339.254000", "151341.253000", "151343.253000", "151345.253000", "151347.254000", "151349.253000", "151351.253000", "151353.253000", "151355.254000", "151357.253000", "151359.253000", "151401.254000", "151403.254000", "151405.254000", "151407.254000", "151409.252000", "151411.253000", "151413.254000", "151415.254000", "151417.254000", "151419.254000", "151421.254000", "151423.254000", "151425.253000", "151427.252000", "151429.252000", "151431.253000", "151433.253000", "151435.253000", "151437.253000", "151439.253000", "151441.253000", "151443.253000", "151445.253000", "151447.254000", "151449.254000", "151451.254000", "151453.254000", "151455.254000", "151457.254000", "151459.254000", "151501.253000", "151503.253000", "151505.254000", "151507.253000", "151509.253000", "151511.253000", "151513.253000", "151515.254000", "151517.254000", "151519.253000", "151521.253000", "151523.253000", "151525.254000", "151527.253000", "151529.254000", "151531.253000", "151533.254000", "151535.253000", "151537.252000", "151539.252000", "151541.253000", "151543.253000", "151545.253000", "151547.254000", "151549.254000", "151551.254000", "151553.254000", "151555.252000", "151557.254000", "151559.254000", "151601.254000", "151603.254000", "151605.254000", "151607.253000", "151609.254000", "151611.253000", "151613.252000", "151615.253000", "151617.253000", "151619.254000", "151621.254000", "151623.253000", "151625.254000", "151627.254000", "151629.253000", "151631.252000", "151633.253000", "151635.253000", "151637.254000", "151639.254000", "151641.254000", "151643.253000", "151645.253000", "151647.252000", "151649.253000", "151651.254000", "151653.253000", "151655.253000", "151657.254000", "151659.254000", "151701.254000", "151703.254000", "151705.252000", "151707.253000", "151709.253000", "151711.254000", "151713.253000", "151715.253000", "151717.253000", "151719.253000", "151721.253000", "151723.253000", "151725.254000", "151727.254000", "151729.274000", "151731.253000", "151733.254000", "151735.254000", "151737.254000", "151739.253000", "151741.253000", "151743.254000", "151745.254000", "151747.254000", "151749.254000", "151751.254000", "151753.254000", "151755.254000", "151757.253000", "151759.253000", "151801.254000", "151803.253000", "151805.253000", "151807.254000", "151808.964000"],
      "InstanceNumber": [1, 2, 3, 4, 5, 6, 7, 8, 9, 10, 11, 12, 13, 14, 15, 16, 17, 18, 19, 20, 21, 22, 23, 24, 25, 26, 27, 28, 29, 30, 31, 32, 33, 34, 35, 36, 37, 38, 39, 40, 41, 42, 43, 44, 45, 46, 47, 48, 49, 50, 51, 52, 53, 54, 55, 56, 57, 58, 59, 60, 61, 62, 63, 64, 65, 66, 67, 68, 69, 70, 71, 72, 73, 74, 75, 76, 77, 78, 79, 80, 81, 82, 83, 84, 85, 86, 87, 88, 89, 90, 91, 92, 93, 94, 95, 96, 97, 98, 99, 100, 101, 102, 103, 104, 105, 106, 107, 108, 109, 110, 111, 112, 113, 114, 115, 116, 117, 118, 119, 120, 121, 122, 123, 124, 125, 126, 127, 128, 129, 130, 131, 132, 133, 134, 135, 136, 137, 138, 139, 140, 141, 142, 143, 144, 145, 146, 147, 148, 149, 150, 151, 152, 153, 154, 155, 156],
      "LargestImagePixelValue": [2978, 2873, 2891, 2885, 2937, 2902, 2848, 2870, 2862, 2909, 2894, 2866, 2873, 2859, 2914, 2875, 2876, 2905, 2919, 2871, 2827, 2868, 2985, 2854, 2875, 2877, 2963, 2875, 2872, 2837, 2881, 2999, 2918, 2927, 2902, 2908, 2879, 2893, 2870, 2889, 2881, 2894, 2924, 2878, 2813, 2896, 2936, 2908, 2948, 2939, 2919, 2867, 2854, 2901, 2907, 2967, 2919, 2917, 2906, 2931, 2910, 2959, 2901, 3028, 2923, 2916, 2846, 2984, 2906, 2940, 2914, 2984, 2959, 3018, 2935, 2950, 2943, 2949, 2945, 2949, 2930, 2943, 2956, 2949, 2930, 2930, 2962, 2998, 2944, 2961, 2974, 2994, 2984, 2958, 2981, 2983, 2936, 2936, 2905, 2941, 2961, 2942, 2978, 2906, 2955, 2991, 2976, 2991, 2960, 2955, 2966, 2956, 2960, 3022, 2936, 2962, 2983, 2984, 2967, 2955, 2970, 2909, 2931, 2982, 2933, 2962, 2983, 2935, 2966, 2982, 2951, 2977, 2914, 2911, 2926, 2964, 2993, 2978, 2931, 2954, 2994, 2977, 2966, 2963, 2971, 2995, 2983, 2970, 2965, 2932, 2923, 2950, 2940, 2968, 3056, 3003],
      "WindowCenter": [787.0, 785.0, 788.0, 787.0, 787.0, 786.0, 785.0, 786.0, 785.0, 786.0, 787.0, 788.0, 786.0, 785.0, 788.0, 788.0, 788.0, 787.0, 786.0, 784.0, 782.0, 784.0, 785.0, 783.0, 784.0, 785.0, 786.0, 784.0, 785.0, 783.0, 783.0, 784.0, 784.0, 785.0, 785.0, 786.0, 785.0, 785.0, 785.0, 784.0, 785.0, 786.0, 786.0, 785.0, 783.0, 784.0, 784.0, 784.0, 786.0, 786.0, 785.0, 785.0, 785.0, 783.0, 783.0, 784.0, 785.0, 784.0, 784.0, 783.0, 783.0, 783.0, 783.0, 786.0, 784.0, 783.0, 782.0, 785.0, 784.0, 784.0, 783.0, 783.0, 784.0, 786.0, 784.0, 785.0, 785.0, 785.0, 784.0, 783.0, 783.0, 783.0, 784.0, 784.0, 785.0, 785.0, 785.0, 785.0, 785.0, 787.0, 788.0, 789.0, 787.0, 785.0, 783.0, 782.0, 781.0, 780.0, 782.0, 784.0, 785.0, 785.0, 783.0, 782.0, 784.0, 784.0, 785.0, 785.0, 785.0, 784.0, 784.0, 784.0, 784.0, 786.0, 787.0, 788.0, 787.0, 784.0, 782.0, 783.0, 783.0, 782.0, 784.0, 786.0, 785.0, 785.0, 785.0, 784.0, 785.0, 785.0, 784.0, 784.0, 784.0, 784.0, 784.0, 785.0, 785.0, 784.0, 782.0, 782.0, 783.0, 783.0, 783.0, 783.0, 784.0, 785.0, 785.0, 786.0, 787.0, 785.0, 785.0, 785.0, 784.0, 785.0, 788.0, 784.0],
      "WindowWidth": [1672.0, 1669.0, 1673.0, 1672.0, 1671.0, 1669.0, 1666.0, 1669.0, 1668.0, 1670.0, 1673.0, 1673.0, 1670.0, 1668.0, 1673.0, 1675.0, 1674.0, 1672.0, 1670.0, 1664.0, 1660.0, 1664.0, 1667.0, 1663.0, 1665.0, 1666.0, 1669.0, 1665.0, 1666.0, 1661.0, 1662.0, 1665.0, 1666.0, 1668.0, 1668.0, 1668.0, 1667.0, 1666.0, 1667.0, 1664.0, 1667.0, 1671.0, 1671.0, 1667.0, 1662.0, 1664.0, 1665.0, 1666.0, 1669.0, 1669.0, 1666.0, 1666.0, 1666.0, 1663.0, 1662.0, 1666.0, 1666.0, 1665.0, 1664.0, 1662.0, 1661.0, 1663.0, 1663.0, 1668.0, 1665.0, 1663.0, 1660.0, 1668.0, 1666.0, 1664.0, 1662.0, 1663.0, 1665.0, 1668.0, 1665.0, 1666.0, 1666.0, 1666.0, 1664.0, 1662.0, 1662.0, 1661.0, 1664.0, 1665.0, 1667.0, 1667.0, 1666.0, 1668.0, 1667.0, 1671.0, 1675.0, 1676.0, 1671.0, 1666.0, 1663.0, 1659.0, 1656.0, 1656.0, 1658.0, 1663.0, 1666.0, 1666.0, 1662.0, 1659.0, 1665.0, 1665.0, 1666.0, 1667.0, 1666.0, 1665.0, 1665.0, 1665.0, 1665.0, 1669.0, 1671.0, 1673.0, 1671.0, 1664.0, 1661.0, 1662.0, 1661.0, 1659.0, 1666.0, 1670.0, 1667.0, 1666.0, 1665.0, 1663.0, 1666.0, 1667.0, 1665.0, 1665.0, 1664.0, 1664.0, 1664.0, 1667.0, 1667.0, 1663.0, 1660.0, 1659.0, 1662.0, 1662.0, 1661.0, 1661.0, 1665.0, 1667.0, 1667.0, 1668.0, 1671.0, 1667.0, 1666.0, 1666.0, 1663.0, 1668.0, 1673.0, 1665.0]
    },
    "slices": {}
  }
}