{
  "AcquisitionMatrixPE": 100,
  "AcquisitionNumber": 1,
  "AcquisitionTime": "15:36:6.862500",
  "BandwidthPerPixelPhaseEncode": 18.519,
  "BaseResolution": 100,
  "BodyPartExamined": "BRAIN",
  "CoilCombinationMethod": "Sum of Squares",
  "ConsistencyInfo": "N4_VE11C_LATEST_20160120",
  "ConversionSoftware": "dcm2niix",
  "ConversionSoftwareVersion": "v1.0.20211006",
  "DerivedVendorReportedEchoSpacing": 0.000539986,
  "DeviceSerialNumber": "166078",
  "DwellTime": 2.1e-06,
  "EchoTime": 0.034,
  "EchoTrainLength": 100,
  "EffectiveEchoSpacing": 0.000539986,
  "FlipAngle": 90,
  "ImageOrientationPatientDICOM": [1, 0, 0, 0, 0.973579, -0.228351],
  "ImageOrientationText": "Tra>Cor(-13.2)",
  "ImageType": [
    "ORIGINAL",
    "PRIMARY",
    "M",
    "ND",
    "MOSAIC"
],
  "ImagingFrequency": 123.258,
  "InPlanePhaseEncodingDirectionDICOM": "COL",
  "InstitutionAddress": "Street StreetNo,Bei Jing,District,CN,ZIP",
  "InstitutionName": "BeiJing Normal University",
  "InstitutionalDepartmentName": "Department",
  "MRAcquisitionType": "2D",
  "MagneticFieldStrength": 3,
  "Manufacturer": "Siemens",
  "ManufacturersModelName": "Prisma",
  "Modality": "MR",
  "MultibandAccelerationFactor": 3,
  "PartialFourier": 1,
  "PatientPosition": "HFS",
  "PercentPhaseFOV": 100,
  "PercentSampling": 100,
  "PhaseEncodingDirection": "j-",
  "PhaseEncodingSteps": 100,
  "PhaseResolution": 1,
  "PixelBandwidth": 2380,
  "ProcedureStepDescription": "BNU_P2018_64CH^Zhen.ZongLei",
  "ProtocolName": "bold_100x100_s3_2x2x2_static_156",
  "PulseSequenceDetails": "%SiemensSeq%\\ep2d_bold",
  "ReceiveCoilActiveElements": "HC1-7;NC1",
  "ReceiveCoilName": "HeadNeck_64",
  "ReconMatrixPE": 100,
  "RefLinesPE": 32,
  "RepetitionTime": 2,
  "SAR": 0.0843285,
  "ScanOptions": "FS",
  "ScanningSequence": "EP",
  "SequenceName": "*epfid2d1_100",
  "SequenceVariant": "SK",
  "SeriesDescription": "bold_100x100_s3_2x2x2_static_156",
  "SeriesNumber": 16,
  "ShimSetting": [-5481, -11471, -1239, 161, -88, -543, 3, 1],
  "SliceThickness": 2,
  "SliceTiming": [1.485, 0, 0.99, 0.0825, 1.0725, 0.165, 1.155, 0.2475, 1.2375, 0.33, 1.32, 0.4125, 1.4025, 0.5775, 1.5675, 0.66, 1.65, 0.7425, 1.7325, 0.825, 1.815, 0.9075, 1.8975, 0.495, 1.485, 0, 0.99, 0.0825, 1.0725, 0.165, 1.155, 0.2475, 1.2375, 0.33, 1.32, 0.4125, 1.4025, 0.5775, 1.5675, 0.66, 1.65, 0.7425, 1.7325, 0.825, 1.815, 0.9075, 1.8975, 0.495, 1.485, 0, 0.99, 0.0825, 1.0725, 0.165, 1.155, 0.2475, 1.2375, 0.33, 1.32, 0.4125, 1.4025, 0.5775, 1.5675, 0.66, 1.65, 0.7425, 1.7325, 0.825, 1.815, 0.9075, 1.8975, 0.495],
  "SoftwareVersions": "syngo MR E11",
  "SpacingBetweenSlices": 2,
  "StationName": "AWP166078",
  "TaskName": "action",
  "TotalReadoutTime": 0.0534586,
  "TxRefAmp": 261.79,
  "dcmmeta_affine": [
    [-2.0, 0.0, 0.0, 101.3559341430664],
    [0.0, 1.9471577405929565, -0.45670175552368164, -69.9145278930664],
    [0.0, 0.45670175552368164, 1.9471577405929565, -103.58965301513672],
    [0.0, 0.0, 0.0, 1.0]
],
  "dcmmeta_reorient_transform": [
    [0.0, -1.0, 0.0, 99.0],
    [1.0, 0.0, 0.0, 0.0],
    [0.0, 0.0, 1.0, 0.0],
    [0.0, 0.0, 0.0, 1.0]
],
  "dcmmeta_shape": [100, 100, 72, 156],
  "dcmmeta_slice_dim": 2,
  "dcmmeta_version": 0.6,
  "global": {
    "const": {
      "AcquisitionMatrix": [100, 0, 0, 100],
      "AngioFlag": "N",
      "BitsAllocated": 16,
      "BitsStored": 12,
      "BodyPartExamined": "BRAIN",
      "Columns": 900,
      "EchoNumbers": 1,
      "EchoTime": 34.0,
      "EchoTrainLength": 100,
      "FlipAngle": 90.0,
      "HighBit": 11,
      "ImageOrientationPatient": [1.0, 0.0, 0.0, 0.0, 0.97357889963852, -0.2283508839016],
      "ImagePositionPatient": [-901.35593223572, -901.71721405089, 124.3045299475],
      "ImageType": [
        "ORIGINAL",
        "PRIMARY",
        "M",
        "ND",
        "MOSAIC"
],
      "ImagedNucleus": "1H",
      "ImagingFrequency": 123.257696,
      "InPlanePhaseEncodingDirection": "COL",
      "MRAcquisitionType": "2D",
      "MagneticFieldStrength": 3.0,
      "Manufacturer": "SIEMENS",
      "ManufacturerModelName": "Prisma",
      "Modality": "MR",
      "NumberOfAverages": 1.0,
      "NumberOfPhaseEncodingSteps": 100,
      "PercentPhaseFieldOfView": 100.0,
      "PercentSampling": 100.0,
      "PerformedProcedureStepStartTime": "142555.533000",
      "PhotometricInterpretation": "MONOCHROME2",
      "PixelBandwidth": 2380.0,
      "PixelRepresentation": 0,
      "PixelSpacing": [2.0, 2.0],
      "ProtocolName": "bold_100x100_s3_2x2x2_static_156",
      "RepetitionTime": 2000.0,
      "Rows": 900,
      "SAR": 0.08432847388955,
      "SamplesPerPixel": 1,
      "ScanOptions": "FS",
      "ScanningSequence": "EP",
      "SequenceName": "*epfid2d1_100",
      "SequenceVariant": "SK",
      "SeriesDescription": "bold_100x100_s3_2x2x2_static_156",
      "SeriesNumber": 16,
      "SeriesTime": "153609.513000",
      "SliceLocation": -84.887655371463,
      "SliceThickness": 2.0,
      "SmallestImagePixelValue": 0,
      "SoftwareVersions": "syngo MR E11",
      "SpacingBetweenSlices": 1.9999999338269,
      "SpecificCharacterSet": "ISO_IR 100",
      "StudyID": "1",
      "StudyTime": "142555.425000",
      "TransmitCoilName": "Body",
      "VariableFlipAngleFlag": "N",
      "WindowCenterWidthExplanation": "Algo1",
      "dBdt": 0.0},
    "slices": {}
  },
  "time": {
    "samples": {
      "AcquisitionNumber": [1, 2, 3, 4, 5, 6, 7, 8, 9, 10, 11, 12, 13, 14, 15, 16, 17, 18, 19, 20, 21, 22, 23, 24, 25, 26, 27, 28, 29, 30, 31, 32, 33, 34, 35, 36, 37, 38, 39, 40, 41, 42, 43, 44, 45, 46, 47, 48, 49, 50, 51, 52, 53, 54, 55, 56, 57, 58, 59, 60, 61, 62, 63, 64, 65, 66, 67, 68, 69, 70, 71, 72, 73, 74, 75, 76, 77, 78, 79, 80, 81, 82, 83, 84, 85, 86, 87, 88, 89, 90, 91, 92, 93, 94, 95, 96, 97, 98, 99, 100, 101, 102, 103, 104, 105, 106, 107, 108, 109, 110, 111, 112, 113, 114, 115, 116, 117, 118, 119, 120, 121, 122, 123, 124, 125, 126, 127, 128, 129, 130, 131, 132, 133, 134, 135, 136, 137, 138, 139, 140, 141, 142, 143, 144, 145, 146, 147, 148, 149, 150, 151, 152, 153, 154, 155, 156],
      "AcquisitionTime": ["153606.862500", "153608.862500", "153610.862500", "153612.862500", "153614.862500", "153616.862500", "153618.862500", "153620.862500", "153622.862500", "153624.862500", "153626.862500", "153628.862500", "153630.862500", "153632.862500", "153634.862500", "153636.862500", "153638.862500", "153640.862500", "153642.862500", "153644.862500", "153646.862500", "153648.862500", "153650.862500", "153652.862500", "153654.862500", "153656.862500", "153658.862500", "153700.862500", "153702.862500", "153704.862500", "153706.862500", "153708.862500", "153710.862500", "153712.862500", "153714.862500", "153716.862500", "153718.862500", "153720.862500", "153722.862500", "153724.862500", "153726.862500", "153728.862500", "153730.862500", "153732.862500", "153734.862500", "153736.862500", "153738.862500", "153740.862500", "153742.862500", "153744.862500", "153746.862500", "153748.862500", "153750.862500", "153752.862500", "153754.862500", "153756.862500", "153758.862500", "153800.862500", "153802.862500", "153804.862500", "153806.862500", "153808.862500", "153810.862500", "153812.862500", "153814.862500", "153816.862500", "153818.862500", "153820.862500", "153822.862500", "153824.862500", "153826.862500", "153828.862500", "153830.862500", "153832.862500", "153834.862500", "153836.862500", "153838.862500", "153840.862500", "153842.862500", "153844.862500", "153846.862500", "153848.862500", "153850.862500", "153852.862500", "153854.862500", "153856.862500", "153858.862500", "153900.862500", "153902.862500", "153904.862500", "153906.862500", "153908.862500", "153910.862500", "153912.862500", "153914.862500", "153916.862500", "153918.862500", "153920.862500", "153922.862500", "153924.862500", "153926.862500", "153928.862500", "153930.862500", "153932.862500", "153934.862500", "153936.862500", "153938.862500", "153940.862500", "153942.862500", "153944.862500", "153946.862500", "153948.862500", "153950.862500", "153952.862500", "153954.862500", "153956.862500", "153958.862500", "154000.862500", "154002.862500", "154004.862500", "154006.862500", "154008.862500", "154010.862500", "154012.862500", "154014.862500", "154016.862500", "154018.862500", "154020.862500", "154022.862500", "154024.862500", "154026.862500", "154028.862500", "154030.862500", "154032.862500", "154034.862500", "154036.862500", "154038.862500", "154040.862500", "154042.862500", "154044.862500", "154046.862500", "154048.862500", "154050.862500", "154052.862500", "154054.862500", "154056.862500", "154058.862500", "154100.862500", "154102.862500", "154104.862500", "154106.862500", "154108.862500", "154110.862500", "154112.862500", "154114.862500", "154116.862500"],
      "ContentTime": ["153609.517000", "153611.013000", "153613.012000", "153615.012000", "153617.012000", "153619.013000", "153621.014000", "153623.013000", "153625.014000", "153627.012000", "153629.012000", "153631.013000", "153633.012000", "153635.012000", "153637.012000", "153639.013000", "153641.014000", "153643.012000", "153645.012000", "153647.013000", "153649.013000", "153651.013000", "153653.012000", "153655.013000", "153657.013000", "153659.014000", "153701.012000", "153703.012000", "153705.012000", "153707.012000", "153709.013000", "153711.013000", "153713.013000", "153715.014000", "153717.013000", "153719.012000", "153721.012000", "153723.012000", "153725.012000", "153727.012000", "153729.012000", "153731.013000", "153733.014000", "153735.014000", "153737.013000", "153739.013000", "153741.012000", "153743.012000", "153745.012000", "153747.012000", "153749.013000", "153751.013000", "153753.012000", "153755.012000", "153757.013000", "153759.013000", "153801.012000", "153803.012000", "153805.013000", "153807.013000", "153809.013000", "153811.013000", "153813.012000", "153815.012000", "153817.013000", "153819.012000", "153821.012000", "153823.013000", "153825.014000", "153827.014000", "153829.013000", "153831.013000", "153833.013000", "153835.012000", "153837.012000", "153839.013000", "153841.013000", "153843.014000", "153845.013000", "153847.013000", "153849.013000", "153851.013000", "153853.012000", "153855.013000", "153857.013000", "153859.013000", "153901.013000", "153903.012000", "153905.012000", "153907.012000", "153909.012000", "153911.013000", "153913.012000", "153915.012000", "153917.013000", "153919.013000", "153921.012000", "153923.012000", "153925.012000", "153927.012000", "153929.012000", "153931.012000", "153933.012000", "153935.013000", "153937.013000", "153939.012000", "153941.013000", "153943.012000", "153945.012000", "153947.012000", "153949.012000", "153951.013000", "153953.013000", "153955.013000", "153957.012000", "153959.013000", "154001.013000", "154003.013000", "154005.013000", "154007.013000", "154009.014000", "154011.028000", "154013.013000", "154015.012000", "154017.013000", "154019.013000", "154021.013000", "154023.012000", "154025.012000", "154027.014000", "154029.014000", "154031.013000", "154033.013000", "154035.012000", "154037.013000", "154039.013000", "154041.013000", "154043.012000", "154045.014000", "154047.013000", "154049.012000", "154051.013000", "154053.013000", "154055.012000", "154057.013000", "154059.013000", "154101.014000", "154103.013000", "154105.014000", "154107.012000", "154109.012000", "154111.012000", "154113.013000", "154115.012000", "154117.013000", "154118.800000"],
      "InstanceCreationTime": ["153609.517000", "153611.013000", "153613.012000", "153615.012000", "153617.012000", "153619.013000", "153621.014000", "153623.013000", "153625.014000", "153627.012000", "153629.012000", "153631.013000", "153633.012000", "153635.012000", "153637.012000", "153639.013000", "153641.014000", "153643.012000", "153645.012000", "153647.013000", "153649.013000", "153651.013000", "153653.012000", "153655.013000", "153657.013000", "153659.014000", "153701.012000", "153703.012000", "153705.012000", "153707.012000", "153709.013000", "153711.013000", "153713.013000", "153715.014000", "153717.013000", "153719.012000", "153721.012000", "153723.012000", "153725.012000", "153727.012000", "153729.012000", "153731.013000", "153733.014000", "153735.014000", "153737.013000", "153739.013000", "153741.012000", "153743.012000", "153745.012000", "153747.012000", "153749.013000", "153751.013000", "153753.012000", "153755.012000", "153757.013000", "153759.013000", "153801.012000", "153803.012000", "153805.013000", "153807.013000", "153809.013000", "153811.013000", "153813.012000", "153815.012000", "153817.013000", "153819.012000", "153821.012000", "153823.013000", "153825.014000", "153827.014000", "153829.013000", "153831.013000", "153833.013000", "153835.012000", "153837.012000", "153839.013000", "153841.013000", "153843.014000", "153845.013000", "153847.013000", "153849.013000", "153851.013000", "153853.012000", "153855.013000", "153857.013000", "153859.013000", "153901.013000", "153903.012000", "153905.012000", "153907.012000", "153909.012000", "153911.013000", "153913.012000", "153915.012000", "153917.013000", "153919.013000", "153921.012000", "153923.012000", "153925.012000", "153927.012000", "153929.012000", "153931.012000", "153933.012000", "153935.013000", "153937.013000", "153939.012000", "153941.013000", "153943.012000", "153945.012000", "153947.012000", "153949.012000", "153951.013000", "153953.013000", "153955.013000", "153957.012000", "153959.013000", "154001.013000", "154003.013000", "154005.013000", "154007.013000", "154009.014000", "154011.028000", "154013.013000", "154015.012000", "154017.013000", "154019.013000", "154021.013000", "154023.012000", "154025.012000", "154027.014000", "154029.014000", "154031.013000", "154033.013000", "154035.012000", "154037.013000", "154039.013000", "154041.013000", "154043.012000", "154045.014000", "154047.013000", "154049.012000", "154051.013000", "154053.013000", "154055.012000", "154057.013000", "154059.013000", "154101.014000", "154103.013000", "154105.014000", "154107.012000", "154109.012000", "154111.012000", "154113.013000", "154115.012000", "154117.013000", "154118.800000"],
      "InstanceNumber": [1, 2, 3, 4, 5, 6, 7, 8, 9, 10, 11, 12, 13, 14, 15, 16, 17, 18, 19, 20, 21, 22, 23, 24, 25, 26, 27, 28, 29, 30, 31, 32, 33, 34, 35, 36, 37, 38, 39, 40, 41, 42, 43, 44, 45, 46, 47, 48, 49, 50, 51, 52, 53, 54, 55, 56, 57, 58, 59, 60, 61, 62, 63, 64, 65, 66, 67, 68, 69, 70, 71, 72, 73, 74, 75, 76, 77, 78, 79, 80, 81, 82, 83, 84, 85, 86, 87, 88, 89, 90, 91, 92, 93, 94, 95, 96, 97, 98, 99, 100, 101, 102, 103, 104, 105, 106, 107, 108, 109, 110, 111, 112, 113, 114, 115, 116, 117, 118, 119, 120, 121, 122, 123, 124, 125, 126, 127, 128, 129, 130, 131, 132, 133, 134, 135, 136, 137, 138, 139, 140, 141, 142, 143, 144, 145, 146, 147, 148, 149, 150, 151, 152, 153, 154, 155, 156],
      "LargestImagePixelValue": [2956, 2873, 2901, 2841, 3039, 3001, 2962, 2844, 2813, 2876, 2852, 2856, 3005, 2911, 2915, 2899, 2869, 3048, 2901, 2913, 2926, 3002, 2990, 2955, 2898, 2937, 2877, 2912, 2845, 2877, 2962, 2942, 2887, 2900, 2909, 2922, 2932, 2955, 2953, 2916, 2888, 2856, 3013, 3084, 2884, 2894, 2852, 2837, 2900, 2896, 2896, 2866, 2894, 2918, 2906, 2848, 2850, 2916, 2919, 2980, 2887, 2920, 2944, 2921, 2904, 2864, 2893, 2933, 2863, 2911, 2880, 2925, 2920, 2916, 2918, 2954, 2947, 2928, 2933, 2925, 2959, 2966, 3028, 2987, 2945, 2972, 2996, 2961, 2910, 2951, 2952, 2949, 2946, 2945, 2944, 2957, 2951, 2951, 2958, 2956, 2887, 2922, 2930, 2973, 2950, 2946, 2964, 2937, 2952, 2906, 2897, 2931, 2906, 2932, 2889, 2941, 2944, 2921, 2910, 2946, 2960, 2965, 2955, 2947, 2951, 2950, 2971, 2874, 2943, 2944, 2923, 2894, 2904, 2940, 2906, 2917, 2915, 2948, 2913, 2932, 2898, 2902, 2907, 2913, 2965, 2918, 2853, 2917, 2945, 2943, 2934, 2885, 2867, 2847, 2841, 2875],
      "WindowCenter": [789.0, 786.0, 786.0, 784.0, 787.0, 788.0, 787.0, 784.0, 784.0, 785.0, 786.0, 785.0, 787.0, 786.0, 785.0, 784.0, 784.0, 787.0, 785.0, 785.0, 785.0, 786.0, 787.0, 786.0, 785.0, 785.0, 784.0, 785.0, 784.0, 783.0, 785.0, 784.0, 785.0, 784.0, 783.0, 783.0, 783.0, 784.0, 785.0, 785.0, 784.0, 782.0, 783.0, 786.0, 784.0, 784.0, 785.0, 783.0, 785.0, 784.0, 783.0, 782.0, 784.0, 785.0, 784.0, 783.0, 782.0, 782.0, 783.0, 785.0, 785.0, 785.0, 785.0, 785.0, 785.0, 784.0, 784.0, 785.0, 785.0, 786.0, 785.0, 784.0, 784.0, 782.0, 783.0, 784.0, 784.0, 783.0, 784.0, 784.0, 785.0, 785.0, 786.0, 784.0, 784.0, 785.0, 785.0, 784.0, 783.0, 784.0, 784.0, 783.0, 784.0, 783.0, 783.0, 783.0, 784.0, 784.0, 784.0, 784.0, 783.0, 784.0, 783.0, 783.0, 784.0, 784.0, 785.0, 785.0, 785.0, 784.0, 784.0, 784.0, 783.0, 784.0, 785.0, 785.0, 785.0, 783.0, 783.0, 782.0, 784.0, 784.0, 785.0, 784.0, 785.0, 785.0, 785.0, 783.0, 784.0, 783.0, 782.0, 783.0, 784.0, 785.0, 785.0, 784.0, 784.0, 784.0, 784.0, 785.0, 785.0, 784.0, 784.0, 784.0, 784.0, 784.0, 784.0, 786.0, 786.0, 785.0, 784.0, 783.0, 782.0, 781.0, 781.0, 783.0],
      "WindowWidth": [1676.0, 1670.0, 1669.0, 1665.0, 1672.0, 1674.0, 1671.0, 1665.0, 1665.0, 1668.0, 1669.0, 1667.0, 1671.0, 1669.0, 1667.0, 1665.0, 1664.0, 1670.0, 1666.0, 1667.0, 1666.0, 1669.0, 1671.0, 1668.0, 1666.0, 1666.0, 1664.0, 1666.0, 1663.0, 1663.0, 1665.0, 1665.0, 1666.0, 1663.0, 1661.0, 1661.0, 1663.0, 1664.0, 1668.0, 1667.0, 1664.0, 1660.0, 1661.0, 1668.0, 1664.0, 1665.0, 1666.0, 1663.0, 1666.0, 1663.0, 1660.0, 1660.0, 1665.0, 1666.0, 1664.0, 1661.0, 1660.0, 1660.0, 1663.0, 1667.0, 1666.0, 1666.0, 1668.0, 1667.0, 1666.0, 1664.0, 1664.0, 1666.0, 1667.0, 1669.0, 1666.0, 1665.0, 1663.0, 1660.0, 1661.0, 1663.0, 1663.0, 1662.0, 1664.0, 1665.0, 1666.0, 1665.0, 1668.0, 1665.0, 1664.0, 1665.0, 1665.0, 1664.0, 1661.0, 1664.0, 1664.0, 1662.0, 1663.0, 1661.0, 1661.0, 1662.0, 1663.0, 1664.0, 1664.0, 1662.0, 1661.0, 1663.0, 1661.0, 1662.0, 1664.0, 1663.0, 1666.0, 1665.0, 1665.0, 1663.0, 1664.0, 1664.0, 1662.0, 1664.0, 1667.0, 1667.0, 1665.0, 1662.0, 1660.0, 1659.0, 1663.0, 1664.0, 1666.0, 1664.0, 1665.0, 1666.0, 1666.0, 1661.0, 1662.0, 1661.0, 1660.0, 1662.0, 1664.0, 1667.0, 1666.0, 1664.0, 1663.0, 1664.0, 1662.0, 1664.0, 1665.0, 1663.0, 1663.0, 1663.0, 1664.0, 1663.0, 1664.0, 1668.0, 1669.0, 1665.0, 1662.0, 1662.0, 1659.0, 1656.0, 1656.0, 1662.0]
    },
    "slices": {}
  }
}