{
  "AcquisitionMatrixPE": 100,
  "AcquisitionNumber": 1,
  "AcquisitionTime": "14:34:44.255000",
  "BandwidthPerPixelPhaseEncode": 18.519,
  "BaseResolution": 100,
  "BodyPartExamined": "BRAIN",
  "CoilCombinationMethod": "Sum of Squares",
  "ConsistencyInfo": "N4_VE11C_LATEST_20160120",
  "ConversionSoftware": "dcm2niix",
  "ConversionSoftwareVersion": "v1.0.20211006",
  "DerivedVendorReportedEchoSpacing": 0.000539986,
  "DeviceSerialNumber": "166078",
  "DwellTime": 2.1e-06,
  "EchoTime": 0.034,
  "EchoTrainLength": 100,
  "EffectiveEchoSpacing": 0.000539986,
  "FlipAngle": 90,
  "ImageOrientationPatientDICOM": [1, 0, 0, 0, 0.973579, -0.228351],
  "ImageOrientationText": "Tra>Cor(-13.2)",
  "ImageType": [
    "ORIGINAL",
    "PRIMARY",
    "M",
    "ND",
    "MOSAIC"
],
  "ImagingFrequency": 123.258,
  "InPlanePhaseEncodingDirectionDICOM": "COL",
  "InstitutionAddress": "Street StreetNo,Bei Jing,District,CN,ZIP",
  "InstitutionName": "BeiJing Normal University",
  "InstitutionalDepartmentName": "Department",
  "MRAcquisitionType": "2D",
  "MagneticFieldStrength": 3,
  "Manufacturer": "Siemens",
  "ManufacturersModelName": "Prisma",
  "Modality": "MR",
  "MultibandAccelerationFactor": 3,
  "PartialFourier": 1,
  "PatientPosition": "HFS",
  "PercentPhaseFOV": 100,
  "PercentSampling": 100,
  "PhaseEncodingDirection": "j-",
  "PhaseEncodingSteps": 100,
  "PhaseResolution": 1,
  "PixelBandwidth": 2380,
  "ProcedureStepDescription": "BNU_P2018_64CH^Zhen.ZongLei",
  "ProtocolName": "bold_100x100_s3_2x2x2_static_156",
  "PulseSequenceDetails": "%SiemensSeq%\\ep2d_bold",
  "ReceiveCoilActiveElements": "HC1-7;NC1",
  "ReceiveCoilName": "HeadNeck_64",
  "ReconMatrixPE": 100,
  "RefLinesPE": 32,
  "RepetitionTime": 2,
  "SAR": 0.0843285,
  "ScanOptions": "FS",
  "ScanningSequence": "EP",
  "SequenceName": "*epfid2d1_100",
  "SequenceVariant": "SK",
  "SeriesDescription": "bold_100x100_s3_2x2x2_static_156",
  "SeriesNumber": 4,
  "ShimSetting": [-5481, -11471, -1239, 161, -88, -543, 3, 1],
  "SliceThickness": 2,
  "SliceTiming": [1.485, 0, 0.99, 0.0825, 1.0725, 0.165, 1.155, 0.2475, 1.2375, 0.33, 1.32, 0.4125, 1.4025, 0.5775, 1.5675, 0.66, 1.65, 0.7425, 1.7325, 0.825, 1.815, 0.9075, 1.8975, 0.495, 1.485, 0, 0.99, 0.0825, 1.0725, 0.165, 1.155, 0.2475, 1.2375, 0.33, 1.32, 0.4125, 1.4025, 0.5775, 1.5675, 0.66, 1.65, 0.7425, 1.7325, 0.825, 1.815, 0.9075, 1.8975, 0.495, 1.485, 0, 0.99, 0.0825, 1.0725, 0.165, 1.155, 0.2475, 1.2375, 0.33, 1.32, 0.4125, 1.4025, 0.5775, 1.5675, 0.66, 1.65, 0.7425, 1.7325, 0.825, 1.815, 0.9075, 1.8975, 0.495],
  "SoftwareVersions": "syngo MR E11",
  "SpacingBetweenSlices": 2,
  "StationName": "AWP166078",
  "TaskName": "action",
  "TotalReadoutTime": 0.0534586,
  "TxRefAmp": 261.79,
  "dcmmeta_affine": [
    [-2.0, 0.0, 0.0, 101.3559341430664],
    [0.0, 1.9471577405929565, -0.45670175552368164, -69.9145278930664],
    [0.0, 0.45670175552368164, 1.9471577405929565, -103.58965301513672],
    [0.0, 0.0, 0.0, 1.0]
],
  "dcmmeta_reorient_transform": [
    [0.0, -1.0, 0.0, 99.0],
    [1.0, 0.0, 0.0, 0.0],
    [0.0, 0.0, 1.0, 0.0],
    [0.0, 0.0, 0.0, 1.0]
],
  "dcmmeta_shape": [100, 100, 72, 156],
  "dcmmeta_slice_dim": 2,
  "dcmmeta_version": 0.6,
  "global": {
    "const": {
      "AcquisitionMatrix": [100, 0, 0, 100],
      "AngioFlag": "N",
      "BitsAllocated": 16,
      "BitsStored": 12,
      "BodyPartExamined": "BRAIN",
      "Columns": 900,
      "EchoNumbers": 1,
      "EchoTime": 34.0,
      "EchoTrainLength": 100,
      "FlipAngle": 90.0,
      "HighBit": 11,
      "ImageOrientationPatient": [1.0, 0.0, 0.0, 0.0, 0.97357889963852, -0.2283508839016],
      "ImagePositionPatient": [-901.35593223572, -901.71721405089, 124.3045299475],
      "ImageType": [
        "ORIGINAL",
        "PRIMARY",
        "M",
        "ND",
        "MOSAIC"
],
      "ImagedNucleus": "1H",
      "ImagingFrequency": 123.257685,
      "InPlanePhaseEncodingDirection": "COL",
      "MRAcquisitionType": "2D",
      "MagneticFieldStrength": 3.0,
      "Manufacturer": "SIEMENS",
      "ManufacturerModelName": "Prisma",
      "Modality": "MR",
      "NumberOfAverages": 1.0,
      "NumberOfPhaseEncodingSteps": 100,
      "PercentPhaseFieldOfView": 100.0,
      "PercentSampling": 100.0,
      "PerformedProcedureStepStartTime": "142555.533000",
      "PhotometricInterpretation": "MONOCHROME2",
      "PixelBandwidth": 2380.0,
      "PixelRepresentation": 0,
      "PixelSpacing": [2.0, 2.0],
      "ProtocolName": "bold_100x100_s3_2x2x2_static_156",
      "RepetitionTime": 2000.0,
      "Rows": 900,
      "SAR": 0.08432847388955,
      "SamplesPerPixel": 1,
      "ScanOptions": "FS",
      "ScanningSequence": "EP",
      "SequenceName": "*epfid2d1_100",
      "SequenceVariant": "SK",
      "SeriesDescription": "bold_100x100_s3_2x2x2_static_156",
      "SeriesNumber": 4,
      "SeriesTime": "143447.203000",
      "SliceLocation": -84.887655371463,
      "SliceThickness": 2.0,
      "SmallestImagePixelValue": 0,
      "SoftwareVersions": "syngo MR E11",
      "SpacingBetweenSlices": 1.9999999338269,
      "SpecificCharacterSet": "ISO_IR 100",
      "StudyID": "1",
      "StudyTime": "142555.425000",
      "TransmitCoilName": "Body",
      "VariableFlipAngleFlag": "N",
      "WindowCenterWidthExplanation": "Algo1",
      "dBdt": 0.0},
    "slices": {}
  },
  "time": {
    "samples": {
      "AcquisitionNumber": [1, 2, 3, 4, 5, 6, 7, 8, 9, 10, 11, 12, 13, 14, 15, 16, 17, 18, 19, 20, 21, 22, 23, 24, 25, 26, 27, 28, 29, 30, 31, 32, 33, 34, 35, 36, 37, 38, 39, 40, 41, 42, 43, 44, 45, 46, 47, 48, 49, 50, 51, 52, 53, 54, 55, 56, 57, 58, 59, 60, 61, 62, 63, 64, 65, 66, 67, 68, 69, 70, 71, 72, 73, 74, 75, 76, 77, 78, 79, 80, 81, 82, 83, 84, 85, 86, 87, 88, 89, 90, 91, 92, 93, 94, 95, 96, 97, 98, 99, 100, 101, 102, 103, 104, 105, 106, 107, 108, 109, 110, 111, 112, 113, 114, 115, 116, 117, 118, 119, 120, 121, 122, 123, 124, 125, 126, 127, 128, 129, 130, 131, 132, 133, 134, 135, 136, 137, 138, 139, 140, 141, 142, 143, 144, 145, 146, 147, 148, 149, 150, 151, 152, 153, 154, 155, 156],
      "AcquisitionTime": ["143444.255000", "143446.255000", "143448.255000", "143450.255000", "143452.255000", "143454.255000", "143456.255000", "143458.255000", "143500.255000", "143502.255000", "143504.255000", "143506.255000", "143508.255000", "143510.255000", "143512.255000", "143514.255000", "143516.255000", "143518.255000", "143520.255000", "143522.255000", "143524.255000", "143526.255000", "143528.255000", "143530.255000", "143532.255000", "143534.255000", "143536.255000", "143538.255000", "143540.255000", "143542.255000", "143544.255000", "143546.255000", "143548.255000", "143550.255000", "143552.255000", "143554.255000", "143556.255000", "143558.255000", "143600.255000", "143602.255000", "143604.255000", "143606.255000", "143608.255000", "143610.255000", "143612.255000", "143614.255000", "143616.255000", "143618.255000", "143620.255000", "143622.255000", "143624.255000", "143626.255000", "143628.255000", "143630.255000", "143632.255000", "143634.255000", "143636.255000", "143638.255000", "143640.255000", "143642.255000", "143644.255000", "143646.255000", "143648.255000", "143650.255000", "143652.255000", "143654.255000", "143656.255000", "143658.255000", "143700.255000", "143702.255000", "143704.255000", "143706.255000", "143708.255000", "143710.255000", "143712.255000", "143714.255000", "143716.255000", "143718.255000", "143720.255000", "143722.255000", "143724.255000", "143726.255000", "143728.255000", "143730.255000", "143732.255000", "143734.255000", "143736.255000", "143738.255000", "143740.255000", "143742.255000", "143744.255000", "143746.255000", "143748.255000", "143750.255000", "143752.255000", "143754.255000", "143756.255000", "143758.255000", "143800.255000", "143802.255000", "143804.255000", "143806.255000", "143808.255000", "143810.255000", "143812.255000", "143814.255000", "143816.255000", "143818.255000", "143820.255000", "143822.255000", "143824.255000", "143826.255000", "143828.255000", "143830.255000", "143832.255000", "143834.255000", "143836.255000", "143838.255000", "143840.255000", "143842.255000", "143844.255000", "143846.255000", "143848.255000", "143850.255000", "143852.255000", "143854.255000", "143856.255000", "143858.255000", "143900.255000", "143902.255000", "143904.255000", "143906.255000", "143908.255000", "143910.255000", "143912.255000", "143914.255000", "143916.255000", "143918.255000", "143920.255000", "143922.255000", "143924.255000", "143926.255000", "143928.255000", "143930.255000", "143932.255000", "143934.255000", "143936.255000", "143938.255000", "143940.255000", "143942.255000", "143944.255000", "143946.255000", "143948.255000", "143950.255000", "143952.255000", "143954.255000"],
      "ContentTime": ["143447.207000", "143448.703000", "143450.702000", "143452.703000", "143454.703000", "143456.703000", "143458.702000", "143500.703000", "143502.702000", "143504.702000", "143506.703000", "143508.702000", "143510.703000", "143512.703000", "143514.703000", "143516.702000", "143518.703000", "143520.702000", "143522.702000", "143524.703000", "143526.701000", "143528.703000", "143530.703000", "143532.703000", "143534.703000", "143536.702000", "143538.703000", "143540.703000", "143542.702000", "143544.702000", "143546.703000", "143548.703000", "143550.703000", "143552.703000", "143554.703000", "143556.703000", "143558.702000", "143600.702000", "143602.703000", "143604.703000", "143606.703000", "143608.703000", "143610.703000", "143612.702000", "143614.703000", "143616.702000", "143618.702000", "143620.702000", "143622.703000", "143624.702000", "143626.703000", "143628.703000", "143630.702000", "143632.702000", "143634.703000", "143636.702000", "143638.702000", "143640.703000", "143642.703000", "143644.702000", "143646.702000", "143648.702000", "143650.703000", "143652.703000", "143654.703000", "143656.703000", "143658.703000", "143700.703000", "143702.703000", "143704.702000", "143706.702000", "143708.702000", "143710.702000", "143712.702000", "143714.703000", "143716.702000", "143718.703000", "143720.703000", "143722.703000", "143724.702000", "143726.703000", "143728.702000", "143730.702000", "143732.703000", "143734.702000", "143736.702000", "143738.703000", "143740.703000", "143742.702000", "143744.702000", "143746.703000", "143748.703000", "143750.703000", "143752.703000", "143754.703000", "143756.703000", "143758.703000", "143800.702000", "143802.702000", "143804.703000", "143806.702000", "143808.703000", "143810.703000", "143812.703000", "143814.703000", "143816.703000", "143818.702000", "143820.702000", "143822.703000", "143824.703000", "143826.703000", "143828.702000", "143830.703000", "143832.702000", "143834.703000", "143836.703000", "143838.701000", "143840.703000", "143842.703000", "143844.703000", "143846.703000", "143848.703000", "143850.702000", "143852.703000", "143854.702000", "143856.703000", "143858.702000", "143900.702000", "143902.703000", "143904.703000", "143906.703000", "143908.703000", "143910.702000", "143912.703000", "143914.703000", "143916.703000", "143918.703000", "143920.702000", "143922.703000", "143924.703000", "143926.703000", "143928.703000", "143930.702000", "143932.703000", "143934.703000", "143936.702000", "143938.703000", "143940.703000", "143942.703000", "143944.702000", "143946.702000", "143948.702000", "143950.702000", "143952.702000", "143954.703000", "143956.536000"],
      "InstanceCreationTime": ["143447.207000", "143448.703000", "143450.702000", "143452.703000", "143454.703000", "143456.703000", "143458.702000", "143500.703000", "143502.702000", "143504.702000", "143506.703000", "143508.702000", "143510.703000", "143512.703000", "143514.703000", "143516.702000", "143518.703000", "143520.702000", "143522.702000", "143524.703000", "143526.701000", "143528.703000", "143530.703000", "143532.703000", "143534.703000", "143536.702000", "143538.703000", "143540.703000", "143542.702000", "143544.702000", "143546.703000", "143548.703000", "143550.703000", "143552.703000", "143554.703000", "143556.703000", "143558.702000", "143600.702000", "143602.703000", "143604.703000", "143606.703000", "143608.703000", "143610.703000", "143612.702000", "143614.703000", "143616.702000", "143618.702000", "143620.702000", "143622.703000", "143624.702000", "143626.703000", "143628.703000", "143630.702000", "143632.702000", "143634.703000", "143636.702000", "143638.702000", "143640.703000", "143642.703000", "143644.702000", "143646.702000", "143648.702000", "143650.703000", "143652.703000", "143654.703000", "143656.703000", "143658.703000", "143700.703000", "143702.703000", "143704.702000", "143706.702000", "143708.702000", "143710.702000", "143712.702000", "143714.703000", "143716.702000", "143718.703000", "143720.703000", "143722.703000", "143724.702000", "143726.703000", "143728.702000", "143730.702000", "143732.703000", "143734.702000", "143736.702000", "143738.703000", "143740.703000", "143742.702000", "143744.702000", "143746.703000", "143748.703000", "143750.703000", "143752.703000", "143754.703000", "143756.703000", "143758.703000", "143800.702000", "143802.702000", "143804.703000", "143806.702000", "143808.703000", "143810.703000", "143812.703000", "143814.703000", "143816.703000", "143818.702000", "143820.702000", "143822.703000", "143824.703000", "143826.703000", "143828.702000", "143830.703000", "143832.702000", "143834.703000", "143836.703000", "143838.701000", "143840.703000", "143842.703000", "143844.703000", "143846.703000", "143848.703000", "143850.702000", "143852.703000", "143854.702000", "143856.703000", "143858.702000", "143900.702000", "143902.703000", "143904.703000", "143906.703000", "143908.703000", "143910.702000", "143912.703000", "143914.703000", "143916.703000", "143918.703000", "143920.702000", "143922.703000", "143924.703000", "143926.703000", "143928.703000", "143930.702000", "143932.703000", "143934.703000", "143936.702000", "143938.703000", "143940.703000", "143942.703000", "143944.702000", "143946.702000", "143948.702000", "143950.702000", "143952.702000", "143954.703000", "143956.536000"],
      "InstanceNumber": [1, 2, 3, 4, 5, 6, 7, 8, 9, 10, 11, 12, 13, 14, 15, 16, 17, 18, 19, 20, 21, 22, 23, 24, 25, 26, 27, 28, 29, 30, 31, 32, 33, 34, 35, 36, 37, 38, 39, 40, 41, 42, 43, 44, 45, 46, 47, 48, 49, 50, 51, 52, 53, 54, 55, 56, 57, 58, 59, 60, 61, 62, 63, 64, 65, 66, 67, 68, 69, 70, 71, 72, 73, 74, 75, 76, 77, 78, 79, 80, 81, 82, 83, 84, 85, 86, 87, 88, 89, 90, 91, 92, 93, 94, 95, 96, 97, 98, 99, 100, 101, 102, 103, 104, 105, 106, 107, 108, 109, 110, 111, 112, 113, 114, 115, 116, 117, 118, 119, 120, 121, 122, 123, 124, 125, 126, 127, 128, 129, 130, 131, 132, 133, 134, 135, 136, 137, 138, 139, 140, 141, 142, 143, 144, 145, 146, 147, 148, 149, 150, 151, 152, 153, 154, 155, 156],
      "LargestImagePixelValue": [2952, 2884, 2963, 2876, 2864, 2912, 2880, 2885, 2871, 2888, 2893, 2870, 2902, 2881, 2857, 2842, 2888, 2867, 2883, 2878, 2867, 2905, 2839, 2854, 2862, 2837, 2850, 2860, 2892, 2861, 2837, 2872, 2878, 2853, 2851, 2833, 2875, 2858, 2906, 2860, 2868, 2858, 2867, 2899, 2825, 2868, 2858, 2873, 2844, 2883, 2870, 2861, 2871, 2851, 2833, 2878, 2841, 2857, 2822, 2865, 2851, 2851, 2867, 2898, 2877, 2849, 2842, 2856, 2851, 2838, 2843, 2917, 2849, 2848, 2857, 2848, 2866, 2825, 2853, 2882, 2878, 2840, 2884, 2848, 2875, 2847, 2851, 2872, 2832, 2820, 2820, 2817, 2854, 2833, 2832, 2783, 2815, 2836, 2826, 2865, 2855, 2884, 2828, 2847, 2809, 2820, 2814, 2846, 2857, 2843, 2838, 2864, 2851, 2840, 2874, 2827, 2857, 2829, 2872, 2841, 2858, 2877, 2854, 2832, 2840, 2865, 2860, 2827, 2811, 2876, 2838, 2855, 2844, 2873, 2827, 2890, 2826, 2813, 2849, 2880, 2820, 2854, 2826, 2831, 2873, 2865, 2892, 2864, 2819, 2841, 2835, 2840, 2835, 2876, 2836, 2858],
      "WindowCenter": [781.0, 780.0, 781.0, 781.0, 781.0, 783.0, 782.0, 782.0, 782.0, 782.0, 781.0, 780.0, 782.0, 782.0, 781.0, 781.0, 780.0, 779.0, 780.0, 780.0, 780.0, 780.0, 780.0, 781.0, 781.0, 780.0, 779.0, 779.0, 780.0, 779.0, 778.0, 779.0, 780.0, 780.0, 780.0, 780.0, 780.0, 780.0, 780.0, 779.0, 779.0, 779.0, 779.0, 779.0, 778.0, 779.0, 778.0, 779.0, 779.0, 779.0, 779.0, 778.0, 780.0, 779.0, 778.0, 778.0, 778.0, 779.0, 778.0, 777.0, 778.0, 778.0, 778.0, 779.0, 778.0, 777.0, 778.0, 777.0, 778.0, 778.0, 778.0, 779.0, 777.0, 778.0, 779.0, 778.0, 777.0, 776.0, 776.0, 777.0, 777.0, 777.0, 778.0, 778.0, 779.0, 778.0, 778.0, 780.0, 779.0, 778.0, 778.0, 777.0, 777.0, 777.0, 778.0, 777.0, 778.0, 778.0, 779.0, 779.0, 779.0, 779.0, 777.0, 778.0, 779.0, 778.0, 777.0, 777.0, 778.0, 778.0, 778.0, 778.0, 778.0, 778.0, 778.0, 776.0, 778.0, 777.0, 777.0, 775.0, 778.0, 778.0, 779.0, 778.0, 778.0, 777.0, 777.0, 777.0, 778.0, 779.0, 780.0, 780.0, 779.0, 780.0, 779.0, 779.0, 777.0, 778.0, 777.0, 779.0, 778.0, 779.0, 777.0, 776.0, 777.0, 778.0, 778.0, 778.0, 778.0, 778.0, 778.0, 777.0, 778.0, 780.0, 780.0, 781.0],
      "WindowWidth": [1662.0, 1659.0, 1661.0, 1661.0, 1661.0, 1664.0, 1662.0, 1662.0, 1662.0, 1662.0, 1660.0, 1658.0, 1662.0, 1662.0, 1661.0, 1660.0, 1658.0, 1656.0, 1657.0, 1656.0, 1658.0, 1658.0, 1658.0, 1659.0, 1659.0, 1657.0, 1656.0, 1655.0, 1657.0, 1654.0, 1652.0, 1655.0, 1657.0, 1658.0, 1657.0, 1657.0, 1657.0, 1657.0, 1657.0, 1655.0, 1654.0, 1656.0, 1655.0, 1654.0, 1653.0, 1655.0, 1654.0, 1654.0, 1654.0, 1655.0, 1655.0, 1653.0, 1657.0, 1656.0, 1652.0, 1652.0, 1654.0, 1655.0, 1653.0, 1651.0, 1652.0, 1652.0, 1654.0, 1654.0, 1652.0, 1651.0, 1652.0, 1651.0, 1653.0, 1653.0, 1652.0, 1655.0, 1652.0, 1653.0, 1656.0, 1652.0, 1651.0, 1648.0, 1648.0, 1651.0, 1651.0, 1650.0, 1652.0, 1652.0, 1654.0, 1654.0, 1654.0, 1657.0, 1654.0, 1653.0, 1652.0, 1649.0, 1651.0, 1651.0, 1653.0, 1651.0, 1652.0, 1653.0, 1656.0, 1655.0, 1655.0, 1655.0, 1651.0, 1653.0, 1654.0, 1653.0, 1651.0, 1651.0, 1653.0, 1653.0, 1653.0, 1652.0, 1651.0, 1651.0, 1652.0, 1649.0, 1652.0, 1649.0, 1650.0, 1646.0, 1651.0, 1651.0, 1654.0, 1651.0, 1652.0, 1650.0, 1650.0, 1649.0, 1653.0, 1655.0, 1656.0, 1656.0, 1655.0, 1656.0, 1654.0, 1654.0, 1651.0, 1652.0, 1651.0, 1653.0, 1653.0, 1655.0, 1650.0, 1648.0, 1649.0, 1652.0, 1652.0, 1652.0, 1653.0, 1653.0, 1652.0, 1651.0, 1651.0, 1657.0, 1658.0, 1658.0]
    },
    "slices": {}
  }
}