{
  "AcquisitionMatrixPE": 100,
  "AcquisitionNumber": 1,
  "AcquisitionTime": "13:17:4.730000",
  "BandwidthPerPixelPhaseEncode": 18.519,
  "BaseResolution": 100,
  "BodyPartExamined": "BRAIN",
  "CoilCombinationMethod": "Sum of Squares",
  "ConsistencyInfo": "N4_VE11C_LATEST_20160120",
  "ConversionSoftware": "dcm2niix",
  "ConversionSoftwareVersion": "v1.0.20211006",
  "DerivedVendorReportedEchoSpacing": 0.000539986,
  "DeviceSerialNumber": "166078",
  "DwellTime": 2.1e-06,
  "EchoTime": 0.034,
  "EchoTrainLength": 100,
  "EffectiveEchoSpacing": 0.000539986,
  "FlipAngle": 90,
  "ImageOrientationPatientDICOM": [1, 0, 0, 0, 0.992757, -0.120137],
  "ImageOrientationText": "Tra>Cor(-6.9)",
  "ImageType": [
    "ORIGINAL",
    "PRIMARY",
    "M",
    "ND",
    "MOSAIC"
],
  "ImagingFrequency": 123.258,
  "InPlanePhaseEncodingDirectionDICOM": "COL",
  "InstitutionAddress": "Street StreetNo,Bei Jing,District,CN,ZIP",
  "InstitutionName": "BeiJing Normal University",
  "InstitutionalDepartmentName": "Department",
  "MRAcquisitionType": "2D",
  "MagneticFieldStrength": 3,
  "Manufacturer": "Siemens",
  "ManufacturersModelName": "Prisma",
  "Modality": "MR",
  "MultibandAccelerationFactor": 3,
  "PartialFourier": 1,
  "PatientPosition": "HFS",
  "PercentPhaseFOV": 100,
  "PercentSampling": 100,
  "PhaseEncodingDirection": "j-",
  "PhaseEncodingSteps": 100,
  "PhaseResolution": 1,
  "PixelBandwidth": 2380,
  "ProcedureStepDescription": "BNU_P2018_64CH^Zhen.ZongLei",
  "ProtocolName": "bold_100x100_s3_2x2x2_static_156",
  "PulseSequenceDetails": "%SiemensSeq%\\ep2d_bold",
  "ReceiveCoilActiveElements": "HC1-7;NC1",
  "ReceiveCoilName": "HeadNeck_64",
  "ReconMatrixPE": 100,
  "RefLinesPE": 32,
  "RepetitionTime": 2,
  "SAR": 0.0736225,
  "ScanOptions": "FS",
  "ScanningSequence": "EP",
  "SequenceName": "*epfid2d1_100",
  "SequenceVariant": "SK",
  "SeriesDescription": "bold_100x100_s3_2x2x2_static_156",
  "SeriesNumber": 5,
  "ShimSetting": [-5472, -11548, -1213, 455, -35, -171, 38, 54],
  "SliceThickness": 2,
  "SliceTiming": [1.485, 0, 0.99, 0.0825, 1.0725, 0.165, 1.155, 0.2475, 1.2375, 0.33, 1.32, 0.4125, 1.4025, 0.5775, 1.5675, 0.66, 1.65, 0.7425, 1.7325, 0.825, 1.815, 0.9075, 1.8975, 0.495, 1.485, 0, 0.99, 0.0825, 1.0725, 0.165, 1.155, 0.2475, 1.2375, 0.33, 1.32, 0.4125, 1.4025, 0.5775, 1.5675, 0.66, 1.65, 0.7425, 1.7325, 0.825, 1.815, 0.9075, 1.8975, 0.495, 1.485, 0, 0.99, 0.0825, 1.0725, 0.165, 1.155, 0.2475, 1.2375, 0.33, 1.32, 0.4125, 1.4025, 0.5775, 1.5675, 0.66, 1.65, 0.7425, 1.7325, 0.825, 1.815, 0.9075, 1.8975, 0.495],
  "SoftwareVersions": "syngo MR E11",
  "SpacingBetweenSlices": 2,
  "StationName": "AWP166078",
  "TaskName": "action",
  "TotalReadoutTime": 0.0534586,
  "TxRefAmp": 207.624,
  "dcmmeta_affine": [
    [-2.0, 0.0, 0.0, 100.0],
    [0.0, 1.9855146408081055, -0.24027368426322937, -77.40457153320312],
    [0.0, 0.24027368426322937, 1.9855146408081055, -69.3778305053711],
    [0.0, 0.0, 0.0, 1.0]
],
  "dcmmeta_reorient_transform": [
    [0.0, -1.0, 0.0, 99.0],
    [1.0, 0.0, 0.0, 0.0],
    [0.0, 0.0, 1.0, 0.0],
    [0.0, 0.0, 0.0, 1.0]
],
  "dcmmeta_shape": [100, 100, 72, 156],
  "dcmmeta_slice_dim": 2,
  "dcmmeta_version": 0.6,
  "global": {
    "const": {
      "AcquisitionMatrix": [100, 0, 0, 100],
      "AngioFlag": "N",
      "BitsAllocated": 16,
      "BitsStored": 12,
      "BodyPartExamined": "BRAIN",
      "Columns": 900,
      "EchoNumbers": 1,
      "EchoTime": 34.0,
      "EchoTrainLength": 100,
      "FlipAngle": 90.0,
      "HighBit": 11,
      "ImageOrientationPatient": [1.0, 0.0, 0.0, 0.0, 0.99275734119381, -0.1201368449136],
      "ImagePositionPatient": [-900.0, -913.3672538945, 50.518744528694],
      "ImageType": [
        "ORIGINAL",
        "PRIMARY",
        "M",
        "ND",
        "MOSAIC"
],
      "ImagedNucleus": "1H",
      "ImagingFrequency": 123.257648,
      "InPlanePhaseEncodingDirection": "COL",
      "MRAcquisitionType": "2D",
      "MagneticFieldStrength": 3.0,
      "Manufacturer": "SIEMENS",
      "ManufacturerModelName": "Prisma",
      "Modality": "MR",
      "NumberOfAverages": 1.0,
      "NumberOfPhaseEncodingSteps": 100,
      "PercentPhaseFieldOfView": 100.0,
      "PercentSampling": 100.0,
      "PerformedProcedureStepStartTime": "130048.573000",
      "PhotometricInterpretation": "MONOCHROME2",
      "PixelBandwidth": 2380.0,
      "PixelRepresentation": 0,
      "PixelSpacing": [2.0, 2.0],
      "ProtocolName": "bold_100x100_s3_2x2x2_static_156",
      "RepetitionTime": 2000.0,
      "Rows": 900,
      "SAR": 0.07362253711445,
      "SamplesPerPixel": 1,
      "ScanOptions": "FS",
      "ScanningSequence": "EP",
      "SequenceName": "*epfid2d1_100",
      "SequenceVariant": "SK",
      "SeriesDescription": "bold_100x100_s3_2x2x2_static_156",
      "SeriesNumber": 5,
      "SeriesTime": "131707.780000",
      "SliceLocation": -59.576205631537,
      "SliceThickness": 2.0,
      "SmallestImagePixelValue": 0,
      "SoftwareVersions": "syngo MR E11",
      "SpacingBetweenSlices": 1.9999999955865,
      "SpecificCharacterSet": "ISO_IR 100",
      "StudyID": "1",
      "StudyTime": "130048.474000",
      "TransmitCoilName": "Body",
      "VariableFlipAngleFlag": "N",
      "WindowCenterWidthExplanation": "Algo1",
      "dBdt": 0.0},
    "slices": {}
  },
  "time": {
    "samples": {
      "AcquisitionNumber": [1, 2, 3, 4, 5, 6, 7, 8, 9, 10, 11, 12, 13, 14, 15, 16, 17, 18, 19, 20, 21, 22, 23, 24, 25, 26, 27, 28, 29, 30, 31, 32, 33, 34, 35, 36, 37, 38, 39, 40, 41, 42, 43, 44, 45, 46, 47, 48, 49, 50, 51, 52, 53, 54, 55, 56, 57, 58, 59, 60, 61, 62, 63, 64, 65, 66, 67, 68, 69, 70, 71, 72, 73, 74, 75, 76, 77, 78, 79, 80, 81, 82, 83, 84, 85, 86, 87, 88, 89, 90, 91, 92, 93, 94, 95, 96, 97, 98, 99, 100, 101, 102, 103, 104, 105, 106, 107, 108, 109, 110, 111, 112, 113, 114, 115, 116, 117, 118, 119, 120, 121, 122, 123, 124, 125, 126, 127, 128, 129, 130, 131, 132, 133, 134, 135, 136, 137, 138, 139, 140, 141, 142, 143, 144, 145, 146, 147, 148, 149, 150, 151, 152, 153, 154, 155, 156],
      "AcquisitionTime": ["131704.730000", "131706.730000", "131708.730000", "131710.730000", "131712.730000", "131714.730000", "131716.730000", "131718.730000", "131720.730000", "131722.730000", "131724.730000", "131726.730000", "131728.730000", "131730.730000", "131732.730000", "131734.730000", "131736.730000", "131738.730000", "131740.730000", "131742.730000", "131744.730000", "131746.730000", "131748.730000", "131750.730000", "131752.730000", "131754.730000", "131756.730000", "131758.730000", "131800.730000", "131802.730000", "131804.730000", "131806.730000", "131808.730000", "131810.730000", "131812.730000", "131814.730000", "131816.730000", "131818.730000", "131820.730000", "131822.730000", "131824.730000", "131826.730000", "131828.730000", "131830.730000", "131832.730000", "131834.730000", "131836.730000", "131838.730000", "131840.730000", "131842.730000", "131844.730000", "131846.730000", "131848.730000", "131850.730000", "131852.730000", "131854.730000", "131856.730000", "131858.730000", "131900.730000", "131902.730000", "131904.730000", "131906.730000", "131908.730000", "131910.730000", "131912.730000", "131914.730000", "131916.730000", "131918.730000", "131920.730000", "131922.730000", "131924.730000", "131926.730000", "131928.730000", "131930.730000", "131932.730000", "131934.730000", "131936.730000", "131938.730000", "131940.730000", "131942.730000", "131944.730000", "131946.730000", "131948.730000", "131950.730000", "131952.730000", "131954.730000", "131956.730000", "131958.730000", "132000.730000", "132002.730000", "132004.730000", "132006.730000", "132008.730000", "132010.730000", "132012.730000", "132014.730000", "132016.730000", "132018.730000", "132020.730000", "132022.730000", "132024.730000", "132026.730000", "132028.730000", "132030.730000", "132032.730000", "132034.730000", "132036.730000", "132038.730000", "132040.730000", "132042.730000", "132044.730000", "132046.730000", "132048.730000", "132050.730000", "132052.730000", "132054.730000", "132056.730000", "132058.730000", "132100.730000", "132102.730000", "132104.730000", "132106.730000", "132108.730000", "132110.730000", "132112.730000", "132114.730000", "132116.730000", "132118.730000", "132120.730000", "132122.730000", "132124.730000", "132126.730000", "132128.730000", "132130.730000", "132132.730000", "132134.730000", "132136.730000", "132138.730000", "132140.730000", "132142.730000", "132144.730000", "132146.730000", "132148.730000", "132150.730000", "132152.730000", "132154.730000", "132156.730000", "132158.730000", "132200.730000", "132202.730000", "132204.730000", "132206.730000", "132208.730000", "132210.730000", "132212.730000", "132214.730000"],
      "ContentTime": ["131707.784000", "131709.280000", "131711.279000", "131713.280000", "131715.280000", "131717.281000", "131719.280000", "131721.280000", "131723.280000", "131725.279000", "131727.279000", "131729.279000", "131731.281000", "131733.281000", "131735.280000", "131737.281000", "131739.279000", "131741.280000", "131743.280000", "131745.280000", "131747.279000", "131749.280000", "131751.280000", "131753.281000", "131755.280000", "131757.279000", "131759.280000", "131801.279000", "131803.280000", "131805.280000", "131807.281000", "131809.281000", "131811.280000", "131813.280000", "131815.279000", "131817.279000", "131819.279000", "131821.280000", "131823.280000", "131825.280000", "131827.281000", "131829.281000", "131831.280000", "131833.280000", "131835.279000", "131837.279000", "131839.280000", "131841.280000", "131843.280000", "131845.281000", "131847.280000", "131849.280000", "131851.280000", "131853.279000", "131855.280000", "131857.280000", "131859.280000", "131901.281000", "131903.280000", "131905.280000", "131907.279000", "131909.280000", "131911.280000", "131913.280000", "131915.280000", "131917.281000", "131919.280000", "131921.280000", "131923.279000", "131925.279000", "131927.280000", "131929.280000", "131931.279000", "131933.279000", "131935.280000", "131937.281000", "131939.281000", "131941.279000", "131943.279000", "131945.279000", "131947.279000", "131949.279000", "131951.280000", "131953.281000", "131955.281000", "131957.281000", "131959.279000", "132001.279000", "132003.280000", "132005.280000", "132007.279000", "132009.281000", "132011.281000", "132013.281000", "132015.279000", "132017.280000", "132019.280000", "132021.279000", "132023.279000", "132025.280000", "132027.280000", "132029.281000", "132031.281000", "132033.280000", "132035.279000", "132037.279000", "132039.279000", "132041.280000", "132043.280000", "132045.281000", "132047.281000", "132049.280000", "132051.280000", "132053.279000", "132055.279000", "132057.279000", "132059.279000", "132101.281000", "132103.280000", "132105.280000", "132107.280000", "132109.279000", "132111.280000", "132113.280000", "132115.279000", "132117.280000", "132119.281000", "132121.280000", "132123.281000", "132125.280000", "132127.279000", "132129.279000", "132131.279000", "132133.279000", "132135.279000", "132137.281000", "132139.281000", "132141.281000", "132143.279000", "132145.280000", "132147.279000", "132149.279000", "132151.280000", "132153.280000", "132155.281000", "132157.281000", "132159.280000", "132201.280000", "132203.280000", "132205.280000", "132207.280000", "132209.279000", "132211.281000", "132213.281000", "132215.280000", "132217.139000"],
      "InstanceCreationTime": ["131707.784000", "131709.280000", "131711.279000", "131713.280000", "131715.280000", "131717.281000", "131719.280000", "131721.280000", "131723.280000", "131725.279000", "131727.279000", "131729.279000", "131731.281000", "131733.281000", "131735.280000", "131737.281000", "131739.279000", "131741.280000", "131743.280000", "131745.280000", "131747.279000", "131749.280000", "131751.280000", "131753.281000", "131755.280000", "131757.279000", "131759.280000", "131801.279000", "131803.280000", "131805.280000", "131807.281000", "131809.281000", "131811.280000", "131813.280000", "131815.279000", "131817.279000", "131819.279000", "131821.280000", "131823.280000", "131825.280000", "131827.281000", "131829.281000", "131831.280000", "131833.280000", "131835.279000", "131837.279000", "131839.280000", "131841.280000", "131843.280000", "131845.281000", "131847.280000", "131849.280000", "131851.280000", "131853.279000", "131855.280000", "131857.280000", "131859.280000", "131901.281000", "131903.280000", "131905.280000", "131907.279000", "131909.280000", "131911.280000", "131913.280000", "131915.280000", "131917.281000", "131919.280000", "131921.280000", "131923.279000", "131925.279000", "131927.280000", "131929.280000", "131931.279000", "131933.279000", "131935.280000", "131937.281000", "131939.281000", "131941.279000", "131943.279000", "131945.279000", "131947.279000", "131949.279000", "131951.280000", "131953.281000", "131955.281000", "131957.281000", "131959.279000", "132001.279000", "132003.280000", "132005.280000", "132007.279000", "132009.281000", "132011.281000", "132013.281000", "132015.279000", "132017.280000", "132019.280000", "132021.279000", "132023.279000", "132025.280000", "132027.280000", "132029.281000", "132031.281000", "132033.280000", "132035.279000", "132037.279000", "132039.279000", "132041.280000", "132043.280000", "132045.281000", "132047.281000", "132049.280000", "132051.280000", "132053.279000", "132055.279000", "132057.279000", "132059.279000", "132101.281000", "132103.280000", "132105.280000", "132107.280000", "132109.279000", "132111.280000", "132113.280000", "132115.279000", "132117.280000", "132119.281000", "132121.280000", "132123.281000", "132125.280000", "132127.279000", "132129.279000", "132131.279000", "132133.279000", "132135.279000", "132137.281000", "132139.281000", "132141.281000", "132143.279000", "132145.280000", "132147.279000", "132149.279000", "132151.280000", "132153.280000", "132155.281000", "132157.281000", "132159.280000", "132201.280000", "132203.280000", "132205.280000", "132207.280000", "132209.279000", "132211.281000", "132213.281000", "132215.280000", "132217.139000"],
      "InstanceNumber": [1, 2, 3, 4, 5, 6, 7, 8, 9, 10, 11, 12, 13, 14, 15, 16, 17, 18, 19, 20, 21, 22, 23, 24, 25, 26, 27, 28, 29, 30, 31, 32, 33, 34, 35, 36, 37, 38, 39, 40, 41, 42, 43, 44, 45, 46, 47, 48, 49, 50, 51, 52, 53, 54, 55, 56, 57, 58, 59, 60, 61, 62, 63, 64, 65, 66, 67, 68, 69, 70, 71, 72, 73, 74, 75, 76, 77, 78, 79, 80, 81, 82, 83, 84, 85, 86, 87, 88, 89, 90, 91, 92, 93, 94, 95, 96, 97, 98, 99, 100, 101, 102, 103, 104, 105, 106, 107, 108, 109, 110, 111, 112, 113, 114, 115, 116, 117, 118, 119, 120, 121, 122, 123, 124, 125, 126, 127, 128, 129, 130, 131, 132, 133, 134, 135, 136, 137, 138, 139, 140, 141, 142, 143, 144, 145, 146, 147, 148, 149, 150, 151, 152, 153, 154, 155, 156],
      "LargestImagePixelValue": [3160, 3115, 3096, 3057, 3067, 3069, 3046, 3109, 3204, 3205, 3255, 3116, 3170, 3158, 3206, 3168, 3145, 3102, 3133, 3098, 3158, 3104, 3166, 3124, 3039, 3181, 3129, 3191, 3145, 3116, 3084, 3146, 3133, 3151, 3105, 3105, 3165, 3077, 3014, 3047, 2976, 3054, 3033, 3082, 3099, 3103, 3087, 3063, 3091, 3105, 3084, 3065, 3049, 3050, 3069, 3076, 3087, 3050, 3056, 3055, 3081, 3135, 2991, 3032, 3043, 3037, 3078, 3085, 3067, 3045, 3035, 3087, 3050, 3107, 3049, 3100, 3112, 3057, 3062, 3071, 3072, 3107, 3097, 3102, 3092, 3084, 3062, 3072, 3051, 3111, 3124, 3105, 3080, 3055, 3085, 3153, 3066, 3052, 3064, 3140, 3074, 3072, 3061, 3107, 3094, 3046, 3051, 3071, 3056, 3083, 3059, 3044, 3055, 3038, 3073, 3058, 3067, 3117, 3075, 3066, 3075, 3065, 3095, 3083, 3040, 3035, 3064, 3088, 3045, 3118, 3046, 3033, 3057, 3183, 3087, 3204, 3058, 3148, 3072, 3188, 3120, 3157, 3060, 3159, 3084, 3086, 3058, 3153, 3126, 3165, 3186, 3092, 3064, 3087, 3102, 3099],
      "WindowCenter": [751.0, 752.0, 753.0, 752.0, 749.0, 749.0, 750.0, 751.0, 754.0, 754.0, 754.0, 752.0, 753.0, 752.0, 753.0, 751.0, 751.0, 750.0, 751.0, 751.0, 752.0, 752.0, 752.0, 751.0, 751.0, 752.0, 753.0, 753.0, 751.0, 751.0, 750.0, 750.0, 752.0, 752.0, 751.0, 750.0, 752.0, 751.0, 751.0, 750.0, 749.0, 749.0, 748.0, 750.0, 751.0, 751.0, 750.0, 751.0, 752.0, 751.0, 750.0, 749.0, 749.0, 750.0, 750.0, 751.0, 750.0, 749.0, 749.0, 751.0, 752.0, 750.0, 748.0, 749.0, 749.0, 750.0, 750.0, 750.0, 749.0, 749.0, 749.0, 750.0, 751.0, 751.0, 750.0, 750.0, 750.0, 750.0, 750.0, 751.0, 752.0, 752.0, 752.0, 750.0, 750.0, 750.0, 750.0, 752.0, 751.0, 752.0, 751.0, 750.0, 751.0, 752.0, 752.0, 753.0, 752.0, 752.0, 753.0, 754.0, 751.0, 751.0, 749.0, 751.0, 750.0, 750.0, 750.0, 751.0, 751.0, 752.0, 751.0, 750.0, 750.0, 749.0, 748.0, 750.0, 751.0, 752.0, 751.0, 750.0, 750.0, 750.0, 751.0, 751.0, 751.0, 751.0, 750.0, 750.0, 749.0, 749.0, 747.0, 748.0, 748.0, 750.0, 750.0, 752.0, 751.0, 751.0, 750.0, 752.0, 752.0, 753.0, 751.0, 752.0, 750.0, 751.0, 750.0, 751.0, 750.0, 752.0, 753.0, 752.0, 750.0, 751.0, 750.0, 750.0],
      "WindowWidth": [1616.0, 1619.0, 1621.0, 1617.0, 1611.0, 1610.0, 1613.0, 1616.0, 1624.0, 1625.0, 1623.0, 1619.0, 1620.0, 1619.0, 1620.0, 1616.0, 1616.0, 1613.0, 1617.0, 1615.0, 1620.0, 1619.0, 1619.0, 1616.0, 1616.0, 1619.0, 1620.0, 1620.0, 1616.0, 1615.0, 1612.0, 1614.0, 1618.0, 1618.0, 1616.0, 1614.0, 1617.0, 1615.0, 1614.0, 1612.0, 1609.0, 1610.0, 1608.0, 1613.0, 1616.0, 1614.0, 1612.0, 1615.0, 1618.0, 1617.0, 1612.0, 1609.0, 1610.0, 1613.0, 1614.0, 1615.0, 1611.0, 1611.0, 1610.0, 1615.0, 1618.0, 1614.0, 1608.0, 1609.0, 1609.0, 1612.0, 1614.0, 1613.0, 1609.0, 1610.0, 1610.0, 1614.0, 1615.0, 1616.0, 1612.0, 1613.0, 1612.0, 1613.0, 1613.0, 1616.0, 1617.0, 1618.0, 1617.0, 1614.0, 1613.0, 1612.0, 1614.0, 1617.0, 1616.0, 1619.0, 1616.0, 1614.0, 1615.0, 1617.0, 1619.0, 1621.0, 1617.0, 1617.0, 1621.0, 1622.0, 1615.0, 1614.0, 1611.0, 1614.0, 1612.0, 1612.0, 1612.0, 1614.0, 1616.0, 1617.0, 1615.0, 1613.0, 1612.0, 1610.0, 1608.0, 1613.0, 1616.0, 1617.0, 1614.0, 1612.0, 1613.0, 1613.0, 1614.0, 1614.0, 1614.0, 1613.0, 1612.0, 1611.0, 1610.0, 1608.0, 1604.0, 1607.0, 1607.0, 1612.0, 1613.0, 1618.0, 1614.0, 1614.0, 1611.0, 1617.0, 1618.0, 1619.0, 1615.0, 1617.0, 1613.0, 1613.0, 1613.0, 1615.0, 1612.0, 1617.0, 1620.0, 1617.0, 1613.0, 1613.0, 1613.0, 1611.0]
    },
    "slices": {}
  }
}