{
  "AcquisitionMatrixPE": 100,
  "AcquisitionNumber": 1,
  "AcquisitionTime": "13:35:5.445000",
  "BandwidthPerPixelPhaseEncode": 18.519,
  "BaseResolution": 100,
  "BodyPartExamined": "BRAIN",
  "CoilCombinationMethod": "Sum of Squares",
  "ConsistencyInfo": "N4_VE11C_LATEST_20160120",
  "ConversionSoftware": "dcm2niix",
  "ConversionSoftwareVersion": "v1.0.20211006",
  "DerivedVendorReportedEchoSpacing": 0.000539986,
  "DeviceSerialNumber": "166078",
  "DwellTime": 2.1e-06,
  "EchoTime": 0.034,
  "EchoTrainLength": 100,
  "EffectiveEchoSpacing": 0.000539986,
  "FlipAngle": 90,
  "ImageOrientationPatientDICOM": [1, 0, 0, 0, 0.992757, -0.120137],
  "ImageOrientationText": "Tra>Cor(-6.9)",
  "ImageType": [
    "ORIGINAL",
    "PRIMARY",
    "M",
    "ND",
    "MOSAIC"
],
  "ImagingFrequency": 123.258,
  "InPlanePhaseEncodingDirectionDICOM": "COL",
  "InstitutionAddress": "Street StreetNo,Bei Jing,District,CN,ZIP",
  "InstitutionName": "BeiJing Normal University",
  "InstitutionalDepartmentName": "Department",
  "MRAcquisitionType": "2D",
  "MagneticFieldStrength": 3,
  "Manufacturer": "Siemens",
  "ManufacturersModelName": "Prisma",
  "Modality": "MR",
  "MultibandAccelerationFactor": 3,
  "PartialFourier": 1,
  "PatientPosition": "HFS",
  "PercentPhaseFOV": 100,
  "PercentSampling": 100,
  "PhaseEncodingDirection": "j-",
  "PhaseEncodingSteps": 100,
  "PhaseResolution": 1,
  "PixelBandwidth": 2380,
  "ProcedureStepDescription": "BNU_P2018_64CH^Zhen.ZongLei",
  "ProtocolName": "bold_100x100_s3_2x2x2_static_156",
  "PulseSequenceDetails": "%SiemensSeq%\\ep2d_bold",
  "ReceiveCoilActiveElements": "HC1-7;NC1",
  "ReceiveCoilName": "HeadNeck_64",
  "ReconMatrixPE": 100,
  "RefLinesPE": 32,
  "RepetitionTime": 2,
  "SAR": 0.0736225,
  "ScanOptions": "FS",
  "ScanningSequence": "EP",
  "SequenceName": "*epfid2d1_100",
  "SequenceVariant": "SK",
  "SeriesDescription": "bold_100x100_s3_2x2x2_static_156",
  "SeriesNumber": 8,
  "ShimSetting": [-5472, -11548, -1213, 455, -35, -171, 38, 54],
  "SliceThickness": 2,
  "SliceTiming": [1.485, 0, 0.99, 0.0825, 1.0725, 0.165, 1.155, 0.2475, 1.2375, 0.33, 1.32, 0.4125, 1.4025, 0.5775, 1.5675, 0.66, 1.65, 0.7425, 1.7325, 0.825, 1.815, 0.9075, 1.8975, 0.495, 1.485, 0, 0.99, 0.0825, 1.0725, 0.165, 1.155, 0.2475, 1.2375, 0.33, 1.32, 0.4125, 1.4025, 0.5775, 1.5675, 0.66, 1.65, 0.7425, 1.7325, 0.825, 1.815, 0.9075, 1.8975, 0.495, 1.485, 0, 0.99, 0.0825, 1.0725, 0.165, 1.155, 0.2475, 1.2375, 0.33, 1.32, 0.4125, 1.4025, 0.5775, 1.5675, 0.66, 1.65, 0.7425, 1.7325, 0.825, 1.815, 0.9075, 1.8975, 0.495],
  "SoftwareVersions": "syngo MR E11",
  "SpacingBetweenSlices": 2,
  "StationName": "AWP166078",
  "TaskName": "action",
  "TotalReadoutTime": 0.0534586,
  "TxRefAmp": 207.624,
  "dcmmeta_affine": [
    [-2.0, 0.0, 0.0, 100.0],
    [0.0, 1.9855146408081055, -0.24027368426322937, -77.40457153320312],
    [0.0, 0.24027368426322937, 1.9855146408081055, -69.3778305053711],
    [0.0, 0.0, 0.0, 1.0]
],
  "dcmmeta_reorient_transform": [
    [0.0, -1.0, 0.0, 99.0],
    [1.0, 0.0, 0.0, 0.0],
    [0.0, 0.0, 1.0, 0.0],
    [0.0, 0.0, 0.0, 1.0]
],
  "dcmmeta_shape": [100, 100, 72, 156],
  "dcmmeta_slice_dim": 2,
  "dcmmeta_version": 0.6,
  "global": {
    "const": {
      "AcquisitionMatrix": [100, 0, 0, 100],
      "AngioFlag": "N",
      "BitsAllocated": 16,
      "BitsStored": 12,
      "BodyPartExamined": "BRAIN",
      "Columns": 900,
      "EchoNumbers": 1,
      "EchoTime": 34.0,
      "EchoTrainLength": 100,
      "FlipAngle": 90.0,
      "HighBit": 11,
      "ImageOrientationPatient": [1.0, 0.0, 0.0, 0.0, 0.99275734119381, -0.1201368449136],
      "ImagePositionPatient": [-900.0, -913.3672538945, 50.518744528694],
      "ImageType": [
        "ORIGINAL",
        "PRIMARY",
        "M",
        "ND",
        "MOSAIC"
],
      "ImagedNucleus": "1H",
      "ImagingFrequency": 123.257664,
      "InPlanePhaseEncodingDirection": "COL",
      "MRAcquisitionType": "2D",
      "MagneticFieldStrength": 3.0,
      "Manufacturer": "SIEMENS",
      "ManufacturerModelName": "Prisma",
      "Modality": "MR",
      "NumberOfAverages": 1.0,
      "NumberOfPhaseEncodingSteps": 100,
      "PercentPhaseFieldOfView": 100.0,
      "PercentSampling": 100.0,
      "PerformedProcedureStepStartTime": "130048.573000",
      "PhotometricInterpretation": "MONOCHROME2",
      "PixelBandwidth": 2380.0,
      "PixelRepresentation": 0,
      "PixelSpacing": [2.0, 2.0],
      "ProtocolName": "bold_100x100_s3_2x2x2_static_156",
      "RepetitionTime": 2000.0,
      "Rows": 900,
      "SAR": 0.07362253711445,
      "SamplesPerPixel": 1,
      "ScanOptions": "FS",
      "ScanningSequence": "EP",
      "SequenceName": "*epfid2d1_100",
      "SequenceVariant": "SK",
      "SeriesDescription": "bold_100x100_s3_2x2x2_static_156",
      "SeriesNumber": 8,
      "SeriesTime": "133507.524000",
      "SliceLocation": -59.576205631537,
      "SliceThickness": 2.0,
      "SmallestImagePixelValue": 0,
      "SoftwareVersions": "syngo MR E11",
      "SpacingBetweenSlices": 1.9999999955865,
      "SpecificCharacterSet": "ISO_IR 100",
      "StudyID": "1",
      "StudyTime": "130048.474000",
      "TransmitCoilName": "Body",
      "VariableFlipAngleFlag": "N",
      "WindowCenterWidthExplanation": "Algo1",
      "dBdt": 0.0},
    "slices": {}
  },
  "time": {
    "samples": {
      "AcquisitionNumber": [1, 2, 3, 4, 5, 6, 7, 8, 9, 10, 11, 12, 13, 14, 15, 16, 17, 18, 19, 20, 21, 22, 23, 24, 25, 26, 27, 28, 29, 30, 31, 32, 33, 34, 35, 36, 37, 38, 39, 40, 41, 42, 43, 44, 45, 46, 47, 48, 49, 50, 51, 52, 53, 54, 55, 56, 57, 58, 59, 60, 61, 62, 63, 64, 65, 66, 67, 68, 69, 70, 71, 72, 73, 74, 75, 76, 77, 78, 79, 80, 81, 82, 83, 84, 85, 86, 87, 88, 89, 90, 91, 92, 93, 94, 95, 96, 97, 98, 99, 100, 101, 102, 103, 104, 105, 106, 107, 108, 109, 110, 111, 112, 113, 114, 115, 116, 117, 118, 119, 120, 121, 122, 123, 124, 125, 126, 127, 128, 129, 130, 131, 132, 133, 134, 135, 136, 137, 138, 139, 140, 141, 142, 143, 144, 145, 146, 147, 148, 149, 150, 151, 152, 153, 154, 155, 156],
      "AcquisitionTime": ["133505.445000", "133507.445000", "133509.445000", "133511.445000", "133513.445000", "133515.445000", "133517.445000", "133519.445000", "133521.445000", "133523.445000", "133525.445000", "133527.445000", "133529.445000", "133531.445000", "133533.445000", "133535.445000", "133537.445000", "133539.445000", "133541.445000", "133543.445000", "133545.445000", "133547.445000", "133549.445000", "133551.445000", "133553.445000", "133555.445000", "133557.445000", "133559.445000", "133601.445000", "133603.445000", "133605.445000", "133607.445000", "133609.445000", "133611.445000", "133613.445000", "133615.445000", "133617.445000", "133619.445000", "133621.445000", "133623.445000", "133625.445000", "133627.445000", "133629.445000", "133631.445000", "133633.445000", "133635.445000", "133637.445000", "133639.445000", "133641.445000", "133643.445000", "133645.445000", "133647.445000", "133649.445000", "133651.445000", "133653.445000", "133655.445000", "133657.445000", "133659.445000", "133701.445000", "133703.445000", "133705.445000", "133707.445000", "133709.445000", "133711.445000", "133713.445000", "133715.445000", "133717.445000", "133719.445000", "133721.445000", "133723.445000", "133725.445000", "133727.445000", "133729.445000", "133731.445000", "133733.445000", "133735.445000", "133737.445000", "133739.445000", "133741.445000", "133743.445000", "133745.445000", "133747.445000", "133749.445000", "133751.445000", "133753.445000", "133755.445000", "133757.445000", "133759.445000", "133801.445000", "133803.445000", "133805.445000", "133807.445000", "133809.445000", "133811.445000", "133813.445000", "133815.445000", "133817.445000", "133819.445000", "133821.445000", "133823.445000", "133825.445000", "133827.445000", "133829.445000", "133831.445000", "133833.445000", "133835.445000", "133837.445000", "133839.445000", "133841.445000", "133843.445000", "133845.445000", "133847.445000", "133849.445000", "133851.445000", "133853.445000", "133855.445000", "133857.445000", "133859.445000", "133901.445000", "133903.445000", "133905.445000", "133907.445000", "133909.445000", "133911.445000", "133913.445000", "133915.445000", "133917.445000", "133919.445000", "133921.445000", "133923.445000", "133925.445000", "133927.445000", "133929.445000", "133931.445000", "133933.445000", "133935.445000", "133937.445000", "133939.445000", "133941.445000", "133943.445000", "133945.445000", "133947.445000", "133949.445000", "133951.445000", "133953.445000", "133955.445000", "133957.445000", "133959.445000", "134001.445000", "134003.445000", "134005.445000", "134007.445000", "134009.445000", "134011.445000", "134013.445000", "134015.445000"],
      "ContentTime": ["133507.528000", "133509.023000", "133511.024000", "133513.023000", "133515.023000", "133517.024000", "133519.024000", "133521.024000", "133523.023000", "133525.523000", "133527.023000", "133529.023000", "133531.523000", "133533.024000", "133535.024000", "133537.025000", "133539.024000", "133541.024000", "133543.023000", "133545.023000", "133547.024000", "133549.023000", "133551.023000", "133553.024000", "133555.025000", "133557.024000", "133559.023000", "133601.023000", "133603.023000", "133605.023000", "133607.024000", "133609.023000", "133611.025000", "133613.024000", "133615.025000", "133617.023000", "133619.023000", "133621.023000", "133623.023000", "133625.024000", "133627.024000", "133629.024000", "133631.024000", "133633.024000", "133635.023000", "133637.024000", "133639.023000", "133641.024000", "133643.023000", "133645.024000", "133647.524000", "133649.025000", "133651.524000", "133653.023000", "133655.023000", "133657.023000", "133659.024000", "133701.023000", "133703.024000", "133705.524000", "133707.024000", "133709.023000", "133711.023000", "133713.023000", "133715.023000", "133717.023000", "133719.024000", "133721.024000", "133723.025000", "133725.024000", "133727.023000", "133729.023000", "133731.024000", "133733.024000", "133735.024000", "133737.023000", "133739.025000", "133741.024000", "133743.024000", "133745.523000", "133747.023000", "133749.024000", "133751.024000", "133753.024000", "133755.025000", "133757.024000", "133759.024000", "133801.024000", "133803.024000", "133805.023000", "133807.024000", "133809.024000", "133811.024000", "133813.025000", "133815.025000", "133817.025000", "133819.023000", "133821.023000", "133823.023000", "133825.023000", "133827.024000", "133829.023000", "133831.524000", "133833.524000", "133835.025000", "133837.524000", "133839.023000", "133841.023000", "133843.524000", "133845.024000", "133847.024000", "133849.025000", "133851.025000", "133853.024000", "133855.023000", "133857.023000", "133859.023000", "133901.023000", "133903.023000", "133905.024000", "133907.024000", "133909.025000", "133911.023000", "133913.023000", "133915.023000", "133917.524000", "133919.024000", "133921.023000", "133923.025000", "133925.024000", "133927.024000", "133929.023000", "133931.023000", "133933.023000", "133935.024000", "133937.023000", "133939.024000", "133941.025000", "133943.025000", "133945.024000", "133947.024000", "133949.023000", "133951.024000", "133953.024000", "133955.023000", "133957.023000", "133959.025000", "134001.024000", "134003.525000", "134005.023000", "134007.023000", "134009.024000", "134011.023000", "134013.024000", "134015.025000", "134017.085000"],
      "InstanceCreationTime": ["133507.528000", "133509.023000", "133511.024000", "133513.023000", "133515.023000", "133517.024000", "133519.024000", "133521.024000", "133523.023000", "133525.523000", "133527.023000", "133529.023000", "133531.523000", "133533.024000", "133535.024000", "133537.025000", "133539.024000", "133541.024000", "133543.023000", "133545.023000", "133547.024000", "133549.023000", "133551.023000", "133553.024000", "133555.025000", "133557.024000", "133559.023000", "133601.023000", "133603.023000", "133605.023000", "133607.024000", "133609.023000", "133611.025000", "133613.024000", "133615.025000", "133617.023000", "133619.023000", "133621.023000", "133623.023000", "133625.024000", "133627.024000", "133629.024000", "133631.024000", "133633.024000", "133635.023000", "133637.024000", "133639.023000", "133641.024000", "133643.023000", "133645.024000", "133647.524000", "133649.025000", "133651.524000", "133653.023000", "133655.023000", "133657.023000", "133659.024000", "133701.023000", "133703.024000", "133705.524000", "133707.024000", "133709.023000", "133711.023000", "133713.023000", "133715.023000", "133717.023000", "133719.024000", "133721.024000", "133723.025000", "133725.024000", "133727.023000", "133729.023000", "133731.024000", "133733.024000", "133735.024000", "133737.023000", "133739.025000", "133741.024000", "133743.024000", "133745.523000", "133747.023000", "133749.024000", "133751.024000", "133753.024000", "133755.025000", "133757.024000", "133759.024000", "133801.024000", "133803.024000", "133805.023000", "133807.024000", "133809.024000", "133811.024000", "133813.025000", "133815.025000", "133817.025000", "133819.023000", "133821.023000", "133823.023000", "133825.023000", "133827.024000", "133829.023000", "133831.524000", "133833.524000", "133835.025000", "133837.524000", "133839.023000", "133841.023000", "133843.524000", "133845.024000", "133847.024000", "133849.025000", "133851.025000", "133853.024000", "133855.023000", "133857.023000", "133859.023000", "133901.023000", "133903.023000", "133905.024000", "133907.024000", "133909.025000", "133911.023000", "133913.023000", "133915.023000", "133917.524000", "133919.024000", "133921.023000", "133923.025000", "133925.024000", "133927.024000", "133929.023000", "133931.023000", "133933.023000", "133935.024000", "133937.023000", "133939.024000", "133941.025000", "133943.025000", "133945.024000", "133947.024000", "133949.023000", "133951.024000", "133953.024000", "133955.023000", "133957.023000", "133959.025000", "134001.024000", "134003.525000", "134005.023000", "134007.023000", "134009.024000", "134011.023000", "134013.024000", "134015.025000", "134017.085000"],
      "InstanceNumber": [1, 2, 3, 4, 5, 6, 7, 8, 9, 10, 11, 12, 13, 14, 15, 16, 17, 18, 19, 20, 21, 22, 23, 24, 25, 26, 27, 28, 29, 30, 31, 32, 33, 34, 35, 36, 37, 38, 39, 40, 41, 42, 43, 44, 45, 46, 47, 48, 49, 50, 51, 52, 53, 54, 55, 56, 57, 58, 59, 60, 61, 62, 63, 64, 65, 66, 67, 68, 69, 70, 71, 72, 73, 74, 75, 76, 77, 78, 79, 80, 81, 82, 83, 84, 85, 86, 87, 88, 89, 90, 91, 92, 93, 94, 95, 96, 97, 98, 99, 100, 101, 102, 103, 104, 105, 106, 107, 108, 109, 110, 111, 112, 113, 114, 115, 116, 117, 118, 119, 120, 121, 122, 123, 124, 125, 126, 127, 128, 129, 130, 131, 132, 133, 134, 135, 136, 137, 138, 139, 140, 141, 142, 143, 144, 145, 146, 147, 148, 149, 150, 151, 152, 153, 154, 155, 156],
      "LargestImagePixelValue": [3127, 3092, 3154, 3062, 3135, 3122, 3114, 3092, 3143, 3107, 3087, 3097, 3053, 3053, 3099, 3100, 3109, 3058, 3116, 3153, 3141, 3112, 3138, 3126, 3079, 3105, 3131, 3109, 3176, 3149, 3125, 3083, 3098, 3061, 3073, 3095, 3112, 3128, 3073, 3119, 3195, 3133, 3137, 3128, 3113, 3039, 3056, 3066, 3071, 3153, 3113, 3097, 3073, 3039, 3026, 3053, 3022, 3049, 3044, 3045, 3083, 3087, 3099, 3103, 3131, 3104, 3126, 3144, 3099, 3154, 3108, 3142, 3130, 3132, 3077, 3067, 3107, 3095, 3076, 3074, 3071, 3072, 3059, 3079, 3093, 3117, 3112, 3152, 3167, 3140, 3124, 3123, 3111, 3102, 3145, 3112, 3135, 3142, 3150, 3125, 3162, 3135, 3110, 3157, 3109, 3085, 3095, 3094, 3109, 3106, 3078, 3097, 3093, 3156, 3164, 3125, 3065, 3121, 3124, 3082, 3084, 3063, 3085, 3078, 3056, 3069, 3070, 3084, 3095, 3053, 3047, 3051, 3060, 3071, 3079, 3058, 3068, 3085, 3074, 3073, 3017, 3056, 3044, 3028, 3011, 3017, 3076, 3056, 3070, 3054, 3097, 3104, 3053, 3109, 3088, 3140],
      "WindowCenter": [758.0, 758.0, 758.0, 757.0, 758.0, 757.0, 756.0, 755.0, 755.0, 755.0, 756.0, 757.0, 757.0, 756.0, 755.0, 757.0, 758.0, 757.0, 755.0, 755.0, 756.0, 756.0, 757.0, 757.0, 755.0, 754.0, 755.0, 755.0, 755.0, 755.0, 754.0, 754.0, 754.0, 754.0, 754.0, 753.0, 754.0, 755.0, 756.0, 756.0, 756.0, 756.0, 757.0, 757.0, 757.0, 755.0, 755.0, 755.0, 755.0, 756.0, 755.0, 755.0, 755.0, 754.0, 753.0, 754.0, 754.0, 756.0, 755.0, 755.0, 755.0, 754.0, 755.0, 754.0, 754.0, 755.0, 755.0, 756.0, 757.0, 758.0, 757.0, 757.0, 756.0, 756.0, 756.0, 756.0, 756.0, 756.0, 755.0, 754.0, 755.0, 755.0, 755.0, 755.0, 755.0, 754.0, 753.0, 756.0, 758.0, 758.0, 756.0, 756.0, 756.0, 757.0, 757.0, 756.0, 755.0, 754.0, 754.0, 754.0, 754.0, 755.0, 755.0, 755.0, 756.0, 756.0, 756.0, 756.0, 755.0, 755.0, 756.0, 754.0, 754.0, 754.0, 755.0, 754.0, 754.0, 755.0, 757.0, 756.0, 755.0, 754.0, 755.0, 754.0, 754.0, 753.0, 753.0, 754.0, 756.0, 754.0, 753.0, 753.0, 754.0, 753.0, 754.0, 753.0, 752.0, 753.0, 752.0, 752.0, 753.0, 754.0, 753.0, 752.0, 753.0, 753.0, 754.0, 755.0, 755.0, 754.0, 754.0, 753.0, 753.0, 754.0, 756.0, 757.0],
      "WindowWidth": [1633.0, 1632.0, 1633.0, 1630.0, 1632.0, 1631.0, 1628.0, 1625.0, 1623.0, 1625.0, 1629.0, 1630.0, 1629.0, 1627.0, 1625.0, 1628.0, 1633.0, 1630.0, 1625.0, 1624.0, 1626.0, 1628.0, 1630.0, 1628.0, 1623.0, 1621.0, 1624.0, 1624.0, 1625.0, 1625.0, 1622.0, 1622.0, 1622.0, 1623.0, 1622.0, 1619.0, 1622.0, 1624.0, 1626.0, 1626.0, 1627.0, 1628.0, 1630.0, 1630.0, 1629.0, 1625.0, 1625.0, 1625.0, 1625.0, 1627.0, 1625.0, 1625.0, 1623.0, 1622.0, 1618.0, 1621.0, 1622.0, 1626.0, 1625.0, 1624.0, 1623.0, 1623.0, 1624.0, 1621.0, 1620.0, 1623.0, 1624.0, 1626.0, 1629.0, 1632.0, 1630.0, 1630.0, 1627.0, 1628.0, 1627.0, 1626.0, 1626.0, 1626.0, 1623.0, 1622.0, 1623.0, 1624.0, 1624.0, 1624.0, 1623.0, 1621.0, 1619.0, 1626.0, 1632.0, 1632.0, 1627.0, 1626.0, 1626.0, 1628.0, 1629.0, 1626.0, 1623.0, 1621.0, 1621.0, 1621.0, 1622.0, 1624.0, 1624.0, 1625.0, 1626.0, 1627.0, 1626.0, 1626.0, 1624.0, 1625.0, 1626.0, 1622.0, 1620.0, 1620.0, 1623.0, 1621.0, 1622.0, 1625.0, 1629.0, 1627.0, 1625.0, 1621.0, 1623.0, 1622.0, 1621.0, 1619.0, 1618.0, 1622.0, 1625.0, 1620.0, 1618.0, 1619.0, 1620.0, 1619.0, 1622.0, 1618.0, 1617.0, 1617.0, 1615.0, 1617.0, 1620.0, 1620.0, 1617.0, 1616.0, 1618.0, 1618.0, 1622.0, 1623.0, 1623.0, 1621.0, 1621.0, 1619.0, 1618.0, 1621.0, 1625.0, 1630.0]
    },
    "slices": {}
  }
}