{
  "AcquisitionMatrixPE": 100,
  "AcquisitionNumber": 1,
  "AcquisitionTime": "14:02:40.662500",
  "BandwidthPerPixelPhaseEncode": 18.519,
  "BaseResolution": 100,
  "BodyPartExamined": "BRAIN",
  "CoilCombinationMethod": "Sum of Squares",
  "ConsistencyInfo": "N4_VE11C_LATEST_20160120",
  "ConversionSoftware": "dcm2niix",
  "ConversionSoftwareVersion": "v1.0.20211006",
  "DerivedVendorReportedEchoSpacing": 0.000539986,
  "DeviceSerialNumber": "166078",
  "DwellTime": 2.1e-06,
  "EchoTime": 0.034,
  "EchoTrainLength": 100,
  "EffectiveEchoSpacing": 0.000539986,
  "FlipAngle": 90,
  "ImageOrientationPatientDICOM": [1, 0, 0, 0, 0.992757, -0.120137],
  "ImageOrientationText": "Tra>Cor(-6.9)",
  "ImageType": [
    "ORIGINAL",
    "PRIMARY",
    "M",
    "ND",
    "MOSAIC"
],
  "ImagingFrequency": 123.258,
  "InPlanePhaseEncodingDirectionDICOM": "COL",
  "InstitutionAddress": "Street StreetNo,Bei Jing,District,CN,ZIP",
  "InstitutionName": "BeiJing Normal University",
  "InstitutionalDepartmentName": "Department",
  "MRAcquisitionType": "2D",
  "MagneticFieldStrength": 3,
  "Manufacturer": "Siemens",
  "ManufacturersModelName": "Prisma",
  "Modality": "MR",
  "MultibandAccelerationFactor": 3,
  "PartialFourier": 1,
  "PatientPosition": "HFS",
  "PercentPhaseFOV": 100,
  "PercentSampling": 100,
  "PhaseEncodingDirection": "j-",
  "PhaseEncodingSteps": 100,
  "PhaseResolution": 1,
  "PixelBandwidth": 2380,
  "ProcedureStepDescription": "BNU_P2018_64CH^Zhen.ZongLei",
  "ProtocolName": "bold_100x100_s3_2x2x2_static_156",
  "PulseSequenceDetails": "%SiemensSeq%\\ep2d_bold",
  "ReceiveCoilActiveElements": "HC1-7;NC1",
  "ReceiveCoilName": "HeadNeck_64",
  "ReconMatrixPE": 100,
  "RefLinesPE": 32,
  "RepetitionTime": 2,
  "SAR": 0.0736225,
  "ScanOptions": "FS",
  "ScanningSequence": "EP",
  "SequenceName": "*epfid2d1_100",
  "SequenceVariant": "SK",
  "SeriesDescription": "bold_100x100_s3_2x2x2_static_156",
  "SeriesNumber": 14,
  "ShimSetting": [-5472, -11548, -1213, 455, -35, -171, 38, 54],
  "SliceThickness": 2,
  "SliceTiming": [1.485, 0, 0.99, 0.0825, 1.0725, 0.165, 1.155, 0.2475, 1.2375, 0.33, 1.32, 0.4125, 1.4025, 0.5775, 1.5675, 0.66, 1.65, 0.7425, 1.7325, 0.825, 1.815, 0.9075, 1.8975, 0.495, 1.485, 0, 0.99, 0.0825, 1.0725, 0.165, 1.155, 0.2475, 1.2375, 0.33, 1.32, 0.4125, 1.4025, 0.5775, 1.5675, 0.66, 1.65, 0.7425, 1.7325, 0.825, 1.815, 0.9075, 1.8975, 0.495, 1.485, 0, 0.99, 0.0825, 1.0725, 0.165, 1.155, 0.2475, 1.2375, 0.33, 1.32, 0.4125, 1.4025, 0.5775, 1.5675, 0.66, 1.65, 0.7425, 1.7325, 0.825, 1.815, 0.9075, 1.8975, 0.495],
  "SoftwareVersions": "syngo MR E11",
  "SpacingBetweenSlices": 2,
  "StationName": "AWP166078",
  "TaskName": "action",
  "TotalReadoutTime": 0.0534586,
  "TxRefAmp": 207.624,
  "dcmmeta_affine": [
    [-2.0, 0.0, 0.0, 100.0],
    [0.0, 1.9855146408081055, -0.24027368426322937, -77.40457153320312],
    [0.0, 0.24027368426322937, 1.9855146408081055, -69.3778305053711],
    [0.0, 0.0, 0.0, 1.0]
],
  "dcmmeta_reorient_transform": [
    [0.0, -1.0, 0.0, 99.0],
    [1.0, 0.0, 0.0, 0.0],
    [0.0, 0.0, 1.0, 0.0],
    [0.0, 0.0, 0.0, 1.0]
],
  "dcmmeta_shape": [100, 100, 72, 156],
  "dcmmeta_slice_dim": 2,
  "dcmmeta_version": 0.6,
  "global": {
    "const": {
      "AcquisitionMatrix": [100, 0, 0, 100],
      "AngioFlag": "N",
      "BitsAllocated": 16,
      "BitsStored": 12,
      "BodyPartExamined": "BRAIN",
      "Columns": 900,
      "EchoNumbers": 1,
      "EchoTime": 34.0,
      "EchoTrainLength": 100,
      "FlipAngle": 90.0,
      "HighBit": 11,
      "ImageOrientationPatient": [1.0, 0.0, 0.0, 0.0, 0.99275734119381, -0.1201368449136],
      "ImagePositionPatient": [-900.0, -913.3672538945, 50.518744528694],
      "ImageType": [
        "ORIGINAL",
        "PRIMARY",
        "M",
        "ND",
        "MOSAIC"
],
      "ImagedNucleus": "1H",
      "ImagingFrequency": 123.257672,
      "InPlanePhaseEncodingDirection": "COL",
      "MRAcquisitionType": "2D",
      "MagneticFieldStrength": 3.0,
      "Manufacturer": "SIEMENS",
      "ManufacturerModelName": "Prisma",
      "Modality": "MR",
      "NumberOfAverages": 1.0,
      "NumberOfPhaseEncodingSteps": 100,
      "PercentPhaseFieldOfView": 100.0,
      "PercentSampling": 100.0,
      "PerformedProcedureStepStartTime": "130048.573000",
      "PhotometricInterpretation": "MONOCHROME2",
      "PixelBandwidth": 2380.0,
      "PixelRepresentation": 0,
      "PixelSpacing": [2.0, 2.0],
      "ProtocolName": "bold_100x100_s3_2x2x2_static_156",
      "RepetitionTime": 2000.0,
      "Rows": 900,
      "SAR": 0.07362253711445,
      "SamplesPerPixel": 1,
      "ScanOptions": "FS",
      "ScanningSequence": "EP",
      "SequenceName": "*epfid2d1_100",
      "SequenceVariant": "SK",
      "SeriesDescription": "bold_100x100_s3_2x2x2_static_156",
      "SeriesNumber": 14,
      "SeriesTime": "140242.906000",
      "SliceLocation": -59.576205631537,
      "SliceThickness": 2.0,
      "SmallestImagePixelValue": 0,
      "SoftwareVersions": "syngo MR E11",
      "SpacingBetweenSlices": 1.9999999955865,
      "SpecificCharacterSet": "ISO_IR 100",
      "StudyID": "1",
      "StudyTime": "130048.474000",
      "TransmitCoilName": "Body",
      "VariableFlipAngleFlag": "N",
      "WindowCenterWidthExplanation": "Algo1",
      "dBdt": 0.0},
    "slices": {}
  },
  "time": {
    "samples": {
      "AcquisitionNumber": [1, 2, 3, 4, 5, 6, 7, 8, 9, 10, 11, 12, 13, 14, 15, 16, 17, 18, 19, 20, 21, 22, 23, 24, 25, 26, 27, 28, 29, 30, 31, 32, 33, 34, 35, 36, 37, 38, 39, 40, 41, 42, 43, 44, 45, 46, 47, 48, 49, 50, 51, 52, 53, 54, 55, 56, 57, 58, 59, 60, 61, 62, 63, 64, 65, 66, 67, 68, 69, 70, 71, 72, 73, 74, 75, 76, 77, 78, 79, 80, 81, 82, 83, 84, 85, 86, 87, 88, 89, 90, 91, 92, 93, 94, 95, 96, 97, 98, 99, 100, 101, 102, 103, 104, 105, 106, 107, 108, 109, 110, 111, 112, 113, 114, 115, 116, 117, 118, 119, 120, 121, 122, 123, 124, 125, 126, 127, 128, 129, 130, 131, 132, 133, 134, 135, 136, 137, 138, 139, 140, 141, 142, 143, 144, 145, 146, 147, 148, 149, 150, 151, 152, 153, 154, 155, 156],
      "AcquisitionTime": ["140240.662500", "140242.662500", "140244.662500", "140246.662500", "140248.662500", "140250.662500", "140252.662500", "140254.662500", "140256.662500", "140258.662500", "140300.662500", "140302.662500", "140304.662500", "140306.662500", "140308.662500", "140310.662500", "140312.662500", "140314.662500", "140316.662500", "140318.662500", "140320.662500", "140322.662500", "140324.662500", "140326.662500", "140328.662500", "140330.662500", "140332.662500", "140334.662500", "140336.662500", "140338.662500", "140340.662500", "140342.662500", "140344.662500", "140346.662500", "140348.662500", "140350.662500", "140352.662500", "140354.662500", "140356.662500", "140358.662500", "140400.662500", "140402.662500", "140404.662500", "140406.662500", "140408.662500", "140410.662500", "140412.662500", "140414.662500", "140416.662500", "140418.662500", "140420.662500", "140422.662500", "140424.662500", "140426.662500", "140428.662500", "140430.662500", "140432.662500", "140434.662500", "140436.662500", "140438.662500", "140440.662500", "140442.662500", "140444.662500", "140446.662500", "140448.662500", "140450.662500", "140452.662500", "140454.662500", "140456.662500", "140458.662500", "140500.662500", "140502.662500", "140504.662500", "140506.662500", "140508.662500", "140510.662500", "140512.662500", "140514.662500", "140516.662500", "140518.662500", "140520.662500", "140522.662500", "140524.662500", "140526.662500", "140528.662500", "140530.662500", "140532.662500", "140534.662500", "140536.662500", "140538.662500", "140540.662500", "140542.662500", "140544.662500", "140546.662500", "140548.662500", "140550.662500", "140552.662500", "140554.662500", "140556.662500", "140558.662500", "140600.662500", "140602.662500", "140604.662500", "140606.662500", "140608.662500", "140610.662500", "140612.662500", "140614.662500", "140616.662500", "140618.662500", "140620.662500", "140622.662500", "140624.662500", "140626.662500", "140628.662500", "140630.662500", "140632.662500", "140634.662500", "140636.662500", "140638.662500", "140640.662500", "140642.662500", "140644.662500", "140646.662500", "140648.662500", "140650.662500", "140652.662500", "140654.662500", "140656.662500", "140658.662500", "140700.662500", "140702.662500", "140704.662500", "140706.662500", "140708.662500", "140710.662500", "140712.662500", "140714.662500", "140716.662500", "140718.662500", "140720.662500", "140722.662500", "140724.662500", "140726.662500", "140728.662500", "140730.662500", "140732.662500", "140734.662500", "140736.662500", "140738.662500", "140740.662500", "140742.662500", "140744.662500", "140746.662500", "140748.662500", "140750.662500"],
      "ContentTime": ["140242.909000", "140244.404000", "140246.404000", "140248.404000", "140250.404000", "140252.405000", "140254.405000", "140256.404000", "140258.404000", "140300.405000", "140302.404000", "140304.405000", "140306.405000", "140308.405000", "140310.404000", "140312.404000", "140314.404000", "140316.405000", "140318.404000", "140320.404000", "140322.405000", "140324.405000", "140326.404000", "140328.404000", "140330.404000", "140332.404000", "140334.405000", "140336.404000", "140338.405000", "140340.405000", "140342.405000", "140344.404000", "140346.404000", "140348.404000", "140350.403000", "140352.405000", "140354.405000", "140356.404000", "140358.404000", "140400.404000", "140402.404000", "140404.405000", "140406.404000", "140408.403000", "140410.404000", "140412.405000", "140414.405000", "140416.405000", "140418.404000", "140420.405000", "140422.405000", "140424.403000", "140426.404000", "140428.404000", "140430.404000", "140432.404000", "140434.405000", "140436.404000", "140438.404000", "140440.404000", "140442.404000", "140444.404000", "140446.404000", "140448.405000", "140450.405000", "140452.404000", "140454.405000", "140456.404000", "140458.404000", "140500.403000", "140502.404000", "140504.404000", "140506.404000", "140508.404000", "140510.404000", "140512.404000", "140514.405000", "140516.404000", "140518.403000", "140520.405000", "140522.405000", "140524.405000", "140526.404000", "140528.404000", "140530.404000", "140532.405000", "140534.404000", "140536.405000", "140538.405000", "140540.405000", "140542.405000", "140544.405000", "140546.404000", "140548.404000", "140550.405000", "140552.403000", "140554.404000", "140556.405000", "140558.404000", "140600.404000", "140602.405000", "140604.404000", "140606.404000", "140608.404000", "140610.403000", "140612.405000", "140614.404000", "140616.405000", "140618.404000", "140620.404000", "140622.405000", "140624.404000", "140626.404000", "140628.404000", "140630.404000", "140632.404000", "140634.404000", "140636.404000", "140638.404000", "140640.405000", "140642.404000", "140644.410000", "140646.405000", "140648.405000", "140650.404000", "140652.405000", "140654.404000", "140656.405000", "140658.405000", "140700.404000", "140702.403000", "140704.405000", "140706.405000", "140708.404000", "140710.404000", "140712.405000", "140714.404000", "140716.404000", "140718.405000", "140720.404000", "140722.404000", "140724.405000", "140726.405000", "140728.405000", "140730.404000", "140732.404000", "140734.405000", "140736.405000", "140738.404000", "140740.405000", "140742.405000", "140744.404000", "140746.405000", "140748.405000", "140750.404000", "140752.024000"],
      "InstanceCreationTime": ["140242.909000", "140244.404000", "140246.404000", "140248.404000", "140250.404000", "140252.405000", "140254.405000", "140256.404000", "140258.404000", "140300.405000", "140302.404000", "140304.405000", "140306.405000", "140308.405000", "140310.404000", "140312.404000", "140314.404000", "140316.405000", "140318.404000", "140320.404000", "140322.405000", "140324.405000", "140326.404000", "140328.404000", "140330.404000", "140332.404000", "140334.405000", "140336.404000", "140338.405000", "140340.405000", "140342.405000", "140344.404000", "140346.404000", "140348.404000", "140350.403000", "140352.405000", "140354.405000", "140356.404000", "140358.404000", "140400.404000", "140402.404000", "140404.405000", "140406.404000", "140408.403000", "140410.404000", "140412.405000", "140414.405000", "140416.405000", "140418.404000", "140420.405000", "140422.405000", "140424.403000", "140426.404000", "140428.404000", "140430.404000", "140432.404000", "140434.405000", "140436.404000", "140438.404000", "140440.404000", "140442.404000", "140444.404000", "140446.404000", "140448.405000", "140450.405000", "140452.404000", "140454.405000", "140456.404000", "140458.404000", "140500.403000", "140502.404000", "140504.404000", "140506.404000", "140508.404000", "140510.404000", "140512.404000", "140514.405000", "140516.404000", "140518.403000", "140520.405000", "140522.405000", "140524.405000", "140526.404000", "140528.404000", "140530.404000", "140532.405000", "140534.404000", "140536.405000", "140538.405000", "140540.405000", "140542.405000", "140544.405000", "140546.404000", "140548.404000", "140550.405000", "140552.403000", "140554.404000", "140556.405000", "140558.404000", "140600.404000", "140602.405000", "140604.404000", "140606.404000", "140608.404000", "140610.403000", "140612.405000", "140614.404000", "140616.405000", "140618.404000", "140620.404000", "140622.405000", "140624.404000", "140626.404000", "140628.404000", "140630.404000", "140632.404000", "140634.404000", "140636.404000", "140638.404000", "140640.405000", "140642.404000", "140644.410000", "140646.405000", "140648.405000", "140650.404000", "140652.405000", "140654.404000", "140656.405000", "140658.405000", "140700.404000", "140702.403000", "140704.405000", "140706.405000", "140708.404000", "140710.404000", "140712.405000", "140714.404000", "140716.404000", "140718.405000", "140720.404000", "140722.404000", "140724.405000", "140726.405000", "140728.405000", "140730.404000", "140732.404000", "140734.405000", "140736.405000", "140738.404000", "140740.405000", "140742.405000", "140744.404000", "140746.405000", "140748.405000", "140750.404000", "140752.024000"],
      "InstanceNumber": [1, 2, 3, 4, 5, 6, 7, 8, 9, 10, 11, 12, 13, 14, 15, 16, 17, 18, 19, 20, 21, 22, 23, 24, 25, 26, 27, 28, 29, 30, 31, 32, 33, 34, 35, 36, 37, 38, 39, 40, 41, 42, 43, 44, 45, 46, 47, 48, 49, 50, 51, 52, 53, 54, 55, 56, 57, 58, 59, 60, 61, 62, 63, 64, 65, 66, 67, 68, 69, 70, 71, 72, 73, 74, 75, 76, 77, 78, 79, 80, 81, 82, 83, 84, 85, 86, 87, 88, 89, 90, 91, 92, 93, 94, 95, 96, 97, 98, 99, 100, 101, 102, 103, 104, 105, 106, 107, 108, 109, 110, 111, 112, 113, 114, 115, 116, 117, 118, 119, 120, 121, 122, 123, 124, 125, 126, 127, 128, 129, 130, 131, 132, 133, 134, 135, 136, 137, 138, 139, 140, 141, 142, 143, 144, 145, 146, 147, 148, 149, 150, 151, 152, 153, 154, 155, 156],
      "LargestImagePixelValue": [3200, 3233, 3169, 3142, 3100, 3076, 3110, 3029, 3072, 2988, 2973, 2988, 2976, 2995, 2950, 2990, 2949, 2976, 2943, 2940, 2962, 2979, 2980, 2965, 2939, 2944, 2936, 2972, 2954, 2974, 3037, 3072, 3037, 2986, 2948, 2978, 2980, 3009, 2976, 2992, 2982, 2976, 3020, 3046, 3050, 3062, 3060, 3081, 3092, 3050, 2996, 3012, 2985, 3046, 2998, 3059, 3049, 3071, 3088, 3041, 3027, 3033, 3071, 3005, 3016, 2976, 2953, 3005, 2996, 3017, 2980, 2934, 2942, 2969, 2956, 2945, 2980, 2976, 2951, 2955, 2986, 2956, 2935, 2886, 2916, 2882, 2900, 2935, 2921, 2896, 2984, 2997, 3001, 3009, 3035, 3046, 2999, 2987, 2967, 2940, 2940, 2959, 2961, 3023, 2956, 2958, 2975, 2932, 2954, 2867, 2906, 2881, 2898, 2903, 2854, 2879, 2883, 2862, 2894, 2876, 2889, 2935, 2947, 2888, 2913, 2881, 2881, 2926, 2911, 2911, 2918, 2939, 2928, 2869, 2872, 2923, 2919, 2909, 2939, 2929, 2923, 2901, 2866, 2899, 2865, 2870, 2851, 2864, 2882, 2862, 2915, 2850, 2863, 2884, 2897, 2863],
      "WindowCenter": [759.0, 759.0, 758.0, 757.0, 758.0, 758.0, 757.0, 756.0, 757.0, 757.0, 757.0, 757.0, 756.0, 755.0, 755.0, 755.0, 754.0, 754.0, 755.0, 756.0, 756.0, 756.0, 756.0, 756.0, 757.0, 757.0, 757.0, 757.0, 756.0, 757.0, 759.0, 761.0, 760.0, 759.0, 758.0, 757.0, 758.0, 758.0, 757.0, 757.0, 757.0, 757.0, 757.0, 756.0, 757.0, 758.0, 758.0, 759.0, 759.0, 758.0, 757.0, 756.0, 755.0, 756.0, 755.0, 757.0, 757.0, 758.0, 759.0, 758.0, 756.0, 756.0, 757.0, 756.0, 756.0, 756.0, 757.0, 758.0, 758.0, 758.0, 757.0, 757.0, 756.0, 757.0, 756.0, 756.0, 756.0, 756.0, 756.0, 756.0, 757.0, 756.0, 755.0, 755.0, 756.0, 756.0, 756.0, 756.0, 756.0, 756.0, 756.0, 756.0, 757.0, 758.0, 759.0, 759.0, 758.0, 757.0, 758.0, 759.0, 758.0, 758.0, 756.0, 757.0, 758.0, 757.0, 758.0, 758.0, 759.0, 758.0, 758.0, 756.0, 756.0, 756.0, 755.0, 755.0, 756.0, 755.0, 756.0, 756.0, 756.0, 756.0, 756.0, 755.0, 757.0, 757.0, 756.0, 754.0, 755.0, 755.0, 756.0, 756.0, 756.0, 755.0, 757.0, 758.0, 757.0, 756.0, 756.0, 756.0, 757.0, 758.0, 757.0, 758.0, 757.0, 757.0, 758.0, 759.0, 757.0, 756.0, 756.0, 756.0, 757.0, 758.0, 758.0, 757.0],
      "WindowWidth": [1636.0, 1633.0, 1631.0, 1629.0, 1630.0, 1630.0, 1630.0, 1627.0, 1630.0, 1629.0, 1629.0, 1629.0, 1625.0, 1624.0, 1624.0, 1622.0, 1621.0, 1621.0, 1624.0, 1625.0, 1625.0, 1626.0, 1625.0, 1627.0, 1629.0, 1628.0, 1627.0, 1628.0, 1626.0, 1628.0, 1634.0, 1638.0, 1637.0, 1633.0, 1630.0, 1629.0, 1631.0, 1632.0, 1629.0, 1628.0, 1628.0, 1629.0, 1627.0, 1625.0, 1627.0, 1631.0, 1630.0, 1632.0, 1633.0, 1630.0, 1628.0, 1625.0, 1623.0, 1626.0, 1623.0, 1627.0, 1628.0, 1632.0, 1632.0, 1630.0, 1626.0, 1626.0, 1628.0, 1625.0, 1626.0, 1625.0, 1627.0, 1630.0, 1630.0, 1629.0, 1627.0, 1627.0, 1626.0, 1626.0, 1625.0, 1624.0, 1626.0, 1625.0, 1625.0, 1624.0, 1627.0, 1624.0, 1623.0, 1624.0, 1626.0, 1626.0, 1624.0, 1626.0, 1626.0, 1625.0, 1625.0, 1624.0, 1627.0, 1630.0, 1633.0, 1632.0, 1629.0, 1628.0, 1630.0, 1632.0, 1632.0, 1630.0, 1625.0, 1627.0, 1629.0, 1628.0, 1630.0, 1631.0, 1634.0, 1631.0, 1630.0, 1625.0, 1624.0, 1624.0, 1622.0, 1623.0, 1624.0, 1623.0, 1625.0, 1625.0, 1625.0, 1625.0, 1624.0, 1622.0, 1627.0, 1627.0, 1625.0, 1621.0, 1622.0, 1622.0, 1626.0, 1627.0, 1625.0, 1623.0, 1627.0, 1630.0, 1629.0, 1624.0, 1624.0, 1625.0, 1629.0, 1630.0, 1629.0, 1629.0, 1627.0, 1627.0, 1630.0, 1632.0, 1629.0, 1626.0, 1626.0, 1626.0, 1628.0, 1631.0, 1631.0, 1628.0]
    },
    "slices": {}
  }
}