{
  "AcquisitionMatrixPE": 100,
  "AcquisitionNumber": 1,
  "AcquisitionTime": "13:29:16.760000",
  "BandwidthPerPixelPhaseEncode": 18.519,
  "BaseResolution": 100,
  "BodyPartExamined": "BRAIN",
  "CoilCombinationMethod": "Sum of Squares",
  "ConsistencyInfo": "N4_VE11C_LATEST_20160120",
  "ConversionSoftware": "dcm2niix",
  "ConversionSoftwareVersion": "v1.0.20211006",
  "DerivedVendorReportedEchoSpacing": 0.000539986,
  "DeviceSerialNumber": "166078",
  "DwellTime": 2.1e-06,
  "EchoTime": 0.034,
  "EchoTrainLength": 100,
  "EffectiveEchoSpacing": 0.000539986,
  "FlipAngle": 90,
  "ImageOrientationPatientDICOM": [1, 0, 0, 0, 0.992757, -0.120137],
  "ImageOrientationText": "Tra>Cor(-6.9)",
  "ImageType": [
    "ORIGINAL",
    "PRIMARY",
    "M",
    "ND",
    "MOSAIC"
],
  "ImagingFrequency": 123.258,
  "InPlanePhaseEncodingDirectionDICOM": "COL",
  "InstitutionAddress": "Street StreetNo,Bei Jing,District,CN,ZIP",
  "InstitutionName": "BeiJing Normal University",
  "InstitutionalDepartmentName": "Department",
  "MRAcquisitionType": "2D",
  "MagneticFieldStrength": 3,
  "Manufacturer": "Siemens",
  "ManufacturersModelName": "Prisma",
  "Modality": "MR",
  "MultibandAccelerationFactor": 3,
  "PartialFourier": 1,
  "PatientPosition": "HFS",
  "PercentPhaseFOV": 100,
  "PercentSampling": 100,
  "PhaseEncodingDirection": "j-",
  "PhaseEncodingSteps": 100,
  "PhaseResolution": 1,
  "PixelBandwidth": 2380,
  "ProcedureStepDescription": "BNU_P2018_64CH^Zhen.ZongLei",
  "ProtocolName": "bold_100x100_s3_2x2x2_static_156",
  "PulseSequenceDetails": "%SiemensSeq%\\ep2d_bold",
  "ReceiveCoilActiveElements": "HC1-7;NC1",
  "ReceiveCoilName": "HeadNeck_64",
  "ReconMatrixPE": 100,
  "RefLinesPE": 32,
  "RepetitionTime": 2,
  "SAR": 0.0736225,
  "ScanOptions": "FS",
  "ScanningSequence": "EP",
  "SequenceName": "*epfid2d1_100",
  "SequenceVariant": "SK",
  "SeriesDescription": "bold_100x100_s3_2x2x2_static_156",
  "SeriesNumber": 7,
  "ShimSetting": [-5472, -11548, -1213, 455, -35, -171, 38, 54],
  "SliceThickness": 2,
  "SliceTiming": [1.485, 0, 0.99, 0.0825, 1.0725, 0.165, 1.155, 0.2475, 1.2375, 0.33, 1.32, 0.4125, 1.4025, 0.5775, 1.5675, 0.66, 1.65, 0.7425, 1.7325, 0.825, 1.815, 0.9075, 1.8975, 0.495, 1.485, 0, 0.99, 0.0825, 1.0725, 0.165, 1.155, 0.2475, 1.2375, 0.33, 1.32, 0.4125, 1.4025, 0.5775, 1.5675, 0.66, 1.65, 0.7425, 1.7325, 0.825, 1.815, 0.9075, 1.8975, 0.495, 1.485, 0, 0.99, 0.0825, 1.0725, 0.165, 1.155, 0.2475, 1.2375, 0.33, 1.32, 0.4125, 1.4025, 0.5775, 1.5675, 0.66, 1.65, 0.7425, 1.7325, 0.825, 1.815, 0.9075, 1.8975, 0.495],
  "SoftwareVersions": "syngo MR E11",
  "SpacingBetweenSlices": 2,
  "StationName": "AWP166078",
  "TaskName": "action",
  "TotalReadoutTime": 0.0534586,
  "TxRefAmp": 207.624,
  "dcmmeta_affine": [
    [-2.0, 0.0, 0.0, 100.0],
    [0.0, 1.9855146408081055, -0.24027368426322937, -77.40457153320312],
    [0.0, 0.24027368426322937, 1.9855146408081055, -69.3778305053711],
    [0.0, 0.0, 0.0, 1.0]
],
  "dcmmeta_reorient_transform": [
    [0.0, -1.0, 0.0, 99.0],
    [1.0, 0.0, 0.0, 0.0],
    [0.0, 0.0, 1.0, 0.0],
    [0.0, 0.0, 0.0, 1.0]
],
  "dcmmeta_shape": [100, 100, 72, 156],
  "dcmmeta_slice_dim": 2,
  "dcmmeta_version": 0.6,
  "global": {
    "const": {
      "AcquisitionMatrix": [100, 0, 0, 100],
      "AngioFlag": "N",
      "BitsAllocated": 16,
      "BitsStored": 12,
      "BodyPartExamined": "BRAIN",
      "Columns": 900,
      "EchoNumbers": 1,
      "EchoTime": 34.0,
      "EchoTrainLength": 100,
      "FlipAngle": 90.0,
      "HighBit": 11,
      "ImageOrientationPatient": [1.0, 0.0, 0.0, 0.0, 0.99275734119381, -0.1201368449136],
      "ImagePositionPatient": [-900.0, -913.3672538945, 50.518744528694],
      "ImageType": [
        "ORIGINAL",
        "PRIMARY",
        "M",
        "ND",
        "MOSAIC"
],
      "ImagedNucleus": "1H",
      "ImagingFrequency": 123.25766,
      "InPlanePhaseEncodingDirection": "COL",
      "MRAcquisitionType": "2D",
      "MagneticFieldStrength": 3.0,
      "Manufacturer": "SIEMENS",
      "ManufacturerModelName": "Prisma",
      "Modality": "MR",
      "NumberOfAverages": 1.0,
      "NumberOfPhaseEncodingSteps": 100,
      "PercentPhaseFieldOfView": 100.0,
      "PercentSampling": 100.0,
      "PerformedProcedureStepStartTime": "130048.573000",
      "PhotometricInterpretation": "MONOCHROME2",
      "PixelBandwidth": 2380.0,
      "PixelRepresentation": 0,
      "PixelSpacing": [2.0, 2.0],
      "ProtocolName": "bold_100x100_s3_2x2x2_static_156",
      "RepetitionTime": 2000.0,
      "Rows": 900,
      "SAR": 0.07362253711445,
      "SamplesPerPixel": 1,
      "ScanOptions": "FS",
      "ScanningSequence": "EP",
      "SequenceName": "*epfid2d1_100",
      "SequenceVariant": "SK",
      "SeriesDescription": "bold_100x100_s3_2x2x2_static_156",
      "SeriesNumber": 7,
      "SeriesTime": "132918.970000",
      "SliceLocation": -59.576205631537,
      "SliceThickness": 2.0,
      "SmallestImagePixelValue": 0,
      "SoftwareVersions": "syngo MR E11",
      "SpacingBetweenSlices": 1.9999999955865,
      "SpecificCharacterSet": "ISO_IR 100",
      "StudyID": "1",
      "StudyTime": "130048.474000",
      "TransmitCoilName": "Body",
      "VariableFlipAngleFlag": "N",
      "WindowCenterWidthExplanation": "Algo1",
      "dBdt": 0.0},
    "slices": {}
  },
  "time": {
    "samples": {
      "AcquisitionNumber": [1, 2, 3, 4, 5, 6, 7, 8, 9, 10, 11, 12, 13, 14, 15, 16, 17, 18, 19, 20, 21, 22, 23, 24, 25, 26, 27, 28, 29, 30, 31, 32, 33, 34, 35, 36, 37, 38, 39, 40, 41, 42, 43, 44, 45, 46, 47, 48, 49, 50, 51, 52, 53, 54, 55, 56, 57, 58, 59, 60, 61, 62, 63, 64, 65, 66, 67, 68, 69, 70, 71, 72, 73, 74, 75, 76, 77, 78, 79, 80, 81, 82, 83, 84, 85, 86, 87, 88, 89, 90, 91, 92, 93, 94, 95, 96, 97, 98, 99, 100, 101, 102, 103, 104, 105, 106, 107, 108, 109, 110, 111, 112, 113, 114, 115, 116, 117, 118, 119, 120, 121, 122, 123, 124, 125, 126, 127, 128, 129, 130, 131, 132, 133, 134, 135, 136, 137, 138, 139, 140, 141, 142, 143, 144, 145, 146, 147, 148, 149, 150, 151, 152, 153, 154, 155, 156],
      "AcquisitionTime": ["132916.760000", "132918.760000", "132920.760000", "132922.760000", "132924.760000", "132926.760000", "132928.760000", "132930.760000", "132932.760000", "132934.760000", "132936.760000", "132938.760000", "132940.760000", "132942.760000", "132944.760000", "132946.760000", "132948.760000", "132950.760000", "132952.760000", "132954.760000", "132956.760000", "132958.760000", "133000.760000", "133002.760000", "133004.760000", "133006.760000", "133008.760000", "133010.760000", "133012.760000", "133014.760000", "133016.760000", "133018.760000", "133020.760000", "133022.760000", "133024.760000", "133026.760000", "133028.760000", "133030.760000", "133032.760000", "133034.760000", "133036.760000", "133038.760000", "133040.760000", "133042.760000", "133044.760000", "133046.760000", "133048.760000", "133050.760000", "133052.760000", "133054.760000", "133056.760000", "133058.760000", "133100.760000", "133102.760000", "133104.760000", "133106.760000", "133108.760000", "133110.760000", "133112.760000", "133114.760000", "133116.760000", "133118.760000", "133120.760000", "133122.760000", "133124.760000", "133126.760000", "133128.760000", "133130.760000", "133132.760000", "133134.760000", "133136.760000", "133138.760000", "133140.760000", "133142.760000", "133144.760000", "133146.760000", "133148.760000", "133150.760000", "133152.760000", "133154.760000", "133156.760000", "133158.760000", "133200.760000", "133202.760000", "133204.760000", "133206.760000", "133208.760000", "133210.760000", "133212.760000", "133214.760000", "133216.760000", "133218.760000", "133220.760000", "133222.760000", "133224.760000", "133226.760000", "133228.760000", "133230.760000", "133232.760000", "133234.760000", "133236.760000", "133238.760000", "133240.760000", "133242.760000", "133244.760000", "133246.760000", "133248.760000", "133250.760000", "133252.760000", "133254.760000", "133256.760000", "133258.760000", "133300.760000", "133302.760000", "133304.760000", "133306.760000", "133308.760000", "133310.760000", "133312.760000", "133314.760000", "133316.760000", "133318.760000", "133320.760000", "133322.760000", "133324.760000", "133326.760000", "133328.760000", "133330.760000", "133332.760000", "133334.760000", "133336.760000", "133338.760000", "133340.760000", "133342.760000", "133344.760000", "133346.760000", "133348.760000", "133350.760000", "133352.760000", "133354.760000", "133356.760000", "133358.760000", "133400.760000", "133402.760000", "133404.760000", "133406.760000", "133408.760000", "133410.760000", "133412.760000", "133414.760000", "133416.760000", "133418.760000", "133420.760000", "133422.760000", "133424.760000", "133426.760000"],
      "ContentTime": ["132918.973000", "132920.468000", "132922.469000", "132924.469000", "132926.469000", "132928.469000", "132930.468000", "132932.468000", "132934.469000", "132936.469000", "132938.468000", "132940.468000", "132942.469000", "132944.468000", "132946.469000", "132948.468000", "132950.468000", "132952.468000", "132954.468000", "132956.468000", "132958.468000", "133000.469000", "133002.468000", "133004.468000", "133006.468000", "133008.468000", "133010.468000", "133012.469000", "133014.468000", "133016.469000", "133018.469000", "133020.468000", "133022.468000", "133024.469000", "133026.469000", "133028.468000", "133030.469000", "133032.468000", "133034.469000", "133036.468000", "133038.468000", "133040.468000", "133042.468000", "133044.469000", "133046.468000", "133048.469000", "133050.469000", "133052.469000", "133054.468000", "133056.468000", "133058.468000", "133100.469000", "133102.469000", "133104.468000", "133106.468000", "133108.469000", "133110.468000", "133112.467000", "133114.469000", "133116.468000", "133118.469000", "133120.469000", "133122.468000", "133124.469000", "133126.469000", "133128.469000", "133130.468000", "133132.469000", "133134.468000", "133136.468000", "133138.469000", "133140.468000", "133142.469000", "133144.468000", "133146.468000", "133148.468000", "133150.469000", "133152.469000", "133154.468000", "133156.468000", "133158.468000", "133200.468000", "133202.469000", "133204.469000", "133206.469000", "133208.469000", "133210.469000", "133212.469000", "133214.468000", "133216.468000", "133218.468000", "133220.469000", "133222.468000", "133224.469000", "133226.469000", "133228.469000", "133230.469000", "133232.469000", "133234.468000", "133236.469000", "133238.469000", "133240.469000", "133242.468000", "133244.468000", "133246.469000", "133248.469000", "133250.469000", "133252.469000", "133254.468000", "133256.468000", "133258.469000", "133300.468000", "133302.468000", "133304.468000", "133306.468000", "133308.468000", "133310.468000", "133312.468000", "133314.468000", "133316.469000", "133318.468000", "133320.469000", "133322.468000", "133324.469000", "133326.469000", "133328.469000", "133330.469000", "133332.468000", "133334.469000", "133336.469000", "133338.469000", "133340.468000", "133342.469000", "133344.469000", "133346.469000", "133348.469000", "133350.468000", "133352.469000", "133354.468000", "133356.468000", "133358.469000", "133400.468000", "133402.468000", "133404.469000", "133406.469000", "133408.469000", "133410.468000", "133412.469000", "133414.468000", "133416.469000", "133418.469000", "133420.469000", "133422.468000", "133424.468000", "133426.482000", "133428.119000"],
      "InstanceCreationTime": ["132918.973000", "132920.468000", "132922.469000", "132924.469000", "132926.469000", "132928.469000", "132930.468000", "132932.468000", "132934.469000", "132936.469000", "132938.468000", "132940.468000", "132942.469000", "132944.468000", "132946.469000", "132948.468000", "132950.468000", "132952.468000", "132954.468000", "132956.468000", "132958.468000", "133000.469000", "133002.468000", "133004.468000", "133006.468000", "133008.468000", "133010.468000", "133012.469000", "133014.468000", "133016.469000", "133018.469000", "133020.468000", "133022.468000", "133024.469000", "133026.469000", "133028.468000", "133030.469000", "133032.468000", "133034.469000", "133036.468000", "133038.468000", "133040.468000", "133042.468000", "133044.469000", "133046.468000", "133048.469000", "133050.469000", "133052.469000", "133054.468000", "133056.468000", "133058.468000", "133100.469000", "133102.469000", "133104.468000", "133106.468000", "133108.469000", "133110.468000", "133112.467000", "133114.469000", "133116.468000", "133118.469000", "133120.469000", "133122.468000", "133124.469000", "133126.469000", "133128.469000", "133130.468000", "133132.469000", "133134.468000", "133136.468000", "133138.469000", "133140.468000", "133142.469000", "133144.468000", "133146.468000", "133148.468000", "133150.469000", "133152.469000", "133154.468000", "133156.468000", "133158.468000", "133200.468000", "133202.469000", "133204.469000", "133206.469000", "133208.469000", "133210.469000", "133212.469000", "133214.468000", "133216.468000", "133218.468000", "133220.469000", "133222.468000", "133224.469000", "133226.469000", "133228.469000", "133230.469000", "133232.469000", "133234.468000", "133236.469000", "133238.469000", "133240.469000", "133242.468000", "133244.468000", "133246.469000", "133248.469000", "133250.469000", "133252.469000", "133254.468000", "133256.468000", "133258.469000", "133300.468000", "133302.468000", "133304.468000", "133306.468000", "133308.468000", "133310.468000", "133312.468000", "133314.468000", "133316.469000", "133318.468000", "133320.469000", "133322.468000", "133324.469000", "133326.469000", "133328.469000", "133330.469000", "133332.468000", "133334.469000", "133336.469000", "133338.469000", "133340.468000", "133342.469000", "133344.469000", "133346.469000", "133348.469000", "133350.468000", "133352.469000", "133354.468000", "133356.468000", "133358.469000", "133400.468000", "133402.468000", "133404.469000", "133406.469000", "133408.469000", "133410.468000", "133412.469000", "133414.468000", "133416.469000", "133418.469000", "133420.469000", "133422.468000", "133424.468000", "133426.482000", "133428.119000"],
      "InstanceNumber": [1, 2, 3, 4, 5, 6, 7, 8, 9, 10, 11, 12, 13, 14, 15, 16, 17, 18, 19, 20, 21, 22, 23, 24, 25, 26, 27, 28, 29, 30, 31, 32, 33, 34, 35, 36, 37, 38, 39, 40, 41, 42, 43, 44, 45, 46, 47, 48, 49, 50, 51, 52, 53, 54, 55, 56, 57, 58, 59, 60, 61, 62, 63, 64, 65, 66, 67, 68, 69, 70, 71, 72, 73, 74, 75, 76, 77, 78, 79, 80, 81, 82, 83, 84, 85, 86, 87, 88, 89, 90, 91, 92, 93, 94, 95, 96, 97, 98, 99, 100, 101, 102, 103, 104, 105, 106, 107, 108, 109, 110, 111, 112, 113, 114, 115, 116, 117, 118, 119, 120, 121, 122, 123, 124, 125, 126, 127, 128, 129, 130, 131, 132, 133, 134, 135, 136, 137, 138, 139, 140, 141, 142, 143, 144, 145, 146, 147, 148, 149, 150, 151, 152, 153, 154, 155, 156],
      "LargestImagePixelValue": [3257, 3212, 3223, 3197, 3271, 3238, 3255, 3221, 3229, 3211, 3183, 3197, 3206, 3171, 3201, 3145, 3150, 3166, 3109, 3168, 3131, 3159, 3141, 3162, 3110, 3137, 3225, 3182, 3155, 3158, 3144, 3158, 3165, 3121, 3158, 3147, 3231, 3169, 3154, 3164, 3139, 3178, 3205, 3141, 3209, 3161, 3165, 3177, 3173, 3159, 3169, 3157, 3133, 3121, 3162, 3148, 3153, 3129, 3185, 3127, 3156, 3144, 3138, 3145, 3113, 3166, 3133, 3149, 3165, 3182, 3123, 3123, 3164, 3174, 3226, 3162, 3120, 3179, 3182, 3157, 3192, 3158, 3176, 3175, 3213, 3162, 3129, 3180, 3136, 3172, 3173, 3176, 3196, 3158, 3183, 3101, 3130, 3078, 3082, 3111, 3136, 3134, 3103, 3122, 3101, 3132, 3166, 3148, 3192, 3175, 3157, 3176, 3203, 3232, 3150, 3096, 3205, 3176, 3211, 3204, 3166, 3155, 3159, 3146, 3244, 3218, 3163, 3166, 3201, 3248, 3165, 3157, 3174, 3167, 3203, 3146, 3162, 3134, 3093, 3075, 3143, 3145, 3122, 3111, 3068, 3085, 3150, 3158, 3194, 3209, 3197, 3227, 3204, 3193, 3150, 3175],
      "WindowCenter": [759.0, 758.0, 757.0, 757.0, 758.0, 758.0, 760.0, 760.0, 759.0, 759.0, 758.0, 759.0, 759.0, 758.0, 757.0, 756.0, 756.0, 755.0, 754.0, 755.0, 756.0, 757.0, 756.0, 755.0, 754.0, 753.0, 755.0, 756.0, 757.0, 756.0, 755.0, 755.0, 756.0, 757.0, 757.0, 756.0, 757.0, 757.0, 756.0, 755.0, 754.0, 756.0, 756.0, 756.0, 759.0, 760.0, 758.0, 756.0, 755.0, 755.0, 755.0, 755.0, 755.0, 756.0, 756.0, 755.0, 755.0, 756.0, 758.0, 757.0, 757.0, 756.0, 756.0, 755.0, 755.0, 755.0, 755.0, 755.0, 756.0, 756.0, 756.0, 755.0, 756.0, 758.0, 758.0, 757.0, 756.0, 757.0, 758.0, 758.0, 757.0, 757.0, 757.0, 758.0, 760.0, 758.0, 757.0, 755.0, 755.0, 756.0, 758.0, 759.0, 760.0, 758.0, 757.0, 756.0, 755.0, 754.0, 753.0, 754.0, 756.0, 757.0, 756.0, 755.0, 755.0, 755.0, 756.0, 756.0, 757.0, 757.0, 757.0, 757.0, 757.0, 756.0, 754.0, 753.0, 756.0, 758.0, 758.0, 757.0, 755.0, 755.0, 755.0, 755.0, 755.0, 755.0, 753.0, 754.0, 756.0, 758.0, 757.0, 756.0, 756.0, 755.0, 756.0, 755.0, 755.0, 754.0, 752.0, 753.0, 755.0, 756.0, 755.0, 754.0, 754.0, 753.0, 755.0, 755.0, 755.0, 754.0, 755.0, 755.0, 755.0, 754.0, 754.0, 756.0],
      "WindowWidth": [1637.0, 1633.0, 1629.0, 1630.0, 1633.0, 1634.0, 1638.0, 1639.0, 1637.0, 1635.0, 1633.0, 1636.0, 1636.0, 1634.0, 1631.0, 1628.0, 1628.0, 1626.0, 1624.0, 1626.0, 1628.0, 1630.0, 1627.0, 1624.0, 1623.0, 1621.0, 1625.0, 1628.0, 1631.0, 1629.0, 1625.0, 1626.0, 1629.0, 1632.0, 1630.0, 1627.0, 1631.0, 1632.0, 1628.0, 1625.0, 1623.0, 1627.0, 1627.0, 1628.0, 1635.0, 1638.0, 1632.0, 1628.0, 1625.0, 1624.0, 1624.0, 1626.0, 1626.0, 1628.0, 1629.0, 1626.0, 1625.0, 1627.0, 1632.0, 1631.0, 1631.0, 1627.0, 1627.0, 1625.0, 1626.0, 1626.0, 1625.0, 1625.0, 1628.0, 1629.0, 1628.0, 1625.0, 1628.0, 1633.0, 1634.0, 1631.0, 1628.0, 1632.0, 1633.0, 1634.0, 1631.0, 1631.0, 1629.0, 1633.0, 1637.0, 1633.0, 1629.0, 1625.0, 1624.0, 1628.0, 1633.0, 1636.0, 1637.0, 1633.0, 1631.0, 1626.0, 1626.0, 1622.0, 1619.0, 1622.0, 1628.0, 1630.0, 1626.0, 1626.0, 1625.0, 1626.0, 1627.0, 1629.0, 1631.0, 1630.0, 1629.0, 1629.0, 1630.0, 1628.0, 1622.0, 1619.0, 1628.0, 1631.0, 1631.0, 1629.0, 1625.0, 1624.0, 1623.0, 1624.0, 1625.0, 1624.0, 1620.0, 1621.0, 1628.0, 1632.0, 1631.0, 1627.0, 1627.0, 1626.0, 1628.0, 1626.0, 1624.0, 1621.0, 1617.0, 1619.0, 1625.0, 1627.0, 1624.0, 1621.0, 1621.0, 1620.0, 1625.0, 1623.0, 1623.0, 1622.0, 1624.0, 1624.0, 1623.0, 1623.0, 1621.0, 1627.0]
    },
    "slices": {}
  }
}