{
  "AcquisitionMatrixPE": 100,
  "AcquisitionNumber": 1,
  "AcquisitionTime": "13:10:42.642500",
  "BandwidthPerPixelPhaseEncode": 18.519,
  "BaseResolution": 100,
  "BodyPartExamined": "BRAIN",
  "CoilCombinationMethod": "Sum of Squares",
  "ConsistencyInfo": "N4_VE11C_LATEST_20160120",
  "ConversionSoftware": "dcm2niix",
  "ConversionSoftwareVersion": "v1.0.20211006",
  "DerivedVendorReportedEchoSpacing": 0.000539986,
  "DeviceSerialNumber": "166078",
  "DwellTime": 2.1e-06,
  "EchoTime": 0.034,
  "EchoTrainLength": 100,
  "EffectiveEchoSpacing": 0.000539986,
  "FlipAngle": 90,
  "ImageOrientationPatientDICOM": [1, 0, 0, 0, 0.992757, -0.120137],
  "ImageOrientationText": "Tra>Cor(-6.9)",
  "ImageType": [
    "ORIGINAL",
    "PRIMARY",
    "M",
    "ND",
    "MOSAIC"
],
  "ImagingFrequency": 123.258,
  "InPlanePhaseEncodingDirectionDICOM": "COL",
  "InstitutionAddress": "Street StreetNo,Bei Jing,District,CN,ZIP",
  "InstitutionName": "BeiJing Normal University",
  "InstitutionalDepartmentName": "Department",
  "MRAcquisitionType": "2D",
  "MagneticFieldStrength": 3,
  "Manufacturer": "Siemens",
  "ManufacturersModelName": "Prisma",
  "Modality": "MR",
  "MultibandAccelerationFactor": 3,
  "PartialFourier": 1,
  "PatientPosition": "HFS",
  "PercentPhaseFOV": 100,
  "PercentSampling": 100,
  "PhaseEncodingDirection": "j-",
  "PhaseEncodingSteps": 100,
  "PhaseResolution": 1,
  "PixelBandwidth": 2380,
  "ProcedureStepDescription": "BNU_P2018_64CH^Zhen.ZongLei",
  "ProtocolName": "bold_100x100_s3_2x2x2_static_156",
  "PulseSequenceDetails": "%SiemensSeq%\\ep2d_bold",
  "ReceiveCoilActiveElements": "HC1-7;NC1",
  "ReceiveCoilName": "HeadNeck_64",
  "ReconMatrixPE": 100,
  "RefLinesPE": 32,
  "RepetitionTime": 2,
  "SAR": 0.0736225,
  "ScanOptions": "FS",
  "ScanningSequence": "EP",
  "SequenceName": "*epfid2d1_100",
  "SequenceVariant": "SK",
  "SeriesDescription": "bold_100x100_s3_2x2x2_static_156",
  "SeriesNumber": 4,
  "ShimSetting": [-5472, -11548, -1213, 455, -35, -171, 38, 54],
  "SliceThickness": 2,
  "SliceTiming": [1.485, 0, 0.99, 0.0825, 1.0725, 0.165, 1.155, 0.2475, 1.2375, 0.33, 1.32, 0.4125, 1.4025, 0.5775, 1.5675, 0.66, 1.65, 0.7425, 1.7325, 0.825, 1.815, 0.9075, 1.8975, 0.495, 1.485, 0, 0.99, 0.0825, 1.0725, 0.165, 1.155, 0.2475, 1.2375, 0.33, 1.32, 0.4125, 1.4025, 0.5775, 1.5675, 0.66, 1.65, 0.7425, 1.7325, 0.825, 1.815, 0.9075, 1.8975, 0.495, 1.485, 0, 0.99, 0.0825, 1.0725, 0.165, 1.155, 0.2475, 1.2375, 0.33, 1.32, 0.4125, 1.4025, 0.5775, 1.5675, 0.66, 1.65, 0.7425, 1.7325, 0.825, 1.815, 0.9075, 1.8975, 0.495],
  "SoftwareVersions": "syngo MR E11",
  "SpacingBetweenSlices": 2,
  "StationName": "AWP166078",
  "TaskName": "action",
  "TotalReadoutTime": 0.0534586,
  "TxRefAmp": 207.624,
  "dcmmeta_affine": [
    [-2.0, 0.0, 0.0, 100.0],
    [0.0, 1.9855146408081055, -0.24027368426322937, -77.40457153320312],
    [0.0, 0.24027368426322937, 1.9855146408081055, -69.3778305053711],
    [0.0, 0.0, 0.0, 1.0]
],
  "dcmmeta_reorient_transform": [
    [0.0, -1.0, 0.0, 99.0],
    [1.0, 0.0, 0.0, 0.0],
    [0.0, 0.0, 1.0, 0.0],
    [0.0, 0.0, 0.0, 1.0]
],
  "dcmmeta_shape": [100, 100, 72, 156],
  "dcmmeta_slice_dim": 2,
  "dcmmeta_version": 0.6,
  "global": {
    "const": {
      "AcquisitionMatrix": [100, 0, 0, 100],
      "AngioFlag": "N",
      "BitsAllocated": 16,
      "BitsStored": 12,
      "BodyPartExamined": "BRAIN",
      "Columns": 900,
      "EchoNumbers": 1,
      "EchoTime": 34.0,
      "EchoTrainLength": 100,
      "FlipAngle": 90.0,
      "HighBit": 11,
      "ImageOrientationPatient": [1.0, 0.0, 0.0, 0.0, 0.99275734119381, -0.1201368449136],
      "ImagePositionPatient": [-900.0, -913.3672538945, 50.518744528694],
      "ImageType": [
        "ORIGINAL",
        "PRIMARY",
        "M",
        "ND",
        "MOSAIC"
],
      "ImagedNucleus": "1H",
      "ImagingFrequency": 123.257641,
      "InPlanePhaseEncodingDirection": "COL",
      "MRAcquisitionType": "2D",
      "MagneticFieldStrength": 3.0,
      "Manufacturer": "SIEMENS",
      "ManufacturerModelName": "Prisma",
      "Modality": "MR",
      "NumberOfAverages": 1.0,
      "NumberOfPhaseEncodingSteps": 100,
      "PercentPhaseFieldOfView": 100.0,
      "PercentSampling": 100.0,
      "PerformedProcedureStepStartTime": "130048.573000",
      "PhotometricInterpretation": "MONOCHROME2",
      "PixelBandwidth": 2380.0,
      "PixelRepresentation": 0,
      "PixelSpacing": [2.0, 2.0],
      "ProtocolName": "bold_100x100_s3_2x2x2_static_156",
      "RepetitionTime": 2000.0,
      "Rows": 900,
      "SAR": 0.07362253711445,
      "SamplesPerPixel": 1,
      "ScanOptions": "FS",
      "ScanningSequence": "EP",
      "SequenceName": "*epfid2d1_100",
      "SequenceVariant": "SK",
      "SeriesDescription": "bold_100x100_s3_2x2x2_static_156",
      "SeriesNumber": 4,
      "SeriesTime": "131045.268000",
      "SliceLocation": -59.576205631537,
      "SliceThickness": 2.0,
      "SmallestImagePixelValue": 0,
      "SoftwareVersions": "syngo MR E11",
      "SpacingBetweenSlices": 1.9999999955865,
      "SpecificCharacterSet": "ISO_IR 100",
      "StudyID": "1",
      "StudyTime": "130048.474000",
      "TransmitCoilName": "Body",
      "VariableFlipAngleFlag": "N",
      "WindowCenterWidthExplanation": "Algo1",
      "dBdt": 0.0},
    "slices": {}
  },
  "time": {
    "samples": {
      "AcquisitionNumber": [1, 2, 3, 4, 5, 6, 7, 8, 9, 10, 11, 12, 13, 14, 15, 16, 17, 18, 19, 20, 21, 22, 23, 24, 25, 26, 27, 28, 29, 30, 31, 32, 33, 34, 35, 36, 37, 38, 39, 40, 41, 42, 43, 44, 45, 46, 47, 48, 49, 50, 51, 52, 53, 54, 55, 56, 57, 58, 59, 60, 61, 62, 63, 64, 65, 66, 67, 68, 69, 70, 71, 72, 73, 74, 75, 76, 77, 78, 79, 80, 81, 82, 83, 84, 85, 86, 87, 88, 89, 90, 91, 92, 93, 94, 95, 96, 97, 98, 99, 100, 101, 102, 103, 104, 105, 106, 107, 108, 109, 110, 111, 112, 113, 114, 115, 116, 117, 118, 119, 120, 121, 122, 123, 124, 125, 126, 127, 128, 129, 130, 131, 132, 133, 134, 135, 136, 137, 138, 139, 140, 141, 142, 143, 144, 145, 146, 147, 148, 149, 150, 151, 152, 153, 154, 155, 156],
      "AcquisitionTime": ["131042.642500", "131044.642500", "131046.642500", "131048.642500", "131050.642500", "131052.642500", "131054.642500", "131056.642500", "131058.642500", "131100.642500", "131102.642500", "131104.642500", "131106.642500", "131108.642500", "131110.642500", "131112.642500", "131114.642500", "131116.642500", "131118.642500", "131120.642500", "131122.642500", "131124.642500", "131126.642500", "131128.642500", "131130.642500", "131132.642500", "131134.642500", "131136.642500", "131138.642500", "131140.642500", "131142.642500", "131144.642500", "131146.642500", "131148.642500", "131150.642500", "131152.642500", "131154.642500", "131156.642500", "131158.642500", "131200.642500", "131202.642500", "131204.642500", "131206.642500", "131208.642500", "131210.642500", "131212.642500", "131214.642500", "131216.642500", "131218.642500", "131220.642500", "131222.642500", "131224.642500", "131226.642500", "131228.642500", "131230.642500", "131232.642500", "131234.642500", "131236.642500", "131238.642500", "131240.642500", "131242.642500", "131244.642500", "131246.642500", "131248.642500", "131250.642500", "131252.642500", "131254.642500", "131256.642500", "131258.642500", "131300.642500", "131302.642500", "131304.642500", "131306.642500", "131308.642500", "131310.642500", "131312.642500", "131314.642500", "131316.642500", "131318.642500", "131320.642500", "131322.642500", "131324.642500", "131326.642500", "131328.642500", "131330.642500", "131332.642500", "131334.642500", "131336.642500", "131338.642500", "131340.642500", "131342.642500", "131344.642500", "131346.642500", "131348.642500", "131350.642500", "131352.642500", "131354.642500", "131356.642500", "131358.642500", "131400.642500", "131402.642500", "131404.642500", "131406.642500", "131408.642500", "131410.642500", "131412.642500", "131414.642500", "131416.642500", "131418.642500", "131420.642500", "131422.642500", "131424.642500", "131426.642500", "131428.642500", "131430.642500", "131432.642500", "131434.642500", "131436.642500", "131438.642500", "131440.642500", "131442.642500", "131444.642500", "131446.642500", "131448.642500", "131450.642500", "131452.642500", "131454.642500", "131456.642500", "131458.642500", "131500.642500", "131502.642500", "131504.642500", "131506.642500", "131508.642500", "131510.642500", "131512.642500", "131514.642500", "131516.642500", "131518.642500", "131520.642500", "131522.642500", "131524.642500", "131526.642500", "131528.642500", "131530.642500", "131532.642500", "131534.642500", "131536.642500", "131538.642500", "131540.642500", "131542.642500", "131544.642500", "131546.642500", "131548.642500", "131550.642500", "131552.642500"],
      "ContentTime": ["131045.272000", "131046.767000", "131048.767000", "131050.768000", "131052.768000", "131054.769000", "131056.768000", "131058.768000", "131100.768000", "131102.767000", "131104.768000", "131106.769000", "131108.768000", "131110.769000", "131112.768000", "131114.768000", "131116.767000", "131118.768000", "131120.767000", "131122.768000", "131124.768000", "131126.768000", "131128.768000", "131130.768000", "131132.767000", "131134.767000", "131136.767000", "131138.767000", "131140.768000", "131142.768000", "131144.768000", "131146.768000", "131148.769000", "131150.767000", "131152.768000", "131154.767000", "131156.768000", "131158.768000", "131200.768000", "131202.769000", "131204.768000", "131206.769000", "131208.768000", "131210.767000", "131212.767000", "131214.768000", "131216.769000", "131218.768000", "131220.768000", "131222.769000", "131224.768000", "131226.768000", "131228.768000", "131230.768000", "131232.768000", "131234.769000", "131236.769000", "131238.768000", "131240.769000", "131242.768000", "131244.768000", "131246.767000", "131248.767000", "131250.767000", "131252.768000", "131254.768000", "131256.768000", "131258.768000", "131300.768000", "131302.767000", "131304.767000", "131306.768000", "131308.767000", "131310.768000", "131312.768000", "131314.768000", "131316.768000", "131318.768000", "131320.768000", "131322.768000", "131324.768000", "131326.768000", "131328.768000", "131330.768000", "131332.769000", "131334.769000", "131336.767000", "131338.767000", "131340.768000", "131342.768000", "131344.768000", "131346.768000", "131348.769000", "131350.769000", "131352.768000", "131354.767000", "131356.768000", "131358.768000", "131400.768000", "131402.768000", "131404.768000", "131406.768000", "131408.769000", "131410.767000", "131412.768000", "131414.767000", "131416.768000", "131418.767000", "131420.768000", "131422.768000", "131424.769000", "131426.769000", "131428.768000", "131430.768000", "131432.767000", "131434.768000", "131436.769000", "131438.769000", "131440.769000", "131442.768000", "131444.769000", "131446.773000", "131448.768000", "131450.768000", "131452.768000", "131454.769000", "131456.768000", "131458.768000", "131500.768000", "131502.767000", "131504.768000", "131506.767000", "131508.768000", "131510.767000", "131512.769000", "131514.769000", "131516.768000", "131518.768000", "131520.767000", "131522.768000", "131524.768000", "131526.768000", "131528.768000", "131530.768000", "131532.769000", "131534.768000", "131536.768000", "131538.768000", "131540.767000", "131542.768000", "131544.767000", "131546.769000", "131548.768000", "131550.769000", "131552.768000", "131554.333000"],
      "InstanceCreationTime": ["131045.272000", "131046.767000", "131048.767000", "131050.768000", "131052.768000", "131054.769000", "131056.768000", "131058.768000", "131100.768000", "131102.767000", "131104.768000", "131106.769000", "131108.768000", "131110.769000", "131112.768000", "131114.768000", "131116.767000", "131118.768000", "131120.767000", "131122.768000", "131124.768000", "131126.768000", "131128.768000", "131130.768000", "131132.767000", "131134.767000", "131136.767000", "131138.767000", "131140.768000", "131142.768000", "131144.768000", "131146.768000", "131148.769000", "131150.767000", "131152.768000", "131154.767000", "131156.768000", "131158.768000", "131200.768000", "131202.769000", "131204.768000", "131206.769000", "131208.768000", "131210.767000", "131212.767000", "131214.768000", "131216.769000", "131218.768000", "131220.768000", "131222.769000", "131224.768000", "131226.768000", "131228.768000", "131230.768000", "131232.768000", "131234.769000", "131236.769000", "131238.768000", "131240.769000", "131242.768000", "131244.768000", "131246.767000", "131248.767000", "131250.767000", "131252.768000", "131254.768000", "131256.768000", "131258.768000", "131300.768000", "131302.767000", "131304.767000", "131306.768000", "131308.767000", "131310.768000", "131312.768000", "131314.768000", "131316.768000", "131318.768000", "131320.768000", "131322.768000", "131324.768000", "131326.768000", "131328.768000", "131330.768000", "131332.769000", "131334.769000", "131336.767000", "131338.767000", "131340.768000", "131342.768000", "131344.768000", "131346.768000", "131348.769000", "131350.769000", "131352.768000", "131354.767000", "131356.768000", "131358.768000", "131400.768000", "131402.768000", "131404.768000", "131406.768000", "131408.769000", "131410.767000", "131412.768000", "131414.767000", "131416.768000", "131418.767000", "131420.768000", "131422.768000", "131424.769000", "131426.769000", "131428.768000", "131430.768000", "131432.767000", "131434.768000", "131436.769000", "131438.769000", "131440.769000", "131442.768000", "131444.769000", "131446.773000", "131448.768000", "131450.768000", "131452.768000", "131454.769000", "131456.768000", "131458.768000", "131500.768000", "131502.767000", "131504.768000", "131506.767000", "131508.768000", "131510.767000", "131512.769000", "131514.769000", "131516.768000", "131518.768000", "131520.767000", "131522.768000", "131524.768000", "131526.768000", "131528.768000", "131530.768000", "131532.769000", "131534.768000", "131536.768000", "131538.768000", "131540.767000", "131542.768000", "131544.767000", "131546.769000", "131548.768000", "131550.769000", "131552.768000", "131554.333000"],
      "InstanceNumber": [1, 2, 3, 4, 5, 6, 7, 8, 9, 10, 11, 12, 13, 14, 15, 16, 17, 18, 19, 20, 21, 22, 23, 24, 25, 26, 27, 28, 29, 30, 31, 32, 33, 34, 35, 36, 37, 38, 39, 40, 41, 42, 43, 44, 45, 46, 47, 48, 49, 50, 51, 52, 53, 54, 55, 56, 57, 58, 59, 60, 61, 62, 63, 64, 65, 66, 67, 68, 69, 70, 71, 72, 73, 74, 75, 76, 77, 78, 79, 80, 81, 82, 83, 84, 85, 86, 87, 88, 89, 90, 91, 92, 93, 94, 95, 96, 97, 98, 99, 100, 101, 102, 103, 104, 105, 106, 107, 108, 109, 110, 111, 112, 113, 114, 115, 116, 117, 118, 119, 120, 121, 122, 123, 124, 125, 126, 127, 128, 129, 130, 131, 132, 133, 134, 135, 136, 137, 138, 139, 140, 141, 142, 143, 144, 145, 146, 147, 148, 149, 150, 151, 152, 153, 154, 155, 156],
      "LargestImagePixelValue": [3012, 2982, 2981, 2994, 3003, 2980, 2936, 2935, 3009, 3008, 2974, 2988, 2990, 2965, 2940, 2966, 2975, 2994, 2950, 2971, 2965, 2976, 2976, 3010, 2986, 2971, 2963, 3002, 2954, 2961, 2970, 2952, 2983, 2921, 2994, 2978, 2996, 2962, 2930, 2969, 2987, 2948, 2978, 2983, 2934, 3003, 2960, 2936, 2975, 2971, 2948, 2939, 2972, 2961, 2992, 2939, 2970, 2934, 2974, 2993, 2976, 2936, 2932, 2974, 2984, 2924, 2917, 2965, 2950, 2923, 2956, 2947, 3081, 2963, 3037, 3035, 3017, 2979, 2976, 2987, 2984, 2964, 2949, 3019, 3132, 3026, 2940, 3040, 2973, 3030, 3045, 3085, 3074, 3062, 2997, 3062, 3000, 2979, 3013, 3026, 3029, 3015, 3073, 3032, 3058, 3007, 3055, 2950, 3001, 3108, 2934, 3033, 3007, 2913, 2986, 2897, 2954, 2987, 2997, 3031, 2912, 3013, 2945, 2949, 2964, 3041, 3003, 2998, 2904, 3029, 2983, 3003, 2989, 2901, 3099, 2887, 3045, 2909, 2986, 2911, 2938, 2953, 2919, 2931, 2906, 2909, 2924, 2940, 2929, 2930, 2910, 2952, 2945, 2957, 2914, 2959],
      "WindowCenter": [750.0, 747.0, 747.0, 747.0, 748.0, 748.0, 747.0, 746.0, 748.0, 748.0, 749.0, 749.0, 748.0, 747.0, 747.0, 747.0, 747.0, 748.0, 746.0, 746.0, 746.0, 747.0, 747.0, 749.0, 749.0, 749.0, 749.0, 748.0, 748.0, 747.0, 748.0, 748.0, 749.0, 748.0, 749.0, 748.0, 749.0, 748.0, 749.0, 749.0, 750.0, 749.0, 747.0, 747.0, 747.0, 748.0, 748.0, 747.0, 747.0, 747.0, 747.0, 747.0, 748.0, 748.0, 747.0, 747.0, 747.0, 748.0, 750.0, 749.0, 748.0, 747.0, 747.0, 748.0, 748.0, 747.0, 745.0, 744.0, 746.0, 746.0, 747.0, 747.0, 750.0, 749.0, 750.0, 750.0, 750.0, 747.0, 747.0, 749.0, 749.0, 748.0, 748.0, 749.0, 750.0, 750.0, 749.0, 749.0, 747.0, 748.0, 748.0, 749.0, 750.0, 750.0, 749.0, 749.0, 748.0, 748.0, 749.0, 750.0, 750.0, 749.0, 749.0, 748.0, 749.0, 749.0, 749.0, 747.0, 748.0, 748.0, 747.0, 748.0, 748.0, 748.0, 748.0, 747.0, 748.0, 748.0, 749.0, 750.0, 748.0, 748.0, 747.0, 747.0, 749.0, 749.0, 749.0, 749.0, 747.0, 749.0, 749.0, 749.0, 748.0, 746.0, 748.0, 745.0, 748.0, 747.0, 747.0, 746.0, 747.0, 748.0, 747.0, 747.0, 745.0, 746.0, 748.0, 748.0, 746.0, 745.0, 745.0, 746.0, 746.0, 746.0, 746.0, 746.0],
      "WindowWidth": [1612.0, 1604.0, 1606.0, 1606.0, 1609.0, 1607.0, 1606.0, 1603.0, 1607.0, 1609.0, 1611.0, 1609.0, 1607.0, 1604.0, 1605.0, 1606.0, 1605.0, 1606.0, 1603.0, 1602.0, 1603.0, 1604.0, 1604.0, 1609.0, 1610.0, 1611.0, 1610.0, 1608.0, 1608.0, 1606.0, 1607.0, 1607.0, 1609.0, 1608.0, 1609.0, 1608.0, 1609.0, 1608.0, 1609.0, 1610.0, 1612.0, 1609.0, 1605.0, 1605.0, 1604.0, 1607.0, 1608.0, 1605.0, 1606.0, 1605.0, 1605.0, 1604.0, 1606.0, 1607.0, 1605.0, 1605.0, 1606.0, 1608.0, 1612.0, 1609.0, 1606.0, 1605.0, 1604.0, 1607.0, 1607.0, 1605.0, 1599.0, 1597.0, 1601.0, 1603.0, 1605.0, 1605.0, 1612.0, 1610.0, 1612.0, 1612.0, 1612.0, 1606.0, 1606.0, 1610.0, 1611.0, 1608.0, 1608.0, 1610.0, 1614.0, 1612.0, 1610.0, 1609.0, 1605.0, 1606.0, 1606.0, 1611.0, 1614.0, 1612.0, 1610.0, 1610.0, 1607.0, 1607.0, 1609.0, 1612.0, 1612.0, 1610.0, 1608.0, 1606.0, 1609.0, 1609.0, 1609.0, 1605.0, 1607.0, 1608.0, 1603.0, 1606.0, 1607.0, 1607.0, 1607.0, 1604.0, 1607.0, 1607.0, 1610.0, 1612.0, 1608.0, 1607.0, 1604.0, 1605.0, 1609.0, 1610.0, 1611.0, 1609.0, 1605.0, 1609.0, 1609.0, 1609.0, 1607.0, 1602.0, 1605.0, 1599.0, 1606.0, 1603.0, 1605.0, 1602.0, 1603.0, 1606.0, 1604.0, 1603.0, 1599.0, 1602.0, 1606.0, 1607.0, 1601.0, 1600.0, 1600.0, 1603.0, 1602.0, 1603.0, 1602.0, 1602.0]
    },
    "slices": {}
  }
}