{
  "AcquisitionMatrixPE": 100,
  "AcquisitionNumber": 1,
  "AcquisitionTime": "11:45:23.535000",
  "BandwidthPerPixelPhaseEncode": 18.519,
  "BaseResolution": 100,
  "BodyPartExamined": "BRAIN",
  "CoilCombinationMethod": "Sum of Squares",
  "ConsistencyInfo": "N4_VE11C_LATEST_20160120",
  "ConversionSoftware": "dcm2niix",
  "ConversionSoftwareVersion": "v1.0.20211006",
  "DerivedVendorReportedEchoSpacing": 0.000539986,
  "DeviceSerialNumber": "166078",
  "DwellTime": 2.1e-06,
  "EchoTime": 0.034,
  "EchoTrainLength": 100,
  "EffectiveEchoSpacing": 0.000539986,
  "FlipAngle": 90,
  "ImageOrientationPatientDICOM": [0.999194, 0.00710676, 0.0394975, -2.98692e-08, 0.984196, -0.177085],
  "ImageOrientationText": "Tra>Cor(-10.2)>Sag(2.3)",
  "ImageType": [
    "ORIGINAL",
    "PRIMARY",
    "M",
    "ND",
    "MOSAIC"
],
  "ImagingFrequency": 123.258,
  "InPlanePhaseEncodingDirectionDICOM": "COL",
  "InstitutionAddress": "Street StreetNo,Bei Jing,District,CN,ZIP",
  "InstitutionName": "BeiJing Normal University",
  "InstitutionalDepartmentName": "Department",
  "MRAcquisitionType": "2D",
  "MagneticFieldStrength": 3,
  "Manufacturer": "Siemens",
  "ManufacturersModelName": "Prisma",
  "Modality": "MR",
  "MultibandAccelerationFactor": 3,
  "PartialFourier": 1,
  "PatientPosition": "HFS",
  "PercentPhaseFOV": 100,
  "PercentSampling": 100,
  "PhaseEncodingDirection": "j-",
  "PhaseEncodingSteps": 100,
  "PhaseResolution": 1,
  "PixelBandwidth": 2380,
  "ProcedureStepDescription": "BNU_P2018_64CH^Zhen.ZongLei",
  "ProtocolName": "bold_100x100_s3_2x2x2_static_156",
  "PulseSequenceDetails": "%SiemensSeq%\\ep2d_bold",
  "ReceiveCoilActiveElements": "HC1-7;NC1",
  "ReceiveCoilName": "HeadNeck_64",
  "ReconMatrixPE": 100,
  "RefLinesPE": 32,
  "RepetitionTime": 2,
  "SAR": 0.0742036,
  "ScanOptions": "FS",
  "ScanningSequence": "EP",
  "SequenceName": "*epfid2d1_100",
  "SequenceVariant": "SK",
  "SeriesDescription": "bold_100x100_s3_2x2x2_static_156",
  "SeriesNumber": 11,
  "ShimSetting": [-5435, -11499, -1211, 492, 25, -200, -138, 21],
  "SliceThickness": 2,
  "SliceTiming": [1.485, 0, 0.99, 0.0825, 1.0725, 0.165, 1.155, 0.2475, 1.2375, 0.33, 1.32, 0.4125, 1.4025, 0.5775, 1.5675, 0.66, 1.65, 0.7425, 1.7325, 0.825, 1.815, 0.9075, 1.8975, 0.495, 1.485, 0, 0.99, 0.0825, 1.0725, 0.165, 1.155, 0.2475, 1.2375, 0.33, 1.32, 0.4125, 1.4025, 0.5775, 1.5675, 0.66, 1.65, 0.7425, 1.7325, 0.825, 1.815, 0.9075, 1.8975, 0.495, 1.485, 0, 0.99, 0.0825, 1.0725, 0.165, 1.155, 0.2475, 1.2375, 0.33, 1.32, 0.4125, 1.4025, 0.5775, 1.5675, 0.66, 1.65, 0.7425, 1.7325, 0.825, 1.815, 0.9075, 1.8975, 0.495],
  "SoftwareVersions": "syngo MR E11",
  "SpacingBetweenSlices": 2,
  "StationName": "AWP166078",
  "TaskName": "action",
  "TotalReadoutTime": 0.0534586,
  "TxRefAmp": 239.774,
  "dcmmeta_affine": [
    [-1.9983887672424316, -5.973833339112389e-08, 0.08026359230279922, 99.78195190429688],
    [-0.014213516376912594, 1.9683911800384521, -0.35388416051864624, -81.57473754882812],
    [0.07899506390094757, 0.35416948795318604, 1.9668054580688477, -79.05699920654297],
    [0.0, 0.0, 0.0, 1.0]
],
  "dcmmeta_reorient_transform": [
    [0.0, -1.0, 0.0, 99.0],
    [1.0, 0.0, 0.0, 0.0],
    [0.0, 0.0, 1.0, 0.0],
    [0.0, 0.0, 0.0, 1.0]
],
  "dcmmeta_shape": [100, 100, 72, 156],
  "dcmmeta_slice_dim": 2,
  "dcmmeta_version": 0.6,
  "global": {
    "const": {
      "AcquisitionMatrix": [100, 0, 0, 100],
      "AngioFlag": "N",
      "BitsAllocated": 16,
      "BitsStored": 12,
      "BodyPartExamined": "BRAIN",
      "Columns": 900,
      "EchoNumbers": 1,
      "EchoTime": 34.0,
      "EchoTrainLength": 100,
      "FlipAngle": 90.0,
      "HighBit": 11,
      "ImageOrientationPatient": [0.99919439493165, 0.00710675833587, 0.03949753312715, -2.9869168e-08, 0.98419560753296, -0.1770847427443],
      "ImagePositionPatient": [-899.13743569091, -906.33788169284, 66.075551338567],
      "ImageType": [
        "ORIGINAL",
        "PRIMARY",
        "M",
        "ND",
        "MOSAIC"
],
      "ImagedNucleus": "1H",
      "ImagingFrequency": 123.257702,
      "InPlanePhaseEncodingDirection": "COL",
      "MRAcquisitionType": "2D",
      "MagneticFieldStrength": 3.0,
      "Manufacturer": "SIEMENS",
      "ManufacturerModelName": "Prisma",
      "Modality": "MR",
      "NumberOfAverages": 1.0,
      "NumberOfPhaseEncodingSteps": 100,
      "PercentPhaseFieldOfView": 100.0,
      "PercentSampling": 100.0,
      "PerformedProcedureStepStartTime": "105552.209000",
      "PhotometricInterpretation": "MONOCHROME2",
      "PixelBandwidth": 2380.0,
      "PixelRepresentation": 0,
      "PixelSpacing": [2.0, 2.0],
      "ProtocolName": "bold_100x100_s3_2x2x2_static_156",
      "RepetitionTime": 2000.0,
      "Rows": 900,
      "SAR": 0.07420357964624,
      "SamplesPerPixel": 1,
      "ScanOptions": "FS",
      "ScanningSequence": "EP",
      "SequenceName": "*epfid2d1_100",
      "SequenceVariant": "SK",
      "SeriesDescription": "bold_100x100_s3_2x2x2_static_156",
      "SeriesNumber": 11,
      "SeriesTime": "114525.608000",
      "SliceLocation": -59.306432047849,
      "SliceThickness": 2.0,
      "SmallestImagePixelValue": 0,
      "SoftwareVersions": "syngo MR E11",
      "SpacingBetweenSlices": 2.000000001029,
      "SpecificCharacterSet": "ISO_IR 100",
      "StudyID": "1",
      "StudyTime": "105552.099000",
      "TransmitCoilName": "Body",
      "VariableFlipAngleFlag": "N",
      "WindowCenterWidthExplanation": "Algo1",
      "dBdt": 0.0},
    "slices": {}
  },
  "time": {
    "samples": {
      "AcquisitionNumber": [1, 2, 3, 4, 5, 6, 7, 8, 9, 10, 11, 12, 13, 14, 15, 16, 17, 18, 19, 20, 21, 22, 23, 24, 25, 26, 27, 28, 29, 30, 31, 32, 33, 34, 35, 36, 37, 38, 39, 40, 41, 42, 43, 44, 45, 46, 47, 48, 49, 50, 51, 52, 53, 54, 55, 56, 57, 58, 59, 60, 61, 62, 63, 64, 65, 66, 67, 68, 69, 70, 71, 72, 73, 74, 75, 76, 77, 78, 79, 80, 81, 82, 83, 84, 85, 86, 87, 88, 89, 90, 91, 92, 93, 94, 95, 96, 97, 98, 99, 100, 101, 102, 103, 104, 105, 106, 107, 108, 109, 110, 111, 112, 113, 114, 115, 116, 117, 118, 119, 120, 121, 122, 123, 124, 125, 126, 127, 128, 129, 130, 131, 132, 133, 134, 135, 136, 137, 138, 139, 140, 141, 142, 143, 144, 145, 146, 147, 148, 149, 150, 151, 152, 153, 154, 155, 156],
      "AcquisitionTime": ["114523.535000", "114525.535000", "114527.535000", "114529.535000", "114531.535000", "114533.535000", "114535.535000", "114537.535000", "114539.535000", "114541.535000", "114543.535000", "114545.535000", "114547.535000", "114549.535000", "114551.535000", "114553.535000", "114555.535000", "114557.535000", "114559.535000", "114601.535000", "114603.535000", "114605.535000", "114607.535000", "114609.535000", "114611.535000", "114613.535000", "114615.535000", "114617.535000", "114619.535000", "114621.535000", "114623.535000", "114625.535000", "114627.535000", "114629.535000", "114631.535000", "114633.535000", "114635.535000", "114637.535000", "114639.535000", "114641.535000", "114643.535000", "114645.535000", "114647.535000", "114649.535000", "114651.535000", "114653.535000", "114655.535000", "114657.535000", "114659.535000", "114701.535000", "114703.535000", "114705.535000", "114707.535000", "114709.535000", "114711.535000", "114713.535000", "114715.535000", "114717.535000", "114719.535000", "114721.535000", "114723.535000", "114725.535000", "114727.535000", "114729.535000", "114731.535000", "114733.535000", "114735.535000", "114737.535000", "114739.535000", "114741.535000", "114743.535000", "114745.535000", "114747.535000", "114749.535000", "114751.535000", "114753.535000", "114755.535000", "114757.535000", "114759.535000", "114801.535000", "114803.535000", "114805.535000", "114807.535000", "114809.535000", "114811.535000", "114813.535000", "114815.535000", "114817.535000", "114819.535000", "114821.535000", "114823.535000", "114825.535000", "114827.535000", "114829.535000", "114831.535000", "114833.535000", "114835.535000", "114837.535000", "114839.535000", "114841.535000", "114843.535000", "114845.535000", "114847.535000", "114849.535000", "114851.535000", "114853.535000", "114855.535000", "114857.535000", "114859.535000", "114901.535000", "114903.535000", "114905.535000", "114907.535000", "114909.535000", "114911.535000", "114913.535000", "114915.535000", "114917.535000", "114919.535000", "114921.535000", "114923.535000", "114925.535000", "114927.535000", "114929.535000", "114931.535000", "114933.535000", "114935.535000", "114937.535000", "114939.535000", "114941.535000", "114943.535000", "114945.535000", "114947.535000", "114949.535000", "114951.535000", "114953.535000", "114955.535000", "114957.535000", "114959.535000", "115001.535000", "115003.535000", "115005.535000", "115007.535000", "115009.535000", "115011.535000", "115013.535000", "115015.535000", "115017.535000", "115019.535000", "115021.535000", "115023.535000", "115025.535000", "115027.535000", "115029.535000", "115031.535000", "115033.535000"],
      "ContentTime": ["114525.611000", "114527.607000", "114529.607000", "114531.606000", "114533.606000", "114535.607000", "114537.606000", "114539.606000", "114541.607000", "114543.607000", "114545.606000", "114547.607000", "114549.606000", "114551.606000", "114553.607000", "114555.607000", "114557.107000", "114559.606000", "114601.607000", "114603.607000", "114605.607000", "114607.607000", "114609.607000", "114611.607000", "114613.606000", "114615.607000", "114617.607000", "114619.606000", "114621.607000", "114623.608000", "114625.606000", "114627.606000", "114629.606000", "114631.106000", "114633.606000", "114635.607000", "114637.607000", "114639.606000", "114641.607000", "114643.607000", "114645.607000", "114647.606000", "114649.606000", "114651.607000", "114653.606000", "114655.606000", "114657.607000", "114659.606000", "114701.606000", "114703.606000", "114705.606000", "114707.607000", "114709.606000", "114711.606000", "114713.606000", "114715.608000", "114717.606000", "114719.606000", "114721.607000", "114723.607000", "114725.607000", "114727.606000", "114729.607000", "114731.607000", "114733.608000", "114735.607000", "114737.606000", "114739.607000", "114741.107000", "114743.607000", "114745.606000", "114747.106000", "114749.606000", "114751.606000", "114753.606000", "114755.607000", "114757.107000", "114759.606000", "114801.106000", "114803.606000", "114805.107000", "114807.607000", "114809.106000", "114811.606000", "114813.606000", "114815.607000", "114817.107000", "114819.607000", "114821.106000", "114823.606000", "114825.607000", "114827.607000", "114829.607000", "114831.606000", "114833.606000", "114835.606000", "114837.607000", "114839.607000", "114841.607000", "114843.607000", "114845.607000", "114847.606000", "114849.107000", "114851.607000", "114853.607000", "114855.607000", "114857.606000", "114859.606000", "114901.606000", "114903.606000", "114905.606000", "114907.606000", "114909.607000", "114911.606000", "114913.606000", "114915.607000", "114917.607000", "114919.607000", "114921.607000", "114923.606000", "114925.606000", "114927.106000", "114929.607000", "114931.606000", "114933.606000", "114935.608000", "114937.607000", "114939.607000", "114941.106000", "114943.606000", "114945.107000", "114947.607000", "114949.621000", "114951.606000", "114953.608000", "114955.607000", "114957.607000", "114959.607000", "115001.607000", "115003.606000", "115005.607000", "115007.107000", "115009.607000", "115011.107000", "115013.107000", "115015.607000", "115017.607000", "115019.606000", "115021.606000", "115023.607000", "115025.606000", "115027.606000", "115029.607000", "115031.606000", "115033.607000", "115035.125000"],
      "InstanceCreationTime": ["114525.611000", "114527.607000", "114529.607000", "114531.606000", "114533.606000", "114535.607000", "114537.606000", "114539.606000", "114541.607000", "114543.607000", "114545.606000", "114547.607000", "114549.606000", "114551.606000", "114553.607000", "114555.607000", "114557.107000", "114559.606000", "114601.607000", "114603.607000", "114605.607000", "114607.607000", "114609.607000", "114611.607000", "114613.606000", "114615.607000", "114617.607000", "114619.606000", "114621.607000", "114623.608000", "114625.606000", "114627.606000", "114629.606000", "114631.106000", "114633.606000", "114635.607000", "114637.607000", "114639.606000", "114641.607000", "114643.607000", "114645.607000", "114647.606000", "114649.606000", "114651.607000", "114653.606000", "114655.606000", "114657.607000", "114659.606000", "114701.606000", "114703.606000", "114705.606000", "114707.607000", "114709.606000", "114711.606000", "114713.606000", "114715.608000", "114717.606000", "114719.606000", "114721.607000", "114723.607000", "114725.607000", "114727.606000", "114729.607000", "114731.607000", "114733.608000", "114735.607000", "114737.606000", "114739.607000", "114741.107000", "114743.607000", "114745.606000", "114747.106000", "114749.606000", "114751.606000", "114753.606000", "114755.607000", "114757.107000", "114759.606000", "114801.106000", "114803.606000", "114805.107000", "114807.607000", "114809.106000", "114811.606000", "114813.606000", "114815.607000", "114817.107000", "114819.607000", "114821.106000", "114823.606000", "114825.607000", "114827.607000", "114829.607000", "114831.606000", "114833.606000", "114835.606000", "114837.607000", "114839.607000", "114841.607000", "114843.607000", "114845.607000", "114847.606000", "114849.107000", "114851.607000", "114853.607000", "114855.607000", "114857.606000", "114859.606000", "114901.606000", "114903.606000", "114905.606000", "114907.606000", "114909.607000", "114911.606000", "114913.606000", "114915.607000", "114917.607000", "114919.607000", "114921.607000", "114923.606000", "114925.606000", "114927.106000", "114929.607000", "114931.606000", "114933.606000", "114935.608000", "114937.607000", "114939.607000", "114941.106000", "114943.606000", "114945.107000", "114947.607000", "114949.621000", "114951.606000", "114953.608000", "114955.607000", "114957.607000", "114959.607000", "115001.607000", "115003.606000", "115005.607000", "115007.107000", "115009.607000", "115011.107000", "115013.107000", "115015.607000", "115017.607000", "115019.606000", "115021.606000", "115023.607000", "115025.606000", "115027.606000", "115029.607000", "115031.606000", "115033.607000", "115035.125000"],
      "InstanceNumber": [1, 2, 3, 4, 5, 6, 7, 8, 9, 10, 11, 12, 13, 14, 15, 16, 17, 18, 19, 20, 21, 22, 23, 24, 25, 26, 27, 28, 29, 30, 31, 32, 33, 34, 35, 36, 37, 38, 39, 40, 41, 42, 43, 44, 45, 46, 47, 48, 49, 50, 51, 52, 53, 54, 55, 56, 57, 58, 59, 60, 61, 62, 63, 64, 65, 66, 67, 68, 69, 70, 71, 72, 73, 74, 75, 76, 77, 78, 79, 80, 81, 82, 83, 84, 85, 86, 87, 88, 89, 90, 91, 92, 93, 94, 95, 96, 97, 98, 99, 100, 101, 102, 103, 104, 105, 106, 107, 108, 109, 110, 111, 112, 113, 114, 115, 116, 117, 118, 119, 120, 121, 122, 123, 124, 125, 126, 127, 128, 129, 130, 131, 132, 133, 134, 135, 136, 137, 138, 139, 140, 141, 142, 143, 144, 145, 146, 147, 148, 149, 150, 151, 152, 153, 154, 155, 156],
      "LargestImagePixelValue": [3906, 3812, 3765, 3823, 3827, 3761, 3757, 3778, 3743, 3797, 3779, 3766, 3752, 3775, 3767, 3798, 3830, 3804, 3767, 3744, 3759, 3792, 3824, 3806, 3819, 3833, 3865, 3875, 3842, 3869, 3855, 3876, 3851, 3851, 3793, 3799, 3838, 3754, 3754, 3776, 3765, 3757, 3788, 3826, 3795, 3838, 3777, 3782, 3809, 3763, 3778, 3791, 3797, 3833, 3819, 3816, 3813, 3836, 3818, 3815, 3811, 3832, 3818, 3857, 3841, 3800, 3843, 3836, 3840, 3838, 3847, 3815, 3858, 3824, 3815, 3799, 3779, 3897, 3801, 3855, 3828, 3840, 3790, 3811, 3822, 3779, 3796, 3804, 3799, 3793, 3839, 3837, 3804, 3851, 3827, 3860, 3807, 3820, 3831, 3860, 3841, 3838, 3806, 3822, 3831, 3812, 3795, 3780, 3801, 3840, 3793, 3814, 3805, 3791, 3790, 3806, 3845, 3827, 3816, 3808, 3823, 3806, 3814, 3796, 3815, 3844, 3805, 3793, 3815, 3849, 3837, 3824, 3815, 3815, 3806, 3797, 3799, 3804, 3828, 3825, 3827, 3831, 3805, 3806, 3779, 3811, 3796, 3813, 3839, 3834, 3880, 3862, 3842, 3833, 3844, 3843],
      "WindowCenter": [871.0, 868.0, 867.0, 867.0, 867.0, 866.0, 866.0, 867.0, 868.0, 868.0, 868.0, 868.0, 868.0, 869.0, 870.0, 870.0, 871.0, 871.0, 870.0, 870.0, 872.0, 872.0, 872.0, 872.0, 873.0, 872.0, 873.0, 873.0, 872.0, 872.0, 873.0, 874.0, 873.0, 872.0, 871.0, 870.0, 871.0, 870.0, 870.0, 871.0, 872.0, 872.0, 872.0, 872.0, 872.0, 873.0, 871.0, 871.0, 871.0, 870.0, 870.0, 871.0, 872.0, 872.0, 873.0, 873.0, 873.0, 873.0, 872.0, 872.0, 872.0, 872.0, 872.0, 872.0, 873.0, 873.0, 873.0, 873.0, 874.0, 874.0, 875.0, 874.0, 874.0, 873.0, 873.0, 874.0, 873.0, 875.0, 874.0, 874.0, 875.0, 875.0, 875.0, 873.0, 872.0, 872.0, 873.0, 873.0, 874.0, 874.0, 874.0, 874.0, 874.0, 875.0, 875.0, 874.0, 874.0, 875.0, 876.0, 877.0, 876.0, 876.0, 875.0, 875.0, 875.0, 875.0, 874.0, 874.0, 873.0, 873.0, 873.0, 873.0, 874.0, 875.0, 874.0, 875.0, 876.0, 877.0, 877.0, 876.0, 876.0, 875.0, 875.0, 874.0, 873.0, 872.0, 872.0, 872.0, 873.0, 874.0, 874.0, 874.0, 873.0, 873.0, 874.0, 874.0, 875.0, 874.0, 874.0, 874.0, 875.0, 875.0, 875.0, 876.0, 876.0, 876.0, 877.0, 877.0, 877.0, 877.0, 876.0, 875.0, 875.0, 875.0, 875.0, 873.0],
      "WindowWidth": [1896.0, 1887.0, 1883.0, 1885.0, 1884.0, 1882.0, 1882.0, 1884.0, 1886.0, 1887.0, 1885.0, 1885.0, 1888.0, 1890.0, 1891.0, 1892.0, 1894.0, 1894.0, 1892.0, 1892.0, 1896.0, 1899.0, 1898.0, 1897.0, 1899.0, 1899.0, 1900.0, 1900.0, 1899.0, 1899.0, 1902.0, 1903.0, 1902.0, 1898.0, 1894.0, 1892.0, 1893.0, 1892.0, 1893.0, 1893.0, 1896.0, 1896.0, 1896.0, 1898.0, 1898.0, 1898.0, 1895.0, 1893.0, 1894.0, 1892.0, 1892.0, 1895.0, 1897.0, 1898.0, 1901.0, 1900.0, 1900.0, 1900.0, 1897.0, 1896.0, 1896.0, 1897.0, 1897.0, 1898.0, 1899.0, 1899.0, 1899.0, 1900.0, 1902.0, 1903.0, 1904.0, 1903.0, 1902.0, 1899.0, 1900.0, 1901.0, 1901.0, 1905.0, 1903.0, 1903.0, 1903.0, 1906.0, 1903.0, 1900.0, 1896.0, 1895.0, 1898.0, 1900.0, 1902.0, 1902.0, 1901.0, 1901.0, 1901.0, 1903.0, 1903.0, 1903.0, 1901.0, 1903.0, 1907.0, 1909.0, 1908.0, 1906.0, 1903.0, 1903.0, 1905.0, 1904.0, 1903.0, 1900.0, 1899.0, 1899.0, 1899.0, 1899.0, 1901.0, 1903.0, 1903.0, 1905.0, 1908.0, 1910.0, 1909.0, 1908.0, 1907.0, 1905.0, 1905.0, 1902.0, 1899.0, 1897.0, 1895.0, 1896.0, 1898.0, 1901.0, 1903.0, 1901.0, 1899.0, 1898.0, 1900.0, 1901.0, 1903.0, 1902.0, 1901.0, 1901.0, 1903.0, 1905.0, 1905.0, 1905.0, 1905.0, 1906.0, 1908.0, 1909.0, 1911.0, 1910.0, 1908.0, 1904.0, 1904.0, 1904.0, 1903.0, 1898.0]
    },
    "slices": {}
  }
}