{
  "AcquisitionMatrixPE": 100,
  "AcquisitionNumber": 1,
  "AcquisitionTime": "11:18:46.457500",
  "BandwidthPerPixelPhaseEncode": 18.519,
  "BaseResolution": 100,
  "BodyPartExamined": "BRAIN",
  "CoilCombinationMethod": "Sum of Squares",
  "ConsistencyInfo": "N4_VE11C_LATEST_20160120",
  "ConversionSoftware": "dcm2niix",
  "ConversionSoftwareVersion": "v1.0.20211006",
  "DerivedVendorReportedEchoSpacing": 0.000539986,
  "DeviceSerialNumber": "166078",
  "DwellTime": 2.1e-06,
  "EchoTime": 0.034,
  "EchoTrainLength": 100,
  "EffectiveEchoSpacing": 0.000539986,
  "FlipAngle": 90,
  "ImageOrientationPatientDICOM": [0.999781, 0.00153383, 0.0208862, -4.39894e-08, 0.997314, -0.0732382],
  "ImageOrientationText": "Tra>Cor(-4.2)>Sag(1.2)",
  "ImageType": [
    "ORIGINAL",
    "PRIMARY",
    "M",
    "ND",
    "MOSAIC"
],
  "ImagingFrequency": 123.258,
  "InPlanePhaseEncodingDirectionDICOM": "COL",
  "InstitutionAddress": "Street StreetNo,Bei Jing,District,CN,ZIP",
  "InstitutionName": "BeiJing Normal University",
  "InstitutionalDepartmentName": "Department",
  "MRAcquisitionType": "2D",
  "MagneticFieldStrength": 3,
  "Manufacturer": "Siemens",
  "ManufacturersModelName": "Prisma",
  "Modality": "MR",
  "MultibandAccelerationFactor": 3,
  "PartialFourier": 1,
  "PatientPosition": "HFS",
  "PercentPhaseFOV": 100,
  "PercentSampling": 100,
  "PhaseEncodingDirection": "j-",
  "PhaseEncodingSteps": 100,
  "PhaseResolution": 1,
  "PixelBandwidth": 2380,
  "ProcedureStepDescription": "BNU_P2018_64CH^Zhen.ZongLei",
  "ProtocolName": "bold_100x100_s3_2x2x2_static_156",
  "PulseSequenceDetails": "%SiemensSeq%\\ep2d_bold",
  "ReceiveCoilActiveElements": "HC1-7;NC1",
  "ReceiveCoilName": "HeadNeck_64",
  "ReconMatrixPE": 100,
  "RefLinesPE": 32,
  "RepetitionTime": 2,
  "SAR": 0.0818343,
  "ScanOptions": "FS",
  "ScanningSequence": "EP",
  "SequenceName": "*epfid2d1_100",
  "SequenceVariant": "SK",
  "SeriesDescription": "bold_100x100_s3_2x2x2_static_156",
  "SeriesNumber": 12,
  "ShimSetting": [-5453, -11507, -1253, 220, -16, -160, -116, 33],
  "SliceThickness": 2,
  "SliceTiming": [1.485, 0, 0.99, 0.0825, 1.0725, 0.165, 1.155, 0.2475, 1.2375, 0.33, 1.32, 0.4125, 1.4025, 0.5775, 1.5675, 0.66, 1.65, 0.7425, 1.7325, 0.825, 1.815, 0.9075, 1.8975, 0.495, 1.485, 0, 0.99, 0.0825, 1.0725, 0.165, 1.155, 0.2475, 1.2375, 0.33, 1.32, 0.4125, 1.4025, 0.5775, 1.5675, 0.66, 1.65, 0.7425, 1.7325, 0.825, 1.815, 0.9075, 1.8975, 0.495, 1.485, 0, 0.99, 0.0825, 1.0725, 0.165, 1.155, 0.2475, 1.2375, 0.33, 1.32, 0.4125, 1.4025, 0.5775, 1.5675, 0.66, 1.65, 0.7425, 1.7325, 0.825, 1.815, 0.9075, 1.8975, 0.495],
  "SoftwareVersions": "syngo MR E11",
  "SpacingBetweenSlices": 2,
  "StationName": "AWP166078",
  "TaskName": "action",
  "TotalReadoutTime": 0.0534586,
  "TxRefAmp": 248.101,
  "dcmmeta_affine": [
    [-1.9995613098144531, -8.797884021305435e-08, 0.04188484698534012, 98.49115753173828],
    [-0.0030676585156470537, 1.99462890625, -0.14644427597522736, -84.2965087890625],
    [0.04177235811948776, 0.1464764028787613, 1.9941915273666382, -80.05976104736328],
    [0.0, 0.0, 0.0, 1.0]
],
  "dcmmeta_reorient_transform": [
    [0.0, -1.0, 0.0, 99.0],
    [1.0, 0.0, 0.0, 0.0],
    [0.0, 0.0, 1.0, 0.0],
    [0.0, 0.0, 0.0, 1.0]
],
  "dcmmeta_shape": [100, 100, 72, 156],
  "dcmmeta_slice_dim": 2,
  "dcmmeta_version": 0.6,
  "global": {
    "const": {
      "AcquisitionMatrix": [100, 0, 0, 100],
      "AngioFlag": "N",
      "BitsAllocated": 16,
      "BitsStored": 12,
      "BodyPartExamined": "BRAIN",
      "Columns": 900,
      "EchoNumbers": 1,
      "EchoTime": 34.0,
      "EchoTrainLength": 100,
      "FlipAngle": 90.0,
      "HighBit": 11,
      "ImageOrientationPatient": [0.99978068341424, 0.00153382924523, 0.02088617819523, -4.398942e-08, 0.9973144768881, -0.073238201708],
      "ImagePositionPatient": [-898.31566370866, -912.25040560423, -23.676979192522],
      "ImageType": [
        "ORIGINAL",
        "PRIMARY",
        "M",
        "ND",
        "MOSAIC"
],
      "ImagedNucleus": "1H",
      "ImagingFrequency": 123.257734,
      "InPlanePhaseEncodingDirection": "COL",
      "MRAcquisitionType": "2D",
      "MagneticFieldStrength": 3.0,
      "Manufacturer": "SIEMENS",
      "ManufacturerModelName": "Prisma",
      "Modality": "MR",
      "NumberOfAverages": 1.0,
      "NumberOfPhaseEncodingSteps": 100,
      "PercentPhaseFieldOfView": 100.0,
      "PercentSampling": 100.0,
      "PerformedProcedureStepStartTime": "101939.936000",
      "PhotometricInterpretation": "MONOCHROME2",
      "PixelBandwidth": 2380.0,
      "PixelRepresentation": 0,
      "PixelSpacing": [2.0, 2.0],
      "ProtocolName": "bold_100x100_s3_2x2x2_static_156",
      "RepetitionTime": 2000.0,
      "Rows": 900,
      "SAR": 0.08183426003667,
      "SamplesPerPixel": 1,
      "ScanOptions": "FS",
      "ScanningSequence": "EP",
      "SequenceName": "*epfid2d1_100",
      "SequenceVariant": "SK",
      "SeriesDescription": "bold_100x100_s3_2x2x2_static_156",
      "SeriesNumber": 12,
      "SeriesTime": "111848.991000",
      "SliceLocation": -71.592234382304,
      "SliceThickness": 2.0,
      "SmallestImagePixelValue": 0,
      "SoftwareVersions": "syngo MR E11",
      "SpacingBetweenSlices": 2.0000000592766,
      "SpecificCharacterSet": "ISO_IR 100",
      "StudyID": "1",
      "StudyTime": "101939.870000",
      "TransmitCoilName": "Body",
      "VariableFlipAngleFlag": "N",
      "WindowCenterWidthExplanation": "Algo1",
      "dBdt": 0.0},
    "slices": {}
  },
  "time": {
    "samples": {
      "AcquisitionNumber": [1, 2, 3, 4, 5, 6, 7, 8, 9, 10, 11, 12, 13, 14, 15, 16, 17, 18, 19, 20, 21, 22, 23, 24, 25, 26, 27, 28, 29, 30, 31, 32, 33, 34, 35, 36, 37, 38, 39, 40, 41, 42, 43, 44, 45, 46, 47, 48, 49, 50, 51, 52, 53, 54, 55, 56, 57, 58, 59, 60, 61, 62, 63, 64, 65, 66, 67, 68, 69, 70, 71, 72, 73, 74, 75, 76, 77, 78, 79, 80, 81, 82, 83, 84, 85, 86, 87, 88, 89, 90, 91, 92, 93, 94, 95, 96, 97, 98, 99, 100, 101, 102, 103, 104, 105, 106, 107, 108, 109, 110, 111, 112, 113, 114, 115, 116, 117, 118, 119, 120, 121, 122, 123, 124, 125, 126, 127, 128, 129, 130, 131, 132, 133, 134, 135, 136, 137, 138, 139, 140, 141, 142, 143, 144, 145, 146, 147, 148, 149, 150, 151, 152, 153, 154, 155, 156],
      "AcquisitionTime": ["111846.457500", "111848.457500", "111850.457500", "111852.457500", "111854.457500", "111856.457500", "111858.457500", "111900.457500", "111902.457500", "111904.457500", "111906.457500", "111908.457500", "111910.457500", "111912.457500", "111914.457500", "111916.457500", "111918.457500", "111920.457500", "111922.457500", "111924.457500", "111926.457500", "111928.457500", "111930.457500", "111932.457500", "111934.457500", "111936.457500", "111938.457500", "111940.457500", "111942.457500", "111944.457500", "111946.457500", "111948.457500", "111950.457500", "111952.457500", "111954.457500", "111956.457500", "111958.457500", "112000.457500", "112002.457500", "112004.457500", "112006.457500", "112008.457500", "112010.457500", "112012.457500", "112014.457500", "112016.457500", "112018.457500", "112020.457500", "112022.457500", "112024.457500", "112026.457500", "112028.457500", "112030.457500", "112032.457500", "112034.457500", "112036.457500", "112038.457500", "112040.457500", "112042.457500", "112044.457500", "112046.457500", "112048.457500", "112050.457500", "112052.457500", "112054.457500", "112056.457500", "112058.457500", "112100.457500", "112102.457500", "112104.457500", "112106.457500", "112108.457500", "112110.457500", "112112.457500", "112114.457500", "112116.457500", "112118.457500", "112120.457500", "112122.457500", "112124.457500", "112126.457500", "112128.457500", "112130.457500", "112132.457500", "112134.457500", "112136.457500", "112138.457500", "112140.457500", "112142.457500", "112144.457500", "112146.457500", "112148.457500", "112150.457500", "112152.457500", "112154.457500", "112156.457500", "112158.457500", "112200.457500", "112202.457500", "112204.457500", "112206.457500", "112208.457500", "112210.457500", "112212.457500", "112214.457500", "112216.457500", "112218.457500", "112220.457500", "112222.457500", "112224.457500", "112226.457500", "112228.457500", "112230.457500", "112232.457500", "112234.457500", "112236.457500", "112238.457500", "112240.457500", "112242.457500", "112244.457500", "112246.457500", "112248.457500", "112250.457500", "112252.457500", "112254.457500", "112256.457500", "112258.457500", "112300.457500", "112302.457500", "112304.457500", "112306.457500", "112308.457500", "112310.457500", "112312.457500", "112314.457500", "112316.457500", "112318.457500", "112320.457500", "112322.457500", "112324.457500", "112326.457500", "112328.457500", "112330.457500", "112332.457500", "112334.457500", "112336.457500", "112338.457500", "112340.457500", "112342.457500", "112344.457500", "112346.457500", "112348.457500", "112350.457500", "112352.457500", "112354.457500", "112356.457500"],
      "ContentTime": ["111848.995000", "111849.991000", "111851.991000", "111854.489000", "111856.490000", "111858.490000", "111859.989000", "111902.490000", "111903.990000", "111905.991000", "111907.991000", "111909.990000", "111911.990000", "111913.990000", "111915.989000", "111917.989000", "111919.990000", "111921.991000", "111923.990000", "111925.991000", "111928.489000", "111930.490000", "111931.989000", "111933.989000", "111935.989000", "111937.990000", "111940.490000", "111941.990000", "111943.991000", "111945.990000", "111947.990000", "111949.989000", "111951.990000", "111953.989000", "111955.989000", "111957.990000", "111959.990000", "112001.991000", "112003.990000", "112005.989000", "112007.989000", "112009.989000", "112011.989000", "112013.990000", "112015.991000", "112017.991000", "112020.490000", "112021.990000", "112023.989000", "112025.989000", "112028.490000", "112029.990000", "112032.491000", "112033.990000", "112035.990000", "112037.989000", "112039.990000", "112042.490000", "112043.990000", "112046.490000", "112047.990000", "112049.991000", "112052.490000", "112054.491000", "112055.989000", "112057.990000", "112100.490000", "112101.989000", "112104.489000", "112105.990000", "112108.491000", "112109.990000", "112111.991000", "112113.989000", "112115.990000", "112117.990000", "112119.990000", "112121.989000", "112123.991000", "112125.991000", "112128.490000", "112129.990000", "112131.989000", "112133.990000", "112135.990000", "112137.990000", "112140.490000", "112141.990000", "112143.990000", "112145.991000", "112147.989000", "112149.990000", "112151.990000", "112153.989000", "112155.990000", "112157.990000", "112159.990000", "112201.990000", "112203.990000", "112205.989000", "112207.990000", "112209.989000", "112211.990000", "112213.989000", "112215.989000", "112217.991000", "112219.991000", "112221.991000", "112223.989000", "112225.989000", "112227.990000", "112229.990000", "112231.990000", "112233.991000", "112236.491000", "112238.491000", "112239.990000", "112242.489000", "112243.989000", "112246.490000", "112247.989000", "112249.990000", "112251.991000", "112253.991000", "112255.990000", "112257.989000", "112259.990000", "112301.990000", "112304.490000", "112305.989000", "112307.989000", "112309.990000", "112312.491000", "112313.991000", "112315.989000", "112317.990000", "112320.490000", "112322.489000", "112324.489000", "112326.491000", "112327.990000", "112329.990000", "112331.990000", "112333.990000", "112335.989000", "112338.490000", "112339.990000", "112341.989000", "112344.491000", "112345.991000", "112347.990000", "112350.489000", "112351.989000", "112353.990000", "112355.990000", "112358.064000"],
      "InstanceCreationTime": ["111848.995000", "111849.991000", "111851.991000", "111854.489000", "111856.490000", "111858.490000", "111859.989000", "111902.490000", "111903.990000", "111905.991000", "111907.991000", "111909.990000", "111911.990000", "111913.990000", "111915.989000", "111917.989000", "111919.990000", "111921.991000", "111923.990000", "111925.991000", "111928.489000", "111930.490000", "111931.989000", "111933.989000", "111935.989000", "111937.990000", "111940.490000", "111941.990000", "111943.991000", "111945.990000", "111947.990000", "111949.989000", "111951.990000", "111953.989000", "111955.989000", "111957.990000", "111959.990000", "112001.991000", "112003.990000", "112005.989000", "112007.989000", "112009.989000", "112011.989000", "112013.990000", "112015.991000", "112017.991000", "112020.490000", "112021.990000", "112023.989000", "112025.989000", "112028.490000", "112029.990000", "112032.491000", "112033.990000", "112035.990000", "112037.989000", "112039.990000", "112042.490000", "112043.990000", "112046.490000", "112047.990000", "112049.991000", "112052.490000", "112054.491000", "112055.989000", "112057.990000", "112100.490000", "112101.989000", "112104.489000", "112105.990000", "112108.491000", "112109.990000", "112111.991000", "112113.989000", "112115.990000", "112117.990000", "112119.990000", "112121.989000", "112123.991000", "112125.991000", "112128.490000", "112129.990000", "112131.989000", "112133.990000", "112135.990000", "112137.990000", "112140.490000", "112141.990000", "112143.990000", "112145.991000", "112147.989000", "112149.990000", "112151.990000", "112153.989000", "112155.990000", "112157.990000", "112159.990000", "112201.990000", "112203.990000", "112205.989000", "112207.990000", "112209.989000", "112211.990000", "112213.989000", "112215.989000", "112217.991000", "112219.991000", "112221.991000", "112223.989000", "112225.989000", "112227.990000", "112229.990000", "112231.990000", "112233.991000", "112236.491000", "112238.491000", "112239.990000", "112242.489000", "112243.989000", "112246.490000", "112247.989000", "112249.990000", "112251.991000", "112253.991000", "112255.990000", "112257.989000", "112259.990000", "112301.990000", "112304.490000", "112305.989000", "112307.989000", "112309.990000", "112312.491000", "112313.991000", "112315.989000", "112317.990000", "112320.490000", "112322.489000", "112324.489000", "112326.491000", "112327.990000", "112329.990000", "112331.990000", "112333.990000", "112335.989000", "112338.490000", "112339.990000", "112341.989000", "112344.491000", "112345.991000", "112347.990000", "112350.489000", "112351.989000", "112353.990000", "112355.990000", "112358.064000"],
      "InstanceNumber": [1, 2, 3, 4, 5, 6, 7, 8, 9, 10, 11, 12, 13, 14, 15, 16, 17, 18, 19, 20, 21, 22, 23, 24, 25, 26, 27, 28, 29, 30, 31, 32, 33, 34, 35, 36, 37, 38, 39, 40, 41, 42, 43, 44, 45, 46, 47, 48, 49, 50, 51, 52, 53, 54, 55, 56, 57, 58, 59, 60, 61, 62, 63, 64, 65, 66, 67, 68, 69, 70, 71, 72, 73, 74, 75, 76, 77, 78, 79, 80, 81, 82, 83, 84, 85, 86, 87, 88, 89, 90, 91, 92, 93, 94, 95, 96, 97, 98, 99, 100, 101, 102, 103, 104, 105, 106, 107, 108, 109, 110, 111, 112, 113, 114, 115, 116, 117, 118, 119, 120, 121, 122, 123, 124, 125, 126, 127, 128, 129, 130, 131, 132, 133, 134, 135, 136, 137, 138, 139, 140, 141, 142, 143, 144, 145, 146, 147, 148, 149, 150, 151, 152, 153, 154, 155, 156],
      "LargestImagePixelValue": [3040, 3008, 3020, 2953, 3235, 2937, 2905, 3018, 2921, 2865, 2848, 2920, 2832, 2848, 2894, 2834, 2955, 2832, 3017, 2859, 2868, 2854, 2947, 2891, 2885, 2879, 2981, 2864, 2881, 2876, 2871, 2851, 2864, 2873, 2853, 2875, 2895, 2890, 2882, 2898, 2884, 2941, 2922, 2888, 2891, 2896, 2959, 2879, 2892, 2896, 2886, 2863, 2889, 2867, 2871, 3368, 2866, 2889, 2848, 2862, 2859, 2871, 2850, 2890, 2845, 2981, 2928, 3270, 2851, 2817, 2873, 2903, 2832, 2854, 2862, 2859, 2841, 2942, 2826, 2879, 2843, 2990, 2948, 2850, 2863, 2880, 2878, 2876, 2877, 2847, 2900, 2908, 2841, 2845, 2866, 2873, 2846, 2865, 2833, 2840, 2831, 2875, 2838, 2842, 2872, 2907, 2874, 3127, 2828, 2859, 2833, 2876, 2865, 2860, 2844, 2837, 2979, 2855, 2844, 3052, 2958, 2861, 2854, 2860, 2837, 2857, 2921, 2909, 2905, 3058, 2889, 2859, 2878, 2872, 2880, 2908, 2866, 2913, 2866, 2930, 2873, 3027, 2898, 2843, 2876, 2911, 2856, 2916, 2940, 2893, 2894, 2874, 2876, 2888, 2875, 2859],
      "WindowCenter": [816.0, 814.0, 813.0, 812.0, 814.0, 811.0, 811.0, 813.0, 812.0, 811.0, 809.0, 811.0, 811.0, 810.0, 808.0, 807.0, 809.0, 808.0, 809.0, 807.0, 808.0, 808.0, 808.0, 809.0, 810.0, 809.0, 808.0, 806.0, 808.0, 809.0, 808.0, 806.0, 806.0, 806.0, 806.0, 807.0, 808.0, 808.0, 808.0, 809.0, 808.0, 809.0, 807.0, 806.0, 807.0, 807.0, 808.0, 807.0, 808.0, 807.0, 806.0, 805.0, 805.0, 807.0, 807.0, 810.0, 804.0, 805.0, 804.0, 806.0, 806.0, 807.0, 807.0, 809.0, 809.0, 810.0, 807.0, 809.0, 805.0, 806.0, 808.0, 808.0, 807.0, 807.0, 809.0, 809.0, 809.0, 809.0, 806.0, 807.0, 806.0, 809.0, 809.0, 807.0, 806.0, 805.0, 805.0, 806.0, 808.0, 809.0, 808.0, 807.0, 806.0, 808.0, 809.0, 808.0, 807.0, 807.0, 807.0, 806.0, 805.0, 806.0, 806.0, 808.0, 808.0, 808.0, 808.0, 809.0, 807.0, 808.0, 809.0, 810.0, 810.0, 809.0, 807.0, 806.0, 807.0, 806.0, 806.0, 809.0, 808.0, 807.0, 807.0, 806.0, 806.0, 808.0, 811.0, 810.0, 809.0, 809.0, 806.0, 805.0, 806.0, 807.0, 807.0, 809.0, 808.0, 808.0, 806.0, 807.0, 807.0, 808.0, 807.0, 807.0, 808.0, 808.0, 808.0, 809.0, 809.0, 808.0, 807.0, 805.0, 807.0, 808.0, 808.0, 807.0],
      "WindowWidth": [1718.0, 1712.0, 1709.0, 1708.0, 1712.0, 1707.0, 1705.0, 1710.0, 1708.0, 1705.0, 1702.0, 1707.0, 1706.0, 1703.0, 1700.0, 1697.0, 1702.0, 1698.0, 1701.0, 1696.0, 1698.0, 1699.0, 1700.0, 1702.0, 1704.0, 1702.0, 1701.0, 1696.0, 1699.0, 1702.0, 1700.0, 1695.0, 1695.0, 1695.0, 1695.0, 1698.0, 1700.0, 1700.0, 1701.0, 1702.0, 1701.0, 1701.0, 1698.0, 1696.0, 1696.0, 1697.0, 1699.0, 1698.0, 1699.0, 1698.0, 1695.0, 1692.0, 1694.0, 1699.0, 1698.0, 1704.0, 1691.0, 1692.0, 1692.0, 1696.0, 1696.0, 1698.0, 1698.0, 1702.0, 1703.0, 1705.0, 1698.0, 1703.0, 1694.0, 1695.0, 1699.0, 1699.0, 1697.0, 1698.0, 1702.0, 1703.0, 1702.0, 1702.0, 1696.0, 1697.0, 1696.0, 1704.0, 1703.0, 1698.0, 1695.0, 1694.0, 1693.0, 1694.0, 1700.0, 1702.0, 1701.0, 1698.0, 1696.0, 1701.0, 1702.0, 1701.0, 1698.0, 1698.0, 1696.0, 1695.0, 1694.0, 1695.0, 1695.0, 1699.0, 1701.0, 1700.0, 1699.0, 1703.0, 1696.0, 1699.0, 1702.0, 1706.0, 1706.0, 1703.0, 1698.0, 1695.0, 1698.0, 1695.0, 1695.0, 1701.0, 1700.0, 1697.0, 1697.0, 1694.0, 1696.0, 1701.0, 1707.0, 1705.0, 1701.0, 1703.0, 1696.0, 1694.0, 1696.0, 1698.0, 1698.0, 1701.0, 1700.0, 1700.0, 1695.0, 1698.0, 1696.0, 1700.0, 1696.0, 1696.0, 1700.0, 1699.0, 1700.0, 1702.0, 1702.0, 1700.0, 1697.0, 1693.0, 1697.0, 1700.0, 1699.0, 1697.0]
    },
    "slices": {}
  }
}