{
  "AcquisitionMatrixPE": 100,
  "AcquisitionNumber": 1,
  "AcquisitionTime": "10:31:50.962500",
  "BandwidthPerPixelPhaseEncode": 18.519,
  "BaseResolution": 100,
  "BodyPartExamined": "BRAIN",
  "CoilCombinationMethod": "Sum of Squares",
  "ConsistencyInfo": "N4_VE11C_LATEST_20160120",
  "ConversionSoftware": "dcm2niix",
  "ConversionSoftwareVersion": "v1.0.20211006",
  "DerivedVendorReportedEchoSpacing": 0.000539986,
  "DeviceSerialNumber": "166078",
  "DwellTime": 2.1e-06,
  "EchoTime": 0.034,
  "EchoTrainLength": 100,
  "EffectiveEchoSpacing": 0.000539986,
  "FlipAngle": 90,
  "ImageOrientationPatientDICOM": [0.999781, 0.00153383, 0.0208862, -4.39894e-08, 0.997314, -0.0732382],
  "ImageOrientationText": "Tra>Cor(-4.2)>Sag(1.2)",
  "ImageType": [
    "ORIGINAL",
    "PRIMARY",
    "M",
    "ND",
    "MOSAIC"
],
  "ImagingFrequency": 123.258,
  "InPlanePhaseEncodingDirectionDICOM": "COL",
  "InstitutionAddress": "Street StreetNo,Bei Jing,District,CN,ZIP",
  "InstitutionName": "BeiJing Normal University",
  "InstitutionalDepartmentName": "Department",
  "MRAcquisitionType": "2D",
  "MagneticFieldStrength": 3,
  "Manufacturer": "Siemens",
  "ManufacturersModelName": "Prisma",
  "Modality": "MR",
  "MultibandAccelerationFactor": 3,
  "PartialFourier": 1,
  "PatientPosition": "HFS",
  "PercentPhaseFOV": 100,
  "PercentSampling": 100,
  "PhaseEncodingDirection": "j-",
  "PhaseEncodingSteps": 100,
  "PhaseResolution": 1,
  "PixelBandwidth": 2380,
  "ProcedureStepDescription": "BNU_P2018_64CH^Zhen.ZongLei",
  "ProtocolName": "bold_100x100_s3_2x2x2_static_156",
  "PulseSequenceDetails": "%SiemensSeq%\\ep2d_bold",
  "ReceiveCoilActiveElements": "HC1-7;NC1",
  "ReceiveCoilName": "HeadNeck_64",
  "ReconMatrixPE": 100,
  "RefLinesPE": 32,
  "RepetitionTime": 2,
  "SAR": 0.0818343,
  "ScanOptions": "FS",
  "ScanningSequence": "EP",
  "SequenceName": "*epfid2d1_100",
  "SequenceVariant": "SK",
  "SeriesDescription": "bold_100x100_s3_2x2x2_static_156",
  "SeriesNumber": 3,
  "ShimSetting": [-5453, -11507, -1253, 220, -16, -160, -116, 33],
  "SliceThickness": 2,
  "SliceTiming": [1.485, 0, 0.99, 0.0825, 1.0725, 0.165, 1.155, 0.2475, 1.2375, 0.33, 1.32, 0.4125, 1.4025, 0.5775, 1.5675, 0.66, 1.65, 0.7425, 1.7325, 0.825, 1.815, 0.9075, 1.8975, 0.495, 1.485, 0, 0.99, 0.0825, 1.0725, 0.165, 1.155, 0.2475, 1.2375, 0.33, 1.32, 0.4125, 1.4025, 0.5775, 1.5675, 0.66, 1.65, 0.7425, 1.7325, 0.825, 1.815, 0.9075, 1.8975, 0.495, 1.485, 0, 0.99, 0.0825, 1.0725, 0.165, 1.155, 0.2475, 1.2375, 0.33, 1.32, 0.4125, 1.4025, 0.5775, 1.5675, 0.66, 1.65, 0.7425, 1.7325, 0.825, 1.815, 0.9075, 1.8975, 0.495],
  "SoftwareVersions": "syngo MR E11",
  "SpacingBetweenSlices": 2,
  "StationName": "AWP166078",
  "TaskName": "action",
  "TotalReadoutTime": 0.0534586,
  "TxRefAmp": 248.101,
  "dcmmeta_affine": [
    [-1.9995613098144531, -8.797884021305435e-08, 0.04188484698534012, 98.49115753173828],
    [-0.0030676585156470537, 1.99462890625, -0.14644427597522736, -84.2965087890625],
    [0.04177235811948776, 0.1464764028787613, 1.9941915273666382, -80.05976104736328],
    [0.0, 0.0, 0.0, 1.0]
],
  "dcmmeta_reorient_transform": [
    [0.0, -1.0, 0.0, 99.0],
    [1.0, 0.0, 0.0, 0.0],
    [0.0, 0.0, 1.0, 0.0],
    [0.0, 0.0, 0.0, 1.0]
],
  "dcmmeta_shape": [100, 100, 72, 156],
  "dcmmeta_slice_dim": 2,
  "dcmmeta_version": 0.6,
  "global": {
    "const": {
      "AcquisitionMatrix": [100, 0, 0, 100],
      "AngioFlag": "N",
      "BitsAllocated": 16,
      "BitsStored": 12,
      "BodyPartExamined": "BRAIN",
      "Columns": 900,
      "EchoNumbers": 1,
      "EchoTime": 34.0,
      "EchoTrainLength": 100,
      "FlipAngle": 90.0,
      "HighBit": 11,
      "ImageOrientationPatient": [0.99978068341424, 0.00153382924523, 0.02088617819523, -4.398942e-08, 0.9973144768881, -0.073238201708],
      "ImagePositionPatient": [-898.31566370866, -912.25040560423, -23.676979192522],
      "ImageType": [
        "ORIGINAL",
        "PRIMARY",
        "M",
        "ND",
        "MOSAIC"
],
      "ImagedNucleus": "1H",
      "ImagingFrequency": 123.257716,
      "InPlanePhaseEncodingDirection": "COL",
      "MRAcquisitionType": "2D",
      "MagneticFieldStrength": 3.0,
      "Manufacturer": "SIEMENS",
      "ManufacturerModelName": "Prisma",
      "Modality": "MR",
      "NumberOfAverages": 1.0,
      "NumberOfPhaseEncodingSteps": 100,
      "PercentPhaseFieldOfView": 100.0,
      "PercentSampling": 100.0,
      "PerformedProcedureStepStartTime": "101939.936000",
      "PhotometricInterpretation": "MONOCHROME2",
      "PixelBandwidth": 2380.0,
      "PixelRepresentation": 0,
      "PixelSpacing": [2.0, 2.0],
      "ProtocolName": "bold_100x100_s3_2x2x2_static_156",
      "RepetitionTime": 2000.0,
      "Rows": 900,
      "SAR": 0.08183426003667,
      "SamplesPerPixel": 1,
      "ScanOptions": "FS",
      "ScanningSequence": "EP",
      "SequenceName": "*epfid2d1_100",
      "SequenceVariant": "SK",
      "SeriesDescription": "bold_100x100_s3_2x2x2_static_156",
      "SeriesNumber": 3,
      "SeriesTime": "103154.102000",
      "SliceLocation": -71.592234382304,
      "SliceThickness": 2.0,
      "SmallestImagePixelValue": 0,
      "SoftwareVersions": "syngo MR E11",
      "SpacingBetweenSlices": 2.0000000592766,
      "SpecificCharacterSet": "ISO_IR 100",
      "StudyID": "1",
      "StudyTime": "101939.870000",
      "TransmitCoilName": "Body",
      "VariableFlipAngleFlag": "N",
      "WindowCenterWidthExplanation": "Algo1",
      "dBdt": 0.0},
    "slices": {}
  },
  "time": {
    "samples": {
      "AcquisitionNumber": [1, 2, 3, 4, 5, 6, 7, 8, 9, 10, 11, 12, 13, 14, 15, 16, 17, 18, 19, 20, 21, 22, 23, 24, 25, 26, 27, 28, 29, 30, 31, 32, 33, 34, 35, 36, 37, 38, 39, 40, 41, 42, 43, 44, 45, 46, 47, 48, 49, 50, 51, 52, 53, 54, 55, 56, 57, 58, 59, 60, 61, 62, 63, 64, 65, 66, 67, 68, 69, 70, 71, 72, 73, 74, 75, 76, 77, 78, 79, 80, 81, 82, 83, 84, 85, 86, 87, 88, 89, 90, 91, 92, 93, 94, 95, 96, 97, 98, 99, 100, 101, 102, 103, 104, 105, 106, 107, 108, 109, 110, 111, 112, 113, 114, 115, 116, 117, 118, 119, 120, 121, 122, 123, 124, 125, 126, 127, 128, 129, 130, 131, 132, 133, 134, 135, 136, 137, 138, 139, 140, 141, 142, 143, 144, 145, 146, 147, 148, 149, 150, 151, 152, 153, 154, 155, 156],
      "AcquisitionTime": ["103150.962500", "103152.962500", "103154.962500", "103156.962500", "103158.962500", "103200.962500", "103202.962500", "103204.962500", "103206.962500", "103208.962500", "103210.962500", "103212.962500", "103214.962500", "103216.962500", "103218.962500", "103220.962500", "103222.962500", "103224.962500", "103226.962500", "103228.962500", "103230.962500", "103232.962500", "103234.962500", "103236.962500", "103238.962500", "103240.962500", "103242.962500", "103244.962500", "103246.962500", "103248.962500", "103250.962500", "103252.962500", "103254.962500", "103256.962500", "103258.962500", "103300.962500", "103302.962500", "103304.962500", "103306.962500", "103308.962500", "103310.962500", "103312.962500", "103314.962500", "103316.962500", "103318.962500", "103320.962500", "103322.962500", "103324.962500", "103326.962500", "103328.962500", "103330.962500", "103332.962500", "103334.962500", "103336.962500", "103338.962500", "103340.962500", "103342.962500", "103344.962500", "103346.962500", "103348.962500", "103350.962500", "103352.962500", "103354.962500", "103356.962500", "103358.962500", "103400.962500", "103402.962500", "103404.962500", "103406.962500", "103408.962500", "103410.962500", "103412.962500", "103414.962500", "103416.962500", "103418.962500", "103420.962500", "103422.962500", "103424.962500", "103426.962500", "103428.962500", "103430.962500", "103432.962500", "103434.962500", "103436.962500", "103438.962500", "103440.962500", "103442.962500", "103444.962500", "103446.962500", "103448.962500", "103450.962500", "103452.962500", "103454.962500", "103456.962500", "103458.962500", "103500.962500", "103502.962500", "103504.962500", "103506.962500", "103508.962500", "103510.962500", "103512.962500", "103514.962500", "103516.962500", "103518.962500", "103520.962500", "103522.962500", "103524.962500", "103526.962500", "103528.962500", "103530.962500", "103532.962500", "103534.962500", "103536.962500", "103538.962500", "103540.962500", "103542.962500", "103544.962500", "103546.962500", "103548.962500", "103550.962500", "103552.962500", "103554.962500", "103556.962500", "103558.962500", "103600.962500", "103602.962500", "103604.962500", "103606.962500", "103608.962500", "103610.962500", "103612.962500", "103614.962500", "103616.962500", "103618.962500", "103620.962500", "103622.962500", "103624.962500", "103626.962500", "103628.962500", "103630.962500", "103632.962500", "103634.962500", "103636.962500", "103638.962500", "103640.962500", "103642.962500", "103644.962500", "103646.962500", "103648.962500", "103650.962500", "103652.962500", "103654.962500", "103656.962500", "103658.962500", "103700.962500"],
      "ContentTime": ["103154.106000", "103155.102000", "103157.102000", "103159.102000", "103201.100000", "103203.600000", "103205.100000", "103207.600000", "103209.102000", "103211.601000", "103213.101000", "103215.102000", "103217.101000", "103219.100000", "103221.601000", "103223.100000", "103225.101000", "103227.102000", "103229.101000", "103231.101000", "103233.102000", "103235.600000", "103237.600000", "103239.101000", "103241.600000", "103243.100000", "103245.602000", "103247.101000", "103249.101000", "103251.101000", "103253.100000", "103255.101000", "103257.100000", "103259.100000", "103301.601000", "103303.602000", "103305.101000", "103307.101000", "103309.101000", "103311.100000", "103313.100000", "103315.100000", "103317.600000", "103319.102000", "103321.101000", "103323.101000", "103325.101000", "103327.102000", "103329.100000", "103331.100000", "103333.101000", "103335.101000", "103337.101000", "103339.102000", "103341.102000", "103343.602000", "103345.100000", "103347.100000", "103349.100000", "103351.100000", "103353.100000", "103355.102000", "103357.102000", "103359.102000", "103401.102000", "103403.100000", "103405.100000", "103407.101000", "103409.100000", "103411.601000", "103413.102000", "103415.101000", "103417.101000", "103419.602000", "103421.100000", "103423.101000", "103425.101000", "103427.100000", "103429.101000", "103431.102000", "103433.602000", "103435.101000", "103437.102000", "103439.101000", "103441.101000", "103443.100000", "103445.601000", "103447.101000", "103449.601000", "103451.101000", "103453.102000", "103455.100000", "103457.100000", "103459.600000", "103501.100000", "103503.600000", "103505.602000", "103507.601000", "103509.102000", "103511.602000", "103513.100000", "103515.601000", "103517.601000", "103519.601000", "103521.101000", "103523.101000", "103525.101000", "103527.102000", "103529.101000", "103531.601000", "103533.101000", "103535.100000", "103537.600000", "103539.602000", "103541.601000", "103543.102000", "103545.101000", "103547.101000", "103549.100000", "103551.601000", "103553.601000", "103555.601000", "103557.601000", "103559.102000", "103601.101000", "103603.601000", "103605.101000", "103607.100000", "103609.101000", "103611.100000", "103613.100000", "103615.101000", "103617.602000", "103619.101000", "103621.601000", "103623.600000", "103625.101000", "103627.601000", "103629.101000", "103631.101000", "103633.102000", "103635.602000", "103637.102000", "103639.601000", "103641.100000", "103643.100000", "103645.101000", "103647.101000", "103649.602000", "103651.101000", "103653.102000", "103655.101000", "103657.601000", "103659.100000", "103701.601000", "103703.028000"],
      "InstanceCreationTime": ["103154.106000", "103155.102000", "103157.102000", "103159.102000", "103201.100000", "103203.600000", "103205.100000", "103207.600000", "103209.102000", "103211.601000", "103213.101000", "103215.102000", "103217.101000", "103219.100000", "103221.601000", "103223.100000", "103225.101000", "103227.102000", "103229.101000", "103231.101000", "103233.102000", "103235.600000", "103237.600000", "103239.101000", "103241.600000", "103243.100000", "103245.602000", "103247.101000", "103249.101000", "103251.101000", "103253.100000", "103255.101000", "103257.100000", "103259.100000", "103301.601000", "103303.602000", "103305.101000", "103307.101000", "103309.101000", "103311.100000", "103313.100000", "103315.100000", "103317.600000", "103319.102000", "103321.101000", "103323.101000", "103325.101000", "103327.102000", "103329.100000", "103331.100000", "103333.101000", "103335.101000", "103337.101000", "103339.102000", "103341.102000", "103343.602000", "103345.100000", "103347.100000", "103349.100000", "103351.100000", "103353.100000", "103355.102000", "103357.102000", "103359.102000", "103401.102000", "103403.100000", "103405.100000", "103407.101000", "103409.100000", "103411.601000", "103413.102000", "103415.101000", "103417.101000", "103419.602000", "103421.100000", "103423.101000", "103425.101000", "103427.100000", "103429.101000", "103431.102000", "103433.602000", "103435.101000", "103437.102000", "103439.101000", "103441.101000", "103443.100000", "103445.601000", "103447.101000", "103449.601000", "103451.101000", "103453.102000", "103455.100000", "103457.100000", "103459.600000", "103501.100000", "103503.600000", "103505.602000", "103507.601000", "103509.102000", "103511.602000", "103513.100000", "103515.601000", "103517.601000", "103519.601000", "103521.101000", "103523.101000", "103525.101000", "103527.102000", "103529.101000", "103531.601000", "103533.101000", "103535.100000", "103537.600000", "103539.602000", "103541.601000", "103543.102000", "103545.101000", "103547.101000", "103549.100000", "103551.601000", "103553.601000", "103555.601000", "103557.601000", "103559.102000", "103601.101000", "103603.601000", "103605.101000", "103607.100000", "103609.101000", "103611.100000", "103613.100000", "103615.101000", "103617.602000", "103619.101000", "103621.601000", "103623.600000", "103625.101000", "103627.601000", "103629.101000", "103631.101000", "103633.102000", "103635.602000", "103637.102000", "103639.601000", "103641.100000", "103643.100000", "103645.101000", "103647.101000", "103649.602000", "103651.101000", "103653.102000", "103655.101000", "103657.601000", "103659.100000", "103701.601000", "103703.028000"],
      "InstanceNumber": [1, 2, 3, 4, 5, 6, 7, 8, 9, 10, 11, 12, 13, 14, 15, 16, 17, 18, 19, 20, 21, 22, 23, 24, 25, 26, 27, 28, 29, 30, 31, 32, 33, 34, 35, 36, 37, 38, 39, 40, 41, 42, 43, 44, 45, 46, 47, 48, 49, 50, 51, 52, 53, 54, 55, 56, 57, 58, 59, 60, 61, 62, 63, 64, 65, 66, 67, 68, 69, 70, 71, 72, 73, 74, 75, 76, 77, 78, 79, 80, 81, 82, 83, 84, 85, 86, 87, 88, 89, 90, 91, 92, 93, 94, 95, 96, 97, 98, 99, 100, 101, 102, 103, 104, 105, 106, 107, 108, 109, 110, 111, 112, 113, 114, 115, 116, 117, 118, 119, 120, 121, 122, 123, 124, 125, 126, 127, 128, 129, 130, 131, 132, 133, 134, 135, 136, 137, 138, 139, 140, 141, 142, 143, 144, 145, 146, 147, 148, 149, 150, 151, 152, 153, 154, 155, 156],
      "LargestImagePixelValue": [2983, 2963, 2960, 2894, 2924, 2911, 2911, 2910, 2908, 2918, 2948, 2919, 2932, 2932, 2940, 2921, 2858, 2880, 2889, 2924, 2892, 2922, 2961, 2878, 2891, 2945, 2932, 2925, 2914, 2917, 2924, 2943, 2919, 2961, 2938, 2944, 2958, 2931, 2929, 2934, 2954, 2939, 2945, 2960, 2943, 2971, 2964, 2974, 2953, 2981, 2966, 2943, 3002, 2949, 2959, 2957, 2977, 2964, 2968, 2957, 2959, 2967, 2955, 2948, 2974, 2982, 2985, 2990, 2964, 2988, 2966, 2961, 3002, 2962, 2973, 2969, 3005, 2995, 2987, 2934, 3007, 2984, 2990, 2938, 2983, 2987, 2990, 2985, 2987, 2991, 2962, 2983, 3003, 2988, 3002, 3003, 3003, 3004, 3018, 2987, 3015, 3010, 2981, 3015, 2979, 2974, 3007, 2986, 3016, 3003, 2999, 2994, 3007, 3001, 2998, 2963, 2965, 2968, 2984, 3021, 2983, 3017, 3011, 2991, 3013, 2993, 3020, 3013, 3002, 3027, 2988, 2977, 2984, 2994, 2980, 3034, 2987, 2960, 2995, 3003, 2983, 2981, 3004, 2995, 3000, 3004, 2998, 2998, 2970, 2999, 2958, 2974, 2976, 2990, 2984, 2964],
      "WindowCenter": [809.0, 808.0, 807.0, 806.0, 806.0, 807.0, 809.0, 808.0, 807.0, 808.0, 808.0, 808.0, 808.0, 809.0, 808.0, 806.0, 804.0, 805.0, 805.0, 805.0, 804.0, 805.0, 805.0, 804.0, 805.0, 807.0, 807.0, 805.0, 804.0, 804.0, 804.0, 804.0, 803.0, 803.0, 804.0, 805.0, 805.0, 804.0, 803.0, 804.0, 806.0, 806.0, 804.0, 804.0, 805.0, 806.0, 806.0, 806.0, 807.0, 806.0, 805.0, 805.0, 806.0, 805.0, 804.0, 805.0, 805.0, 805.0, 805.0, 805.0, 805.0, 804.0, 805.0, 806.0, 807.0, 806.0, 806.0, 806.0, 806.0, 806.0, 806.0, 806.0, 806.0, 806.0, 806.0, 807.0, 808.0, 806.0, 804.0, 803.0, 804.0, 805.0, 806.0, 805.0, 807.0, 807.0, 807.0, 805.0, 805.0, 806.0, 805.0, 805.0, 806.0, 806.0, 807.0, 807.0, 807.0, 806.0, 807.0, 807.0, 806.0, 806.0, 806.0, 806.0, 805.0, 806.0, 806.0, 805.0, 806.0, 806.0, 806.0, 806.0, 806.0, 807.0, 807.0, 805.0, 805.0, 806.0, 808.0, 807.0, 806.0, 806.0, 806.0, 806.0, 807.0, 807.0, 806.0, 805.0, 805.0, 806.0, 806.0, 805.0, 804.0, 804.0, 805.0, 806.0, 806.0, 807.0, 808.0, 807.0, 806.0, 807.0, 807.0, 806.0, 806.0, 806.0, 806.0, 807.0, 807.0, 806.0, 805.0, 805.0, 805.0, 805.0, 806.0, 807.0],
      "WindowWidth": [1707.0, 1704.0, 1702.0, 1699.0, 1698.0, 1702.0, 1706.0, 1704.0, 1702.0, 1704.0, 1704.0, 1704.0, 1705.0, 1707.0, 1705.0, 1699.0, 1695.0, 1696.0, 1696.0, 1696.0, 1696.0, 1697.0, 1697.0, 1694.0, 1698.0, 1702.0, 1702.0, 1698.0, 1695.0, 1696.0, 1696.0, 1695.0, 1692.0, 1693.0, 1696.0, 1698.0, 1698.0, 1693.0, 1692.0, 1695.0, 1701.0, 1699.0, 1695.0, 1694.0, 1697.0, 1699.0, 1699.0, 1700.0, 1701.0, 1700.0, 1698.0, 1698.0, 1700.0, 1698.0, 1696.0, 1697.0, 1698.0, 1697.0, 1698.0, 1697.0, 1696.0, 1694.0, 1697.0, 1699.0, 1701.0, 1700.0, 1698.0, 1700.0, 1699.0, 1699.0, 1698.0, 1699.0, 1700.0, 1699.0, 1699.0, 1703.0, 1704.0, 1699.0, 1694.0, 1690.0, 1695.0, 1696.0, 1698.0, 1696.0, 1701.0, 1702.0, 1701.0, 1697.0, 1698.0, 1699.0, 1697.0, 1696.0, 1698.0, 1699.0, 1702.0, 1702.0, 1701.0, 1700.0, 1701.0, 1700.0, 1699.0, 1698.0, 1698.0, 1699.0, 1697.0, 1699.0, 1699.0, 1697.0, 1698.0, 1699.0, 1699.0, 1698.0, 1699.0, 1701.0, 1700.0, 1695.0, 1696.0, 1700.0, 1703.0, 1702.0, 1699.0, 1698.0, 1698.0, 1699.0, 1700.0, 1700.0, 1699.0, 1697.0, 1697.0, 1698.0, 1698.0, 1696.0, 1694.0, 1695.0, 1696.0, 1698.0, 1698.0, 1701.0, 1702.0, 1700.0, 1699.0, 1700.0, 1700.0, 1699.0, 1699.0, 1698.0, 1699.0, 1701.0, 1700.0, 1698.0, 1696.0, 1696.0, 1695.0, 1696.0, 1699.0, 1700.0]
    },
    "slices": {}
  }
}