{
  "AcquisitionMatrixPE": 100,
  "AcquisitionNumber": 1,
  "AcquisitionTime": "11:37:40.660000",
  "BandwidthPerPixelPhaseEncode": 18.519,
  "BaseResolution": 100,
  "BodyPartExamined": "BRAIN",
  "CoilCombinationMethod": "Sum of Squares",
  "ConsistencyInfo": "N4_VE11C_LATEST_20160120",
  "ConversionSoftware": "dcm2niix",
  "ConversionSoftwareVersion": "v1.0.20211006",
  "DerivedVendorReportedEchoSpacing": 0.000539986,
  "DeviceSerialNumber": "166078",
  "DwellTime": 2.1e-06,
  "EchoTime": 0.034,
  "EchoTrainLength": 100,
  "EffectiveEchoSpacing": 0.000539986,
  "FlipAngle": 90,
  "ImageOrientationPatientDICOM": [0.999781, 0.00153383, 0.0208862, -4.39894e-08, 0.997314, -0.0732382],
  "ImageOrientationText": "Tra>Cor(-4.2)>Sag(1.2)",
  "ImageType": [
    "ORIGINAL",
    "PRIMARY",
    "M",
    "ND",
    "MOSAIC"
],
  "ImagingFrequency": 123.258,
  "InPlanePhaseEncodingDirectionDICOM": "COL",
  "InstitutionAddress": "Street StreetNo,Bei Jing,District,CN,ZIP",
  "InstitutionName": "BeiJing Normal University",
  "InstitutionalDepartmentName": "Department",
  "MRAcquisitionType": "2D",
  "MagneticFieldStrength": 3,
  "Manufacturer": "Siemens",
  "ManufacturersModelName": "Prisma",
  "Modality": "MR",
  "MultibandAccelerationFactor": 3,
  "PartialFourier": 1,
  "PatientPosition": "HFS",
  "PercentPhaseFOV": 100,
  "PercentSampling": 100,
  "PhaseEncodingDirection": "j-",
  "PhaseEncodingSteps": 100,
  "PhaseResolution": 1,
  "PixelBandwidth": 2380,
  "ProcedureStepDescription": "BNU_P2018_64CH^Zhen.ZongLei",
  "ProtocolName": "bold_100x100_s3_2x2x2_static_156",
  "PulseSequenceDetails": "%SiemensSeq%\\ep2d_bold",
  "ReceiveCoilActiveElements": "HC1-7;NC1",
  "ReceiveCoilName": "HeadNeck_64",
  "ReconMatrixPE": 100,
  "RefLinesPE": 32,
  "RepetitionTime": 2,
  "SAR": 0.0818343,
  "ScanOptions": "FS",
  "ScanningSequence": "EP",
  "SequenceName": "*epfid2d1_100",
  "SequenceVariant": "SK",
  "SeriesDescription": "bold_100x100_s3_2x2x2_static_156",
  "SeriesNumber": 15,
  "ShimSetting": [-5453, -11507, -1253, 220, -16, -160, -116, 33],
  "SliceThickness": 2,
  "SliceTiming": [1.4825, 0, 0.99, 0.0825, 1.0725, 0.165, 1.155, 0.2475, 1.2375, 0.33, 1.32, 0.4125, 1.4, 0.5775, 1.565, 0.66, 1.6475, 0.7425, 1.73, 0.825, 1.8125, 0.9075, 1.895, 0.495, 1.4825, 0, 0.99, 0.0825, 1.0725, 0.165, 1.155, 0.2475, 1.2375, 0.33, 1.32, 0.4125, 1.4, 0.5775, 1.565, 0.66, 1.6475, 0.7425, 1.73, 0.825, 1.8125, 0.9075, 1.895, 0.495, 1.4825, 0, 0.99, 0.0825, 1.0725, 0.165, 1.155, 0.2475, 1.2375, 0.33, 1.32, 0.4125, 1.4, 0.5775, 1.565, 0.66, 1.6475, 0.7425, 1.73, 0.825, 1.8125, 0.9075, 1.895, 0.495],
  "SoftwareVersions": "syngo MR E11",
  "SpacingBetweenSlices": 2,
  "StationName": "AWP166078",
  "TaskName": "action",
  "TotalReadoutTime": 0.0534586,
  "TxRefAmp": 248.101,
  "dcmmeta_affine": [
    [-1.9995613098144531, -8.797884021305435e-08, 0.04188484698534012, 98.49115753173828],
    [-0.0030676585156470537, 1.99462890625, -0.14644427597522736, -84.2965087890625],
    [0.04177235811948776, 0.1464764028787613, 1.9941915273666382, -80.05976104736328],
    [0.0, 0.0, 0.0, 1.0]
],
  "dcmmeta_reorient_transform": [
    [0.0, -1.0, 0.0, 99.0],
    [1.0, 0.0, 0.0, 0.0],
    [0.0, 0.0, 1.0, 0.0],
    [0.0, 0.0, 0.0, 1.0]
],
  "dcmmeta_shape": [100, 100, 72, 156],
  "dcmmeta_slice_dim": 2,
  "dcmmeta_version": 0.6,
  "global": {
    "const": {
      "AcquisitionMatrix": [100, 0, 0, 100],
      "AngioFlag": "N",
      "BitsAllocated": 16,
      "BitsStored": 12,
      "BodyPartExamined": "BRAIN",
      "Columns": 900,
      "EchoNumbers": 1,
      "EchoTime": 34.0,
      "EchoTrainLength": 100,
      "FlipAngle": 90.0,
      "HighBit": 11,
      "ImageOrientationPatient": [0.99978068341424, 0.00153382924523, 0.02088617819523, -4.398942e-08, 0.9973144768881, -0.073238201708],
      "ImagePositionPatient": [-898.31566370866, -912.25040560423, -23.676979192522],
      "ImageType": [
        "ORIGINAL",
        "PRIMARY",
        "M",
        "ND",
        "MOSAIC"
],
      "ImagedNucleus": "1H",
      "ImagingFrequency": 123.257734,
      "InPlanePhaseEncodingDirection": "COL",
      "MRAcquisitionType": "2D",
      "MagneticFieldStrength": 3.0,
      "Manufacturer": "SIEMENS",
      "ManufacturerModelName": "Prisma",
      "Modality": "MR",
      "NumberOfAverages": 1.0,
      "NumberOfPhaseEncodingSteps": 100,
      "PercentPhaseFieldOfView": 100.0,
      "PercentSampling": 100.0,
      "PerformedProcedureStepStartTime": "101939.936000",
      "PhotometricInterpretation": "MONOCHROME2",
      "PixelBandwidth": 2380.0,
      "PixelRepresentation": 0,
      "PixelSpacing": [2.0, 2.0],
      "ProtocolName": "bold_100x100_s3_2x2x2_static_156",
      "RepetitionTime": 2000.0,
      "Rows": 900,
      "SAR": 0.08183426003667,
      "SamplesPerPixel": 1,
      "ScanOptions": "FS",
      "ScanningSequence": "EP",
      "SequenceName": "*epfid2d1_100",
      "SequenceVariant": "SK",
      "SeriesDescription": "bold_100x100_s3_2x2x2_static_156",
      "SeriesNumber": 15,
      "SeriesTime": "113743.281000",
      "SliceLocation": -71.592234382304,
      "SliceThickness": 2.0,
      "SmallestImagePixelValue": 0,
      "SoftwareVersions": "syngo MR E11",
      "SpacingBetweenSlices": 2.0000000592766,
      "SpecificCharacterSet": "ISO_IR 100",
      "StudyID": "1",
      "StudyTime": "101939.870000",
      "TransmitCoilName": "Body",
      "VariableFlipAngleFlag": "N",
      "WindowCenterWidthExplanation": "Algo1",
      "dBdt": 0.0},
    "slices": {}
  },
  "time": {
    "samples": {
      "AcquisitionNumber": [1, 2, 3, 4, 5, 6, 7, 8, 9, 10, 11, 12, 13, 14, 15, 16, 17, 18, 19, 20, 21, 22, 23, 24, 25, 26, 27, 28, 29, 30, 31, 32, 33, 34, 35, 36, 37, 38, 39, 40, 41, 42, 43, 44, 45, 46, 47, 48, 49, 50, 51, 52, 53, 54, 55, 56, 57, 58, 59, 60, 61, 62, 63, 64, 65, 66, 67, 68, 69, 70, 71, 72, 73, 74, 75, 76, 77, 78, 79, 80, 81, 82, 83, 84, 85, 86, 87, 88, 89, 90, 91, 92, 93, 94, 95, 96, 97, 98, 99, 100, 101, 102, 103, 104, 105, 106, 107, 108, 109, 110, 111, 112, 113, 114, 115, 116, 117, 118, 119, 120, 121, 122, 123, 124, 125, 126, 127, 128, 129, 130, 131, 132, 133, 134, 135, 136, 137, 138, 139, 140, 141, 142, 143, 144, 145, 146, 147, 148, 149, 150, 151, 152, 153, 154, 155, 156],
      "AcquisitionTime": ["113740.660000", "113742.660000", "113744.660000", "113746.660000", "113748.660000", "113750.660000", "113752.660000", "113754.660000", "113756.660000", "113758.660000", "113800.660000", "113802.660000", "113804.660000", "113806.660000", "113808.660000", "113810.660000", "113812.660000", "113814.660000", "113816.660000", "113818.660000", "113820.660000", "113822.660000", "113824.660000", "113826.660000", "113828.660000", "113830.660000", "113832.660000", "113834.660000", "113836.660000", "113838.660000", "113840.660000", "113842.660000", "113844.660000", "113846.660000", "113848.660000", "113850.660000", "113852.660000", "113854.660000", "113856.660000", "113858.660000", "113900.660000", "113902.660000", "113904.660000", "113906.660000", "113908.660000", "113910.660000", "113912.660000", "113914.660000", "113916.660000", "113918.660000", "113920.660000", "113922.660000", "113924.660000", "113926.660000", "113928.660000", "113930.660000", "113932.660000", "113934.660000", "113936.660000", "113938.660000", "113940.660000", "113942.660000", "113944.660000", "113946.660000", "113948.660000", "113950.660000", "113952.660000", "113954.660000", "113956.660000", "113958.660000", "114000.660000", "114002.660000", "114004.660000", "114006.660000", "114008.660000", "114010.660000", "114012.660000", "114014.660000", "114016.660000", "114018.660000", "114020.660000", "114022.660000", "114024.660000", "114026.660000", "114028.660000", "114030.660000", "114032.660000", "114034.660000", "114036.660000", "114038.660000", "114040.660000", "114042.660000", "114044.660000", "114046.660000", "114048.660000", "114050.660000", "114052.660000", "114054.660000", "114056.660000", "114058.660000", "114100.660000", "114102.660000", "114104.660000", "114106.660000", "114108.660000", "114110.660000", "114112.660000", "114114.660000", "114116.660000", "114118.660000", "114120.660000", "114122.660000", "114124.660000", "114126.660000", "114128.660000", "114130.660000", "114132.660000", "114134.660000", "114136.660000", "114138.660000", "114140.660000", "114142.660000", "114144.660000", "114146.660000", "114148.660000", "114150.660000", "114152.660000", "114154.660000", "114156.660000", "114158.660000", "114200.660000", "114202.660000", "114204.660000", "114206.660000", "114208.660000", "114210.660000", "114212.660000", "114214.660000", "114216.660000", "114218.660000", "114220.660000", "114222.660000", "114224.660000", "114226.660000", "114228.660000", "114230.660000", "114232.660000", "114234.660000", "114236.660000", "114238.660000", "114240.660000", "114242.660000", "114244.660000", "114246.660000", "114248.660000", "114250.660000"],
      "ContentTime": ["113743.285000", "113744.781000", "113746.780000", "113748.780000", "113750.780000", "113752.780000", "113754.780000", "113756.779000", "113758.779000", "113800.781000", "113802.780000", "113804.780000", "113806.780000", "113808.780000", "113810.780000", "113812.779000", "113814.780000", "113816.780000", "113818.780000", "113820.780000", "113822.779000", "113824.780000", "113826.779000", "113828.780000", "113830.779000", "113832.779000", "113834.779000", "113836.780000", "113838.781000", "113840.779000", "113842.780000", "113844.780000", "113846.780000", "113848.780000", "113850.779000", "113852.780000", "113854.781000", "113856.781000", "113858.779000", "113900.780000", "113902.779000", "113904.780000", "113906.780000", "113908.780000", "113910.781000", "113912.780000", "113914.780000", "113916.780000", "113918.780000", "113920.780000", "113922.779000", "113924.780000", "113926.780000", "113928.780000", "113930.780000", "113932.779000", "113934.780000", "113936.779000", "113938.780000", "113940.779000", "113942.780000", "113944.780000", "113946.780000", "113948.781000", "113950.779000", "113952.780000", "113954.780000", "113956.780000", "113958.780000", "114000.779000", "114002.781000", "114004.781000", "114006.780000", "114008.779000", "114010.779000", "114012.779000", "114014.780000", "114016.780000", "114018.779000", "114020.781000", "114022.780000", "114024.780000", "114026.780000", "114028.779000", "114030.780000", "114032.780000", "114034.780000", "114036.779000", "114038.780000", "114040.781000", "114042.779000", "114044.779000", "114046.780000", "114048.779000", "114050.779000", "114052.780000", "114054.780000", "114056.781000", "114058.781000", "114100.780000", "114102.780000", "114104.780000", "114106.779000", "114108.779000", "114110.779000", "114112.780000", "114114.781000", "114116.780000", "114118.779000", "114120.780000", "114122.780000", "114124.779000", "114126.780000", "114128.779000", "114130.781000", "114132.780000", "114134.780000", "114136.779000", "114138.780000", "114140.780000", "114142.780000", "114144.780000", "114146.780000", "114148.781000", "114150.781000", "114152.780000", "114154.779000", "114156.779000", "114158.780000", "114200.780000", "114202.780000", "114204.779000", "114206.780000", "114208.780000", "114210.780000", "114212.779000", "114214.779000", "114216.780000", "114218.779000", "114220.779000", "114222.781000", "114224.780000", "114226.781000", "114228.780000", "114230.780000", "114232.780000", "114234.779000", "114236.780000", "114238.780000", "114240.781000", "114242.780000", "114244.780000", "114246.780000", "114248.780000", "114250.780000", "114252.371000"],
      "InstanceCreationTime": ["113743.285000", "113744.781000", "113746.780000", "113748.780000", "113750.780000", "113752.780000", "113754.780000", "113756.779000", "113758.779000", "113800.781000", "113802.780000", "113804.780000", "113806.780000", "113808.780000", "113810.780000", "113812.779000", "113814.780000", "113816.780000", "113818.780000", "113820.780000", "113822.779000", "113824.780000", "113826.779000", "113828.780000", "113830.779000", "113832.779000", "113834.779000", "113836.780000", "113838.781000", "113840.779000", "113842.780000", "113844.780000", "113846.780000", "113848.780000", "113850.779000", "113852.780000", "113854.781000", "113856.781000", "113858.779000", "113900.780000", "113902.779000", "113904.780000", "113906.780000", "113908.780000", "113910.781000", "113912.780000", "113914.780000", "113916.780000", "113918.780000", "113920.780000", "113922.779000", "113924.780000", "113926.780000", "113928.780000", "113930.780000", "113932.779000", "113934.780000", "113936.779000", "113938.780000", "113940.779000", "113942.780000", "113944.780000", "113946.780000", "113948.781000", "113950.779000", "113952.780000", "113954.780000", "113956.780000", "113958.780000", "114000.779000", "114002.781000", "114004.781000", "114006.780000", "114008.779000", "114010.779000", "114012.779000", "114014.780000", "114016.780000", "114018.779000", "114020.781000", "114022.780000", "114024.780000", "114026.780000", "114028.779000", "114030.780000", "114032.780000", "114034.780000", "114036.779000", "114038.780000", "114040.781000", "114042.779000", "114044.779000", "114046.780000", "114048.779000", "114050.779000", "114052.780000", "114054.780000", "114056.781000", "114058.781000", "114100.780000", "114102.780000", "114104.780000", "114106.779000", "114108.779000", "114110.779000", "114112.780000", "114114.781000", "114116.780000", "114118.779000", "114120.780000", "114122.780000", "114124.779000", "114126.780000", "114128.779000", "114130.781000", "114132.780000", "114134.780000", "114136.779000", "114138.780000", "114140.780000", "114142.780000", "114144.780000", "114146.780000", "114148.781000", "114150.781000", "114152.780000", "114154.779000", "114156.779000", "114158.780000", "114200.780000", "114202.780000", "114204.779000", "114206.780000", "114208.780000", "114210.780000", "114212.779000", "114214.779000", "114216.780000", "114218.779000", "114220.779000", "114222.781000", "114224.780000", "114226.781000", "114228.780000", "114230.780000", "114232.780000", "114234.779000", "114236.780000", "114238.780000", "114240.781000", "114242.780000", "114244.780000", "114246.780000", "114248.780000", "114250.780000", "114252.371000"],
      "InstanceNumber": [1, 2, 3, 4, 5, 6, 7, 8, 9, 10, 11, 12, 13, 14, 15, 16, 17, 18, 19, 20, 21, 22, 23, 24, 25, 26, 27, 28, 29, 30, 31, 32, 33, 34, 35, 36, 37, 38, 39, 40, 41, 42, 43, 44, 45, 46, 47, 48, 49, 50, 51, 52, 53, 54, 55, 56, 57, 58, 59, 60, 61, 62, 63, 64, 65, 66, 67, 68, 69, 70, 71, 72, 73, 74, 75, 76, 77, 78, 79, 80, 81, 82, 83, 84, 85, 86, 87, 88, 89, 90, 91, 92, 93, 94, 95, 96, 97, 98, 99, 100, 101, 102, 103, 104, 105, 106, 107, 108, 109, 110, 111, 112, 113, 114, 115, 116, 117, 118, 119, 120, 121, 122, 123, 124, 125, 126, 127, 128, 129, 130, 131, 132, 133, 134, 135, 136, 137, 138, 139, 140, 141, 142, 143, 144, 145, 146, 147, 148, 149, 150, 151, 152, 153, 154, 155, 156],
      "LargestImagePixelValue": [3041, 2956, 2914, 2937, 2952, 3170, 2952, 2971, 2952, 2993, 2965, 2914, 2970, 2935, 2982, 3381, 2969, 2959, 2981, 2953, 3147, 2926, 2902, 2977, 3090, 2943, 2958, 3077, 2928, 3100, 2949, 2974, 3063, 2923, 2967, 2938, 2965, 3085, 2958, 2950, 2958, 2927, 2975, 2946, 2944, 2961, 3060, 3177, 2944, 2940, 3098, 2943, 2954, 3137, 3462, 2941, 2937, 2997, 2968, 2935, 3153, 2962, 2944, 2946, 2910, 3120, 3002, 2967, 2930, 3175, 2951, 2955, 2942, 3168, 3416, 2955, 3035, 2947, 2949, 3181, 2919, 2940, 2952, 3255, 3070, 3199, 2969, 2930, 3296, 3114, 2945, 2913, 2924, 2919, 3365, 3398, 2925, 3287, 2940, 2926, 3020, 2958, 3163, 2909, 3059, 2925, 2918, 2896, 2926, 3293, 3449, 3019, 3184, 2958, 3087, 2966, 2955, 3229, 2933, 3008, 3283, 3292, 2920, 2931, 2960, 3116, 3395, 2905, 2936, 2897, 2917, 2920, 3358, 2913, 2937, 2942, 3288, 3299, 2977, 3474, 2935, 2929, 2967, 3015, 2960, 2986, 3037, 2948, 3275, 2924, 2891, 2939, 2929, 3313, 3186, 3313],
      "WindowCenter": [818.0, 815.0, 813.0, 813.0, 813.0, 814.0, 811.0, 812.0, 811.0, 812.0, 813.0, 813.0, 812.0, 812.0, 811.0, 814.0, 810.0, 809.0, 811.0, 813.0, 815.0, 812.0, 810.0, 811.0, 811.0, 810.0, 812.0, 812.0, 808.0, 810.0, 810.0, 812.0, 813.0, 812.0, 811.0, 809.0, 809.0, 810.0, 809.0, 810.0, 810.0, 809.0, 808.0, 809.0, 813.0, 814.0, 814.0, 814.0, 811.0, 810.0, 811.0, 809.0, 809.0, 811.0, 814.0, 810.0, 810.0, 811.0, 811.0, 811.0, 814.0, 813.0, 812.0, 811.0, 811.0, 813.0, 812.0, 811.0, 810.0, 812.0, 810.0, 810.0, 810.0, 813.0, 817.0, 813.0, 813.0, 810.0, 809.0, 812.0, 812.0, 813.0, 812.0, 814.0, 812.0, 814.0, 811.0, 810.0, 813.0, 812.0, 811.0, 811.0, 810.0, 810.0, 814.0, 815.0, 812.0, 814.0, 811.0, 811.0, 812.0, 811.0, 812.0, 809.0, 811.0, 809.0, 809.0, 810.0, 811.0, 814.0, 814.0, 811.0, 814.0, 812.0, 811.0, 809.0, 808.0, 811.0, 810.0, 811.0, 814.0, 813.0, 809.0, 810.0, 810.0, 811.0, 813.0, 810.0, 810.0, 810.0, 810.0, 811.0, 814.0, 811.0, 811.0, 811.0, 813.0, 814.0, 813.0, 816.0, 810.0, 809.0, 810.0, 811.0, 811.0, 810.0, 809.0, 808.0, 812.0, 810.0, 810.0, 811.0, 812.0, 813.0, 812.0, 812.0],
      "WindowWidth": [1723.0, 1714.0, 1711.0, 1711.0, 1709.0, 1712.0, 1705.0, 1707.0, 1707.0, 1709.0, 1711.0, 1709.0, 1709.0, 1707.0, 1706.0, 1713.0, 1703.0, 1702.0, 1706.0, 1710.0, 1715.0, 1707.0, 1705.0, 1706.0, 1706.0, 1705.0, 1709.0, 1708.0, 1699.0, 1703.0, 1705.0, 1709.0, 1711.0, 1708.0, 1705.0, 1701.0, 1702.0, 1704.0, 1701.0, 1703.0, 1705.0, 1701.0, 1700.0, 1702.0, 1710.0, 1713.0, 1713.0, 1714.0, 1706.0, 1704.0, 1706.0, 1702.0, 1702.0, 1707.0, 1713.0, 1704.0, 1705.0, 1706.0, 1706.0, 1706.0, 1713.0, 1710.0, 1709.0, 1707.0, 1707.0, 1712.0, 1709.0, 1706.0, 1704.0, 1708.0, 1703.0, 1704.0, 1704.0, 1711.0, 1720.0, 1712.0, 1711.0, 1705.0, 1702.0, 1709.0, 1708.0, 1711.0, 1709.0, 1712.0, 1709.0, 1712.0, 1706.0, 1704.0, 1711.0, 1709.0, 1705.0, 1705.0, 1703.0, 1703.0, 1714.0, 1717.0, 1707.0, 1713.0, 1705.0, 1706.0, 1708.0, 1706.0, 1709.0, 1701.0, 1706.0, 1702.0, 1701.0, 1704.0, 1706.0, 1712.0, 1713.0, 1706.0, 1713.0, 1708.0, 1706.0, 1700.0, 1699.0, 1706.0, 1703.0, 1707.0, 1713.0, 1711.0, 1703.0, 1703.0, 1703.0, 1707.0, 1712.0, 1703.0, 1704.0, 1704.0, 1704.0, 1706.0, 1714.0, 1705.0, 1705.0, 1707.0, 1712.0, 1714.0, 1710.0, 1718.0, 1703.0, 1701.0, 1704.0, 1707.0, 1706.0, 1703.0, 1702.0, 1699.0, 1708.0, 1703.0, 1704.0, 1706.0, 1707.0, 1711.0, 1707.0, 1709.0]
    },
    "slices": {}
  }
}