{
  "AcquisitionMatrixPE": 100,
  "AcquisitionNumber": 1,
  "AcquisitionTime": "10:50:31.277500",
  "BandwidthPerPixelPhaseEncode": 18.519,
  "BaseResolution": 100,
  "BodyPartExamined": "BRAIN",
  "CoilCombinationMethod": "Sum of Squares",
  "ConsistencyInfo": "N4_VE11C_LATEST_20160120",
  "ConversionSoftware": "dcm2niix",
  "ConversionSoftwareVersion": "v1.0.20211006",
  "DerivedVendorReportedEchoSpacing": 0.000539986,
  "DeviceSerialNumber": "166078",
  "DwellTime": 2.1e-06,
  "EchoTime": 0.034,
  "EchoTrainLength": 100,
  "EffectiveEchoSpacing": 0.000539986,
  "FlipAngle": 90,
  "ImageOrientationPatientDICOM": [0.999781, 0.00153383, 0.0208862, -4.39894e-08, 0.997314, -0.0732382],
  "ImageOrientationText": "Tra>Cor(-4.2)>Sag(1.2)",
  "ImageType": [
    "ORIGINAL",
    "PRIMARY",
    "M",
    "ND",
    "MOSAIC"
],
  "ImagingFrequency": 123.258,
  "InPlanePhaseEncodingDirectionDICOM": "COL",
  "InstitutionAddress": "Street StreetNo,Bei Jing,District,CN,ZIP",
  "InstitutionName": "BeiJing Normal University",
  "InstitutionalDepartmentName": "Department",
  "MRAcquisitionType": "2D",
  "MagneticFieldStrength": 3,
  "Manufacturer": "Siemens",
  "ManufacturersModelName": "Prisma",
  "Modality": "MR",
  "MultibandAccelerationFactor": 3,
  "PartialFourier": 1,
  "PatientPosition": "HFS",
  "PercentPhaseFOV": 100,
  "PercentSampling": 100,
  "PhaseEncodingDirection": "j-",
  "PhaseEncodingSteps": 100,
  "PhaseResolution": 1,
  "PixelBandwidth": 2380,
  "ProcedureStepDescription": "BNU_P2018_64CH^Zhen.ZongLei",
  "ProtocolName": "bold_100x100_s3_2x2x2_static_156",
  "PulseSequenceDetails": "%SiemensSeq%\\ep2d_bold",
  "ReceiveCoilActiveElements": "HC1-7;NC1",
  "ReceiveCoilName": "HeadNeck_64",
  "ReconMatrixPE": 100,
  "RefLinesPE": 32,
  "RepetitionTime": 2,
  "SAR": 0.0818343,
  "ScanOptions": "FS",
  "ScanningSequence": "EP",
  "SequenceName": "*epfid2d1_100",
  "SequenceVariant": "SK",
  "SeriesDescription": "bold_100x100_s3_2x2x2_static_156",
  "SeriesNumber": 6,
  "ShimSetting": [-5453, -11507, -1253, 220, -16, -160, -116, 33],
  "SliceThickness": 2,
  "SliceTiming": [1.485, 0, 0.99, 0.0825, 1.0725, 0.165, 1.155, 0.2475, 1.2375, 0.33, 1.32, 0.4125, 1.4025, 0.5775, 1.5675, 0.66, 1.65, 0.7425, 1.7325, 0.825, 1.815, 0.9075, 1.8975, 0.495, 1.485, 0, 0.99, 0.0825, 1.0725, 0.165, 1.155, 0.2475, 1.2375, 0.33, 1.32, 0.4125, 1.4025, 0.5775, 1.5675, 0.66, 1.65, 0.7425, 1.7325, 0.825, 1.815, 0.9075, 1.8975, 0.495, 1.485, 0, 0.99, 0.0825, 1.0725, 0.165, 1.155, 0.2475, 1.2375, 0.33, 1.32, 0.4125, 1.4025, 0.5775, 1.5675, 0.66, 1.65, 0.7425, 1.7325, 0.825, 1.815, 0.9075, 1.8975, 0.495],
  "SoftwareVersions": "syngo MR E11",
  "SpacingBetweenSlices": 2,
  "StationName": "AWP166078",
  "TaskName": "action",
  "TotalReadoutTime": 0.0534586,
  "TxRefAmp": 248.101,
  "dcmmeta_affine": [
    [-1.9995613098144531, -8.797884021305435e-08, 0.04188484698534012, 98.49115753173828],
    [-0.0030676585156470537, 1.99462890625, -0.14644427597522736, -84.2965087890625],
    [0.04177235811948776, 0.1464764028787613, 1.9941915273666382, -80.05976104736328],
    [0.0, 0.0, 0.0, 1.0]
],
  "dcmmeta_reorient_transform": [
    [0.0, -1.0, 0.0, 99.0],
    [1.0, 0.0, 0.0, 0.0],
    [0.0, 0.0, 1.0, 0.0],
    [0.0, 0.0, 0.0, 1.0]
],
  "dcmmeta_shape": [100, 100, 72, 156],
  "dcmmeta_slice_dim": 2,
  "dcmmeta_version": 0.6,
  "global": {
    "const": {
      "AcquisitionMatrix": [100, 0, 0, 100],
      "AngioFlag": "N",
      "BitsAllocated": 16,
      "BitsStored": 12,
      "BodyPartExamined": "BRAIN",
      "Columns": 900,
      "EchoNumbers": 1,
      "EchoTime": 34.0,
      "EchoTrainLength": 100,
      "FlipAngle": 90.0,
      "HighBit": 11,
      "ImageOrientationPatient": [0.99978068341424, 0.00153382924523, 0.02088617819523, -4.398942e-08, 0.9973144768881, -0.073238201708],
      "ImagePositionPatient": [-898.31566370866, -912.25040560423, -23.676979192522],
      "ImageType": [
        "ORIGINAL",
        "PRIMARY",
        "M",
        "ND",
        "MOSAIC"
],
      "ImagedNucleus": "1H",
      "ImagingFrequency": 123.257728,
      "InPlanePhaseEncodingDirection": "COL",
      "MRAcquisitionType": "2D",
      "MagneticFieldStrength": 3.0,
      "Manufacturer": "SIEMENS",
      "ManufacturerModelName": "Prisma",
      "Modality": "MR",
      "NumberOfAverages": 1.0,
      "NumberOfPhaseEncodingSteps": 100,
      "PercentPhaseFieldOfView": 100.0,
      "PercentSampling": 100.0,
      "PerformedProcedureStepStartTime": "101939.936000",
      "PhotometricInterpretation": "MONOCHROME2",
      "PixelBandwidth": 2380.0,
      "PixelRepresentation": 0,
      "PixelSpacing": [2.0, 2.0],
      "ProtocolName": "bold_100x100_s3_2x2x2_static_156",
      "RepetitionTime": 2000.0,
      "Rows": 900,
      "SAR": 0.08183426003667,
      "SamplesPerPixel": 1,
      "ScanOptions": "FS",
      "ScanningSequence": "EP",
      "SequenceName": "*epfid2d1_100",
      "SequenceVariant": "SK",
      "SeriesDescription": "bold_100x100_s3_2x2x2_static_156",
      "SeriesNumber": 6,
      "SeriesTime": "105033.492000",
      "SliceLocation": -71.592234382304,
      "SliceThickness": 2.0,
      "SmallestImagePixelValue": 0,
      "SoftwareVersions": "syngo MR E11",
      "SpacingBetweenSlices": 2.0000000592766,
      "SpecificCharacterSet": "ISO_IR 100",
      "StudyID": "1",
      "StudyTime": "101939.870000",
      "TransmitCoilName": "Body",
      "VariableFlipAngleFlag": "N",
      "WindowCenterWidthExplanation": "Algo1",
      "dBdt": 0.0},
    "slices": {}
  },
  "time": {
    "samples": {
      "AcquisitionNumber": [1, 2, 3, 4, 5, 6, 7, 8, 9, 10, 11, 12, 13, 14, 15, 16, 17, 18, 19, 20, 21, 22, 23, 24, 25, 26, 27, 28, 29, 30, 31, 32, 33, 34, 35, 36, 37, 38, 39, 40, 41, 42, 43, 44, 45, 46, 47, 48, 49, 50, 51, 52, 53, 54, 55, 56, 57, 58, 59, 60, 61, 62, 63, 64, 65, 66, 67, 68, 69, 70, 71, 72, 73, 74, 75, 76, 77, 78, 79, 80, 81, 82, 83, 84, 85, 86, 87, 88, 89, 90, 91, 92, 93, 94, 95, 96, 97, 98, 99, 100, 101, 102, 103, 104, 105, 106, 107, 108, 109, 110, 111, 112, 113, 114, 115, 116, 117, 118, 119, 120, 121, 122, 123, 124, 125, 126, 127, 128, 129, 130, 131, 132, 133, 134, 135, 136, 137, 138, 139, 140, 141, 142, 143, 144, 145, 146, 147, 148, 149, 150, 151, 152, 153, 154, 155, 156],
      "AcquisitionTime": ["105031.277500", "105033.277500", "105035.277500", "105037.277500", "105039.277500", "105041.277500", "105043.277500", "105045.277500", "105047.277500", "105049.277500", "105051.277500", "105053.277500", "105055.277500", "105057.277500", "105059.277500", "105101.277500", "105103.277500", "105105.277500", "105107.277500", "105109.277500", "105111.277500", "105113.277500", "105115.277500", "105117.277500", "105119.277500", "105121.277500", "105123.277500", "105125.277500", "105127.277500", "105129.277500", "105131.277500", "105133.277500", "105135.277500", "105137.277500", "105139.277500", "105141.277500", "105143.277500", "105145.277500", "105147.277500", "105149.277500", "105151.277500", "105153.277500", "105155.277500", "105157.277500", "105159.277500", "105201.277500", "105203.277500", "105205.277500", "105207.277500", "105209.277500", "105211.277500", "105213.277500", "105215.277500", "105217.277500", "105219.277500", "105221.277500", "105223.277500", "105225.277500", "105227.277500", "105229.277500", "105231.277500", "105233.277500", "105235.277500", "105237.277500", "105239.277500", "105241.277500", "105243.277500", "105245.277500", "105247.277500", "105249.277500", "105251.277500", "105253.277500", "105255.277500", "105257.277500", "105259.277500", "105301.277500", "105303.277500", "105305.277500", "105307.277500", "105309.277500", "105311.277500", "105313.277500", "105315.277500", "105317.277500", "105319.277500", "105321.277500", "105323.277500", "105325.277500", "105327.277500", "105329.277500", "105331.277500", "105333.277500", "105335.277500", "105337.277500", "105339.277500", "105341.277500", "105343.277500", "105345.277500", "105347.277500", "105349.277500", "105351.277500", "105353.277500", "105355.277500", "105357.277500", "105359.277500", "105401.277500", "105403.277500", "105405.277500", "105407.277500", "105409.277500", "105411.277500", "105413.277500", "105415.277500", "105417.277500", "105419.277500", "105421.277500", "105423.277500", "105425.277500", "105427.277500", "105429.277500", "105431.277500", "105433.277500", "105435.277500", "105437.277500", "105439.277500", "105441.277500", "105443.277500", "105445.277500", "105447.277500", "105449.277500", "105451.277500", "105453.277500", "105455.277500", "105457.277500", "105459.277500", "105501.277500", "105503.277500", "105505.277500", "105507.277500", "105509.277500", "105511.277500", "105513.277500", "105515.277500", "105517.277500", "105519.277500", "105521.277500", "105523.277500", "105525.277500", "105527.277500", "105529.277500", "105531.277500", "105533.277500", "105535.277500", "105537.277500", "105539.277500", "105541.277500"],
      "ContentTime": ["105033.495000", "105034.990000", "105036.990000", "105038.990000", "105040.991000", "105042.991000", "105044.991000", "105046.990000", "105048.991000", "105050.991000", "105052.991000", "105054.991000", "105056.990000", "105058.991000", "105100.990000", "105102.991000", "105104.990000", "105106.991000", "105108.990000", "105110.991000", "105112.990000", "105114.991000", "105116.990000", "105118.991000", "105120.991000", "105122.991000", "105124.991000", "105126.990000", "105128.991000", "105130.990000", "105132.990000", "105134.991000", "105136.990000", "105138.991000", "105140.991000", "105142.991000", "105144.990000", "105146.991000", "105148.991000", "105150.991000", "105152.990000", "105154.991000", "105156.991000", "105158.991000", "105200.991000", "105202.991000", "105204.991000", "105206.990000", "105208.991000", "105210.991000", "105212.990000", "105214.989000", "105216.991000", "105218.991000", "105220.991000", "105222.990000", "105224.991000", "105226.990000", "105228.990000", "105230.991000", "105232.990000", "105234.991000", "105236.990000", "105238.990000", "105240.990000", "105242.991000", "105244.991000", "105246.991000", "105248.990000", "105250.990000", "105252.990000", "105254.991000", "105256.990000", "105258.991000", "105300.990000", "105302.991000", "105304.990000", "105306.990000", "105308.991000", "105310.991000", "105312.990000", "105314.991000", "105316.990000", "105318.991000", "105320.991000", "105322.991000", "105324.989000", "105326.991000", "105328.991000", "105330.991000", "105332.991000", "105334.991000", "105336.990000", "105338.990000", "105340.991000", "105342.991000", "105344.990000", "105346.991000", "105348.991000", "105350.991000", "105352.991000", "105354.991000", "105356.991000", "105358.990000", "105400.990000", "105402.990000", "105404.991000", "105406.991000", "105408.990000", "105410.990000", "105412.991000", "105414.991000", "105416.991000", "105418.991000", "105420.990000", "105422.991000", "105424.990000", "105426.991000", "105428.990000", "105430.990000", "105432.991000", "105434.990000", "105436.991000", "105438.990000", "105440.991000", "105442.990000", "105444.991000", "105446.990000", "105448.991000", "105450.990000", "105452.991000", "105454.991000", "105456.991000", "105458.990000", "105500.990000", "105502.991000", "105504.991000", "105506.991000", "105508.990000", "105510.991000", "105512.991000", "105514.990000", "105516.990000", "105518.990000", "105520.991000", "105522.991000", "105524.991000", "105526.991000", "105528.990000", "105530.990000", "105532.991000", "105534.991000", "105536.991000", "105538.990000", "105540.990000", "105542.685000"],
      "InstanceCreationTime": ["105033.495000", "105034.990000", "105036.990000", "105038.990000", "105040.991000", "105042.991000", "105044.991000", "105046.990000", "105048.991000", "105050.991000", "105052.991000", "105054.991000", "105056.990000", "105058.991000", "105100.990000", "105102.991000", "105104.990000", "105106.991000", "105108.990000", "105110.991000", "105112.990000", "105114.991000", "105116.990000", "105118.991000", "105120.991000", "105122.991000", "105124.991000", "105126.990000", "105128.991000", "105130.990000", "105132.990000", "105134.991000", "105136.990000", "105138.991000", "105140.991000", "105142.991000", "105144.990000", "105146.991000", "105148.991000", "105150.991000", "105152.990000", "105154.991000", "105156.991000", "105158.991000", "105200.991000", "105202.991000", "105204.991000", "105206.990000", "105208.991000", "105210.991000", "105212.990000", "105214.989000", "105216.991000", "105218.991000", "105220.991000", "105222.990000", "105224.991000", "105226.990000", "105228.990000", "105230.991000", "105232.990000", "105234.991000", "105236.990000", "105238.990000", "105240.990000", "105242.991000", "105244.991000", "105246.991000", "105248.990000", "105250.990000", "105252.990000", "105254.991000", "105256.990000", "105258.991000", "105300.990000", "105302.991000", "105304.990000", "105306.990000", "105308.991000", "105310.991000", "105312.990000", "105314.991000", "105316.990000", "105318.991000", "105320.991000", "105322.991000", "105324.989000", "105326.991000", "105328.991000", "105330.991000", "105332.991000", "105334.991000", "105336.990000", "105338.990000", "105340.991000", "105342.991000", "105344.990000", "105346.991000", "105348.991000", "105350.991000", "105352.991000", "105354.991000", "105356.991000", "105358.990000", "105400.990000", "105402.990000", "105404.991000", "105406.991000", "105408.990000", "105410.990000", "105412.991000", "105414.991000", "105416.991000", "105418.991000", "105420.990000", "105422.991000", "105424.990000", "105426.991000", "105428.990000", "105430.990000", "105432.991000", "105434.990000", "105436.991000", "105438.990000", "105440.991000", "105442.990000", "105444.991000", "105446.990000", "105448.991000", "105450.990000", "105452.991000", "105454.991000", "105456.991000", "105458.990000", "105500.990000", "105502.991000", "105504.991000", "105506.991000", "105508.990000", "105510.991000", "105512.991000", "105514.990000", "105516.990000", "105518.990000", "105520.991000", "105522.991000", "105524.991000", "105526.991000", "105528.990000", "105530.990000", "105532.991000", "105534.991000", "105536.991000", "105538.990000", "105540.990000", "105542.685000"],
      "InstanceNumber": [1, 2, 3, 4, 5, 6, 7, 8, 9, 10, 11, 12, 13, 14, 15, 16, 17, 18, 19, 20, 21, 22, 23, 24, 25, 26, 27, 28, 29, 30, 31, 32, 33, 34, 35, 36, 37, 38, 39, 40, 41, 42, 43, 44, 45, 46, 47, 48, 49, 50, 51, 52, 53, 54, 55, 56, 57, 58, 59, 60, 61, 62, 63, 64, 65, 66, 67, 68, 69, 70, 71, 72, 73, 74, 75, 76, 77, 78, 79, 80, 81, 82, 83, 84, 85, 86, 87, 88, 89, 90, 91, 92, 93, 94, 95, 96, 97, 98, 99, 100, 101, 102, 103, 104, 105, 106, 107, 108, 109, 110, 111, 112, 113, 114, 115, 116, 117, 118, 119, 120, 121, 122, 123, 124, 125, 126, 127, 128, 129, 130, 131, 132, 133, 134, 135, 136, 137, 138, 139, 140, 141, 142, 143, 144, 145, 146, 147, 148, 149, 150, 151, 152, 153, 154, 155, 156],
      "LargestImagePixelValue": [3097, 3069, 3001, 3003, 2988, 3025, 3066, 3078, 3061, 3048, 3043, 3085, 3091, 3062, 3076, 3070, 3079, 3091, 3081, 3118, 3106, 3127, 3103, 3109, 3138, 3131, 3094, 3102, 3118, 3100, 3104, 3101, 3119, 3099, 3114, 3116, 3115, 3095, 3127, 3104, 3141, 3104, 3110, 3122, 3103, 3129, 3122, 3130, 3123, 3115, 3133, 3113, 3158, 3147, 3107, 3110, 3127, 3109, 3100, 3136, 3127, 3122, 3105, 3113, 3128, 3095, 3092, 3132, 3145, 3130, 3162, 3106, 3126, 3112, 3111, 3120, 3113, 3121, 3113, 3092, 3099, 3131, 3123, 3124, 3140, 3158, 3117, 3139, 3115, 3130, 3143, 3141, 3117, 3138, 3128, 3147, 3149, 3132, 3132, 3130, 3153, 3118, 3125, 3143, 3159, 3133, 3125, 3135, 3122, 3129, 3142, 3138, 3147, 3112, 3123, 3145, 3122, 3121, 3125, 3134, 3135, 3121, 3130, 3130, 3150, 3141, 3131, 3137, 3142, 3120, 3146, 3115, 3105, 3150, 3114, 3133, 3129, 3107, 3158, 3125, 3139, 3147, 3154, 3110, 3134, 3137, 3100, 3134, 3133, 3140, 3128, 3153, 3147, 3144, 3137, 3130],
      "WindowCenter": [818.0, 816.0, 815.0, 814.0, 814.0, 815.0, 815.0, 814.0, 814.0, 814.0, 815.0, 815.0, 815.0, 815.0, 816.0, 816.0, 815.0, 815.0, 814.0, 814.0, 813.0, 814.0, 815.0, 816.0, 815.0, 816.0, 817.0, 815.0, 814.0, 812.0, 810.0, 810.0, 810.0, 811.0, 812.0, 813.0, 813.0, 812.0, 812.0, 814.0, 816.0, 815.0, 814.0, 813.0, 814.0, 815.0, 815.0, 814.0, 813.0, 813.0, 812.0, 811.0, 811.0, 811.0, 812.0, 814.0, 813.0, 813.0, 814.0, 813.0, 810.0, 812.0, 815.0, 815.0, 813.0, 811.0, 810.0, 811.0, 814.0, 815.0, 815.0, 813.0, 812.0, 811.0, 812.0, 814.0, 813.0, 813.0, 814.0, 815.0, 815.0, 815.0, 813.0, 812.0, 813.0, 813.0, 813.0, 813.0, 812.0, 811.0, 812.0, 813.0, 813.0, 814.0, 814.0, 815.0, 816.0, 817.0, 815.0, 814.0, 813.0, 812.0, 812.0, 811.0, 812.0, 816.0, 817.0, 815.0, 812.0, 812.0, 811.0, 812.0, 813.0, 814.0, 815.0, 816.0, 814.0, 813.0, 814.0, 816.0, 816.0, 813.0, 814.0, 815.0, 816.0, 816.0, 814.0, 813.0, 814.0, 816.0, 817.0, 816.0, 814.0, 815.0, 814.0, 814.0, 813.0, 811.0, 811.0, 811.0, 813.0, 815.0, 815.0, 815.0, 816.0, 816.0, 818.0, 819.0, 818.0, 817.0, 816.0, 815.0, 816.0, 819.0, 820.0, 817.0],
      "WindowWidth": [1725.0, 1719.0, 1718.0, 1716.0, 1714.0, 1717.0, 1717.0, 1716.0, 1716.0, 1716.0, 1717.0, 1719.0, 1719.0, 1718.0, 1720.0, 1721.0, 1720.0, 1717.0, 1715.0, 1715.0, 1713.0, 1715.0, 1718.0, 1720.0, 1718.0, 1721.0, 1723.0, 1719.0, 1715.0, 1711.0, 1708.0, 1707.0, 1708.0, 1708.0, 1711.0, 1715.0, 1715.0, 1712.0, 1711.0, 1715.0, 1720.0, 1718.0, 1716.0, 1713.0, 1716.0, 1718.0, 1718.0, 1717.0, 1714.0, 1713.0, 1710.0, 1708.0, 1708.0, 1709.0, 1712.0, 1715.0, 1714.0, 1715.0, 1716.0, 1713.0, 1708.0, 1712.0, 1718.0, 1717.0, 1713.0, 1710.0, 1708.0, 1709.0, 1715.0, 1719.0, 1717.0, 1713.0, 1711.0, 1710.0, 1712.0, 1715.0, 1714.0, 1714.0, 1717.0, 1719.0, 1719.0, 1717.0, 1714.0, 1711.0, 1713.0, 1714.0, 1714.0, 1715.0, 1711.0, 1709.0, 1711.0, 1712.0, 1714.0, 1716.0, 1715.0, 1718.0, 1721.0, 1722.0, 1718.0, 1716.0, 1713.0, 1712.0, 1711.0, 1708.0, 1712.0, 1720.0, 1722.0, 1717.0, 1711.0, 1711.0, 1710.0, 1711.0, 1713.0, 1715.0, 1718.0, 1720.0, 1716.0, 1713.0, 1715.0, 1721.0, 1719.0, 1714.0, 1715.0, 1718.0, 1721.0, 1719.0, 1715.0, 1713.0, 1715.0, 1720.0, 1723.0, 1719.0, 1716.0, 1717.0, 1716.0, 1716.0, 1714.0, 1709.0, 1708.0, 1708.0, 1714.0, 1718.0, 1718.0, 1717.0, 1719.0, 1720.0, 1724.0, 1726.0, 1724.0, 1721.0, 1719.0, 1717.0, 1720.0, 1727.0, 1729.0, 1723.0]
    },
    "slices": {}
  }
}