{
  "AcquisitionMatrixPE": 100,
  "AcquisitionNumber": 1,
  "AcquisitionTime": "11:31:40.955000",
  "BandwidthPerPixelPhaseEncode": 18.519,
  "BaseResolution": 100,
  "BodyPartExamined": "BRAIN",
  "CoilCombinationMethod": "Sum of Squares",
  "ConsistencyInfo": "N4_VE11C_LATEST_20160120",
  "ConversionSoftware": "dcm2niix",
  "ConversionSoftwareVersion": "v1.0.20211006",
  "DerivedVendorReportedEchoSpacing": 0.000539986,
  "DeviceSerialNumber": "166078",
  "DwellTime": 2.1e-06,
  "EchoTime": 0.034,
  "EchoTrainLength": 100,
  "EffectiveEchoSpacing": 0.000539986,
  "FlipAngle": 90,
  "ImageOrientationPatientDICOM": [0.999781, 0.00153383, 0.0208862, -4.39894e-08, 0.997314, -0.0732382],
  "ImageOrientationText": "Tra>Cor(-4.2)>Sag(1.2)",
  "ImageType": [
    "ORIGINAL",
    "PRIMARY",
    "M",
    "ND",
    "MOSAIC"
],
  "ImagingFrequency": 123.258,
  "InPlanePhaseEncodingDirectionDICOM": "COL",
  "InstitutionAddress": "Street StreetNo,Bei Jing,District,CN,ZIP",
  "InstitutionName": "BeiJing Normal University",
  "InstitutionalDepartmentName": "Department",
  "MRAcquisitionType": "2D",
  "MagneticFieldStrength": 3,
  "Manufacturer": "Siemens",
  "ManufacturersModelName": "Prisma",
  "Modality": "MR",
  "MultibandAccelerationFactor": 3,
  "PartialFourier": 1,
  "PatientPosition": "HFS",
  "PercentPhaseFOV": 100,
  "PercentSampling": 100,
  "PhaseEncodingDirection": "j-",
  "PhaseEncodingSteps": 100,
  "PhaseResolution": 1,
  "PixelBandwidth": 2380,
  "ProcedureStepDescription": "BNU_P2018_64CH^Zhen.ZongLei",
  "ProtocolName": "bold_100x100_s3_2x2x2_static_156",
  "PulseSequenceDetails": "%SiemensSeq%\\ep2d_bold",
  "ReceiveCoilActiveElements": "HC1-7;NC1",
  "ReceiveCoilName": "HeadNeck_64",
  "ReconMatrixPE": 100,
  "RefLinesPE": 32,
  "RepetitionTime": 2,
  "SAR": 0.0818343,
  "ScanOptions": "FS",
  "ScanningSequence": "EP",
  "SequenceName": "*epfid2d1_100",
  "SequenceVariant": "SK",
  "SeriesDescription": "bold_100x100_s3_2x2x2_static_156",
  "SeriesNumber": 14,
  "ShimSetting": [-5453, -11507, -1253, 220, -16, -160, -116, 33],
  "SliceThickness": 2,
  "SliceTiming": [1.485, 0, 0.99, 0.0825, 1.0725, 0.165, 1.155, 0.2475, 1.2375, 0.33, 1.32, 0.4125, 1.4025, 0.5775, 1.5675, 0.66, 1.65, 0.7425, 1.7325, 0.825, 1.815, 0.9075, 1.8975, 0.495, 1.485, 0, 0.99, 0.0825, 1.0725, 0.165, 1.155, 0.2475, 1.2375, 0.33, 1.32, 0.4125, 1.4025, 0.5775, 1.5675, 0.66, 1.65, 0.7425, 1.7325, 0.825, 1.815, 0.9075, 1.8975, 0.495, 1.485, 0, 0.99, 0.0825, 1.0725, 0.165, 1.155, 0.2475, 1.2375, 0.33, 1.32, 0.4125, 1.4025, 0.5775, 1.5675, 0.66, 1.65, 0.7425, 1.7325, 0.825, 1.815, 0.9075, 1.8975, 0.495],
  "SoftwareVersions": "syngo MR E11",
  "SpacingBetweenSlices": 2,
  "StationName": "AWP166078",
  "TaskName": "action",
  "TotalReadoutTime": 0.0534586,
  "TxRefAmp": 248.101,
  "dcmmeta_affine": [
    [-1.9995613098144531, -8.797884021305435e-08, 0.04188484698534012, 98.49115753173828],
    [-0.0030676585156470537, 1.99462890625, -0.14644427597522736, -84.2965087890625],
    [0.04177235811948776, 0.1464764028787613, 1.9941915273666382, -80.05976104736328],
    [0.0, 0.0, 0.0, 1.0]
],
  "dcmmeta_reorient_transform": [
    [0.0, -1.0, 0.0, 99.0],
    [1.0, 0.0, 0.0, 0.0],
    [0.0, 0.0, 1.0, 0.0],
    [0.0, 0.0, 0.0, 1.0]
],
  "dcmmeta_shape": [100, 100, 72, 156],
  "dcmmeta_slice_dim": 2,
  "dcmmeta_version": 0.6,
  "global": {
    "const": {
      "AcquisitionMatrix": [100, 0, 0, 100],
      "AngioFlag": "N",
      "BitsAllocated": 16,
      "BitsStored": 12,
      "BodyPartExamined": "BRAIN",
      "Columns": 900,
      "EchoNumbers": 1,
      "EchoTime": 34.0,
      "EchoTrainLength": 100,
      "FlipAngle": 90.0,
      "HighBit": 11,
      "ImageOrientationPatient": [0.99978068341424, 0.00153382924523, 0.02088617819523, -4.398942e-08, 0.9973144768881, -0.073238201708],
      "ImagePositionPatient": [-898.31566370866, -912.25040560423, -23.676979192522],
      "ImageType": [
        "ORIGINAL",
        "PRIMARY",
        "M",
        "ND",
        "MOSAIC"
],
      "ImagedNucleus": "1H",
      "ImagingFrequency": 123.257737,
      "InPlanePhaseEncodingDirection": "COL",
      "MRAcquisitionType": "2D",
      "MagneticFieldStrength": 3.0,
      "Manufacturer": "SIEMENS",
      "ManufacturerModelName": "Prisma",
      "Modality": "MR",
      "NumberOfAverages": 1.0,
      "NumberOfPhaseEncodingSteps": 100,
      "PercentPhaseFieldOfView": 100.0,
      "PercentSampling": 100.0,
      "PerformedProcedureStepStartTime": "101939.936000",
      "PhotometricInterpretation": "MONOCHROME2",
      "PixelBandwidth": 2380.0,
      "PixelRepresentation": 0,
      "PixelSpacing": [2.0, 2.0],
      "ProtocolName": "bold_100x100_s3_2x2x2_static_156",
      "RepetitionTime": 2000.0,
      "Rows": 900,
      "SAR": 0.08183426003667,
      "SamplesPerPixel": 1,
      "ScanOptions": "FS",
      "ScanningSequence": "EP",
      "SequenceName": "*epfid2d1_100",
      "SequenceVariant": "SK",
      "SeriesDescription": "bold_100x100_s3_2x2x2_static_156",
      "SeriesNumber": 14,
      "SeriesTime": "113142.991000",
      "SliceLocation": -71.592234382304,
      "SliceThickness": 2.0,
      "SmallestImagePixelValue": 0,
      "SoftwareVersions": "syngo MR E11",
      "SpacingBetweenSlices": 2.0000000592766,
      "SpecificCharacterSet": "ISO_IR 100",
      "StudyID": "1",
      "StudyTime": "101939.870000",
      "TransmitCoilName": "Body",
      "VariableFlipAngleFlag": "N",
      "WindowCenterWidthExplanation": "Algo1",
      "dBdt": 0.0},
    "slices": {}
  },
  "time": {
    "samples": {
      "AcquisitionNumber": [1, 2, 3, 4, 5, 6, 7, 8, 9, 10, 11, 12, 13, 14, 15, 16, 17, 18, 19, 20, 21, 22, 23, 24, 25, 26, 27, 28, 29, 30, 31, 32, 33, 34, 35, 36, 37, 38, 39, 40, 41, 42, 43, 44, 45, 46, 47, 48, 49, 50, 51, 52, 53, 54, 55, 56, 57, 58, 59, 60, 61, 62, 63, 64, 65, 66, 67, 68, 69, 70, 71, 72, 73, 74, 75, 76, 77, 78, 79, 80, 81, 82, 83, 84, 85, 86, 87, 88, 89, 90, 91, 92, 93, 94, 95, 96, 97, 98, 99, 100, 101, 102, 103, 104, 105, 106, 107, 108, 109, 110, 111, 112, 113, 114, 115, 116, 117, 118, 119, 120, 121, 122, 123, 124, 125, 126, 127, 128, 129, 130, 131, 132, 133, 134, 135, 136, 137, 138, 139, 140, 141, 142, 143, 144, 145, 146, 147, 148, 149, 150, 151, 152, 153, 154, 155, 156],
      "AcquisitionTime": ["113140.955000", "113142.955000", "113144.955000", "113146.955000", "113148.955000", "113150.955000", "113152.955000", "113154.955000", "113156.955000", "113158.955000", "113200.955000", "113202.955000", "113204.955000", "113206.955000", "113208.955000", "113210.955000", "113212.955000", "113214.955000", "113216.955000", "113218.955000", "113220.955000", "113222.955000", "113224.955000", "113226.955000", "113228.955000", "113230.955000", "113232.955000", "113234.955000", "113236.955000", "113238.955000", "113240.955000", "113242.955000", "113244.955000", "113246.955000", "113248.955000", "113250.955000", "113252.955000", "113254.955000", "113256.955000", "113258.955000", "113300.955000", "113302.955000", "113304.955000", "113306.955000", "113308.955000", "113310.955000", "113312.955000", "113314.955000", "113316.955000", "113318.955000", "113320.955000", "113322.955000", "113324.955000", "113326.955000", "113328.955000", "113330.955000", "113332.955000", "113334.955000", "113336.955000", "113338.955000", "113340.955000", "113342.955000", "113344.955000", "113346.955000", "113348.955000", "113350.955000", "113352.955000", "113354.955000", "113356.955000", "113358.955000", "113400.955000", "113402.955000", "113404.955000", "113406.955000", "113408.955000", "113410.955000", "113412.955000", "113414.955000", "113416.955000", "113418.955000", "113420.955000", "113422.955000", "113424.955000", "113426.955000", "113428.955000", "113430.955000", "113432.955000", "113434.955000", "113436.955000", "113438.955000", "113440.955000", "113442.955000", "113444.955000", "113446.955000", "113448.955000", "113450.955000", "113452.955000", "113454.955000", "113456.955000", "113458.955000", "113500.955000", "113502.955000", "113504.955000", "113506.955000", "113508.955000", "113510.955000", "113512.955000", "113514.955000", "113516.955000", "113518.955000", "113520.955000", "113522.955000", "113524.955000", "113526.955000", "113528.955000", "113530.955000", "113532.955000", "113534.955000", "113536.955000", "113538.955000", "113540.955000", "113542.955000", "113544.955000", "113546.955000", "113548.955000", "113550.955000", "113552.955000", "113554.955000", "113556.955000", "113558.955000", "113600.955000", "113602.955000", "113604.955000", "113606.955000", "113608.955000", "113610.955000", "113612.955000", "113614.955000", "113616.955000", "113618.955000", "113620.955000", "113622.955000", "113624.955000", "113626.955000", "113628.955000", "113630.955000", "113632.955000", "113634.955000", "113636.955000", "113638.955000", "113640.955000", "113642.955000", "113644.955000", "113646.955000", "113648.955000", "113650.955000"],
      "ContentTime": ["113142.995000", "113144.490000", "113146.991000", "113148.991000", "113150.490000", "113152.489000", "113154.491000", "113156.491000", "113158.491000", "113200.491000", "113202.491000", "113204.491000", "113206.491000", "113208.490000", "113210.489000", "113212.491000", "113214.491000", "113216.491000", "113218.991000", "113220.990000", "113222.491000", "113224.490000", "113226.490000", "113228.490000", "113230.490000", "113232.490000", "113234.490000", "113236.490000", "113238.491000", "113240.491000", "113242.491000", "113244.990000", "113246.991000", "113248.490000", "113250.491000", "113252.490000", "113254.491000", "113256.490000", "113258.491000", "113300.490000", "113302.490000", "113304.490000", "113306.490000", "113308.490000", "113310.991000", "113312.490000", "113314.491000", "113316.491000", "113318.491000", "113320.489000", "113322.491000", "113324.491000", "113326.491000", "113328.490000", "113330.491000", "113332.491000", "113334.491000", "113336.490000", "113338.990000", "113340.491000", "113342.491000", "113344.491000", "113346.490000", "113348.490000", "113350.491000", "113352.491000", "113354.489000", "113356.490000", "113358.490000", "113400.490000", "113402.490000", "113404.490000", "113406.490000", "113408.490000", "113410.491000", "113412.490000", "113414.490000", "113416.490000", "113418.491000", "113420.491000", "113422.490000", "113424.491000", "113426.490000", "113428.490000", "113430.490000", "113432.491000", "113434.490000", "113436.990000", "113438.491000", "113440.491000", "113442.491000", "113444.491000", "113446.490000", "113448.491000", "113450.491000", "113452.490000", "113454.490000", "113456.990000", "113458.491000", "113500.490000", "113502.491000", "113504.490000", "113506.991000", "113508.490000", "113510.491000", "113512.491000", "113514.490000", "113516.490000", "113518.490000", "113520.490000", "113522.490000", "113524.491000", "113526.991000", "113528.491000", "113530.491000", "113532.491000", "113534.491000", "113536.491000", "113538.490000", "113540.491000", "113542.490000", "113544.491000", "113546.490000", "113548.491000", "113550.491000", "113552.490000", "113554.491000", "113556.491000", "113558.491000", "113600.491000", "113602.491000", "113604.490000", "113606.490000", "113608.490000", "113610.491000", "113612.490000", "113614.990000", "113616.490000", "113618.490000", "113620.991000", "113622.490000", "113624.490000", "113626.490000", "113628.502000", "113630.990000", "113632.490000", "113634.490000", "113636.491000", "113638.491000", "113640.491000", "113642.991000", "113644.991000", "113646.490000", "113648.490000", "113650.491000", "113652.381000"],
      "InstanceCreationTime": ["113142.995000", "113144.490000", "113146.991000", "113148.991000", "113150.490000", "113152.489000", "113154.491000", "113156.491000", "113158.491000", "113200.491000", "113202.491000", "113204.491000", "113206.491000", "113208.490000", "113210.489000", "113212.491000", "113214.491000", "113216.491000", "113218.991000", "113220.990000", "113222.491000", "113224.490000", "113226.490000", "113228.490000", "113230.490000", "113232.490000", "113234.490000", "113236.490000", "113238.491000", "113240.491000", "113242.491000", "113244.990000", "113246.991000", "113248.490000", "113250.491000", "113252.490000", "113254.491000", "113256.490000", "113258.491000", "113300.490000", "113302.490000", "113304.490000", "113306.490000", "113308.490000", "113310.991000", "113312.490000", "113314.491000", "113316.491000", "113318.491000", "113320.489000", "113322.491000", "113324.491000", "113326.491000", "113328.490000", "113330.491000", "113332.491000", "113334.491000", "113336.490000", "113338.990000", "113340.491000", "113342.491000", "113344.491000", "113346.490000", "113348.490000", "113350.491000", "113352.491000", "113354.489000", "113356.490000", "113358.490000", "113400.490000", "113402.490000", "113404.490000", "113406.490000", "113408.490000", "113410.491000", "113412.490000", "113414.490000", "113416.490000", "113418.491000", "113420.491000", "113422.490000", "113424.491000", "113426.490000", "113428.490000", "113430.490000", "113432.491000", "113434.490000", "113436.990000", "113438.491000", "113440.491000", "113442.491000", "113444.491000", "113446.490000", "113448.491000", "113450.491000", "113452.490000", "113454.490000", "113456.990000", "113458.491000", "113500.490000", "113502.491000", "113504.490000", "113506.991000", "113508.490000", "113510.491000", "113512.491000", "113514.490000", "113516.490000", "113518.490000", "113520.490000", "113522.490000", "113524.491000", "113526.991000", "113528.491000", "113530.491000", "113532.491000", "113534.491000", "113536.491000", "113538.490000", "113540.491000", "113542.490000", "113544.491000", "113546.490000", "113548.491000", "113550.491000", "113552.490000", "113554.491000", "113556.491000", "113558.491000", "113600.491000", "113602.491000", "113604.490000", "113606.490000", "113608.490000", "113610.491000", "113612.490000", "113614.990000", "113616.490000", "113618.490000", "113620.991000", "113622.490000", "113624.490000", "113626.490000", "113628.502000", "113630.990000", "113632.490000", "113634.490000", "113636.491000", "113638.491000", "113640.491000", "113642.991000", "113644.991000", "113646.490000", "113648.490000", "113650.491000", "113652.381000"],
      "InstanceNumber": [1, 2, 3, 4, 5, 6, 7, 8, 9, 10, 11, 12, 13, 14, 15, 16, 17, 18, 19, 20, 21, 22, 23, 24, 25, 26, 27, 28, 29, 30, 31, 32, 33, 34, 35, 36, 37, 38, 39, 40, 41, 42, 43, 44, 45, 46, 47, 48, 49, 50, 51, 52, 53, 54, 55, 56, 57, 58, 59, 60, 61, 62, 63, 64, 65, 66, 67, 68, 69, 70, 71, 72, 73, 74, 75, 76, 77, 78, 79, 80, 81, 82, 83, 84, 85, 86, 87, 88, 89, 90, 91, 92, 93, 94, 95, 96, 97, 98, 99, 100, 101, 102, 103, 104, 105, 106, 107, 108, 109, 110, 111, 112, 113, 114, 115, 116, 117, 118, 119, 120, 121, 122, 123, 124, 125, 126, 127, 128, 129, 130, 131, 132, 133, 134, 135, 136, 137, 138, 139, 140, 141, 142, 143, 144, 145, 146, 147, 148, 149, 150, 151, 152, 153, 154, 155, 156],
      "LargestImagePixelValue": [3332, 3322, 3248, 3312, 3259, 3294, 3251, 3271, 3291, 3262, 3261, 3262, 3239, 3244, 3253, 3171, 3210, 3196, 3192, 3186, 3179, 3162, 3181, 3216, 3249, 3239, 3215, 3248, 3190, 3199, 3190, 3214, 3243, 3199, 3175, 3151, 3151, 3174, 3178, 3131, 3136, 3162, 3188, 3199, 3205, 3204, 3208, 3203, 3139, 3163, 3186, 3213, 3181, 3165, 3228, 3178, 3187, 3185, 3168, 3166, 3173, 3165, 3183, 3143, 3143, 3146, 3174, 3165, 3156, 3182, 3158, 3153, 3157, 3175, 3147, 3153, 3127, 3091, 3100, 3113, 3133, 3133, 3120, 3128, 3082, 3083, 3082, 3099, 3156, 3127, 3150, 3140, 3131, 3212, 3095, 3100, 3129, 3110, 3116, 3138, 3109, 3094, 3161, 3133, 3145, 3132, 3139, 3162, 3160, 3156, 3178, 3173, 3190, 3220, 3190, 3165, 3211, 3186, 3174, 3185, 3184, 3158, 3233, 3188, 3163, 3144, 3151, 3131, 3154, 3186, 3180, 3205, 3192, 3183, 3175, 3198, 3190, 3211, 3186, 3183, 3177, 3197, 3200, 3203, 3231, 3228, 3218, 3209, 3177, 3170, 3152, 3183, 3179, 3166, 3163, 3205],
      "WindowCenter": [820.0, 817.0, 815.0, 815.0, 814.0, 814.0, 813.0, 815.0, 817.0, 817.0, 816.0, 815.0, 815.0, 816.0, 817.0, 817.0, 817.0, 815.0, 813.0, 814.0, 817.0, 817.0, 815.0, 813.0, 811.0, 810.0, 811.0, 812.0, 812.0, 811.0, 810.0, 810.0, 811.0, 811.0, 814.0, 816.0, 815.0, 814.0, 815.0, 817.0, 818.0, 815.0, 814.0, 813.0, 813.0, 813.0, 813.0, 815.0, 816.0, 814.0, 811.0, 813.0, 812.0, 811.0, 811.0, 809.0, 811.0, 812.0, 812.0, 812.0, 812.0, 812.0, 812.0, 813.0, 813.0, 813.0, 813.0, 812.0, 811.0, 812.0, 814.0, 816.0, 816.0, 815.0, 814.0, 814.0, 817.0, 817.0, 814.0, 813.0, 812.0, 811.0, 811.0, 813.0, 812.0, 813.0, 813.0, 813.0, 813.0, 812.0, 811.0, 811.0, 814.0, 816.0, 814.0, 813.0, 812.0, 812.0, 811.0, 812.0, 812.0, 812.0, 811.0, 812.0, 815.0, 815.0, 814.0, 814.0, 815.0, 815.0, 813.0, 812.0, 813.0, 814.0, 813.0, 813.0, 812.0, 812.0, 812.0, 813.0, 813.0, 813.0, 813.0, 812.0, 813.0, 815.0, 817.0, 816.0, 815.0, 814.0, 813.0, 813.0, 813.0, 813.0, 813.0, 812.0, 811.0, 812.0, 815.0, 818.0, 816.0, 815.0, 813.0, 813.0, 813.0, 813.0, 812.0, 813.0, 814.0, 814.0, 812.0, 813.0, 813.0, 814.0, 814.0, 815.0],
      "WindowWidth": [1729.0, 1723.0, 1718.0, 1716.0, 1715.0, 1715.0, 1713.0, 1716.0, 1721.0, 1722.0, 1720.0, 1718.0, 1718.0, 1719.0, 1722.0, 1723.0, 1722.0, 1717.0, 1714.0, 1715.0, 1723.0, 1723.0, 1718.0, 1711.0, 1707.0, 1706.0, 1708.0, 1711.0, 1710.0, 1708.0, 1705.0, 1706.0, 1709.0, 1708.0, 1716.0, 1720.0, 1718.0, 1715.0, 1717.0, 1722.0, 1724.0, 1716.0, 1714.0, 1712.0, 1713.0, 1713.0, 1712.0, 1718.0, 1718.0, 1716.0, 1709.0, 1711.0, 1710.0, 1708.0, 1708.0, 1704.0, 1707.0, 1710.0, 1710.0, 1710.0, 1710.0, 1710.0, 1711.0, 1712.0, 1712.0, 1712.0, 1712.0, 1709.0, 1708.0, 1709.0, 1715.0, 1720.0, 1720.0, 1717.0, 1714.0, 1714.0, 1722.0, 1721.0, 1715.0, 1712.0, 1710.0, 1708.0, 1708.0, 1712.0, 1710.0, 1713.0, 1713.0, 1713.0, 1713.0, 1708.0, 1708.0, 1707.0, 1715.0, 1719.0, 1716.0, 1712.0, 1710.0, 1709.0, 1708.0, 1709.0, 1710.0, 1709.0, 1708.0, 1711.0, 1716.0, 1716.0, 1714.0, 1714.0, 1716.0, 1715.0, 1713.0, 1711.0, 1712.0, 1714.0, 1712.0, 1711.0, 1710.0, 1709.0, 1710.0, 1712.0, 1712.0, 1711.0, 1712.0, 1710.0, 1710.0, 1716.0, 1720.0, 1718.0, 1715.0, 1714.0, 1712.0, 1711.0, 1711.0, 1711.0, 1711.0, 1710.0, 1706.0, 1710.0, 1717.0, 1724.0, 1719.0, 1715.0, 1712.0, 1712.0, 1712.0, 1711.0, 1709.0, 1713.0, 1715.0, 1713.0, 1710.0, 1711.0, 1712.0, 1714.0, 1714.0, 1717.0]
    },
    "slices": {}
  }
}