{
  "AcquisitionMatrixPE": 100,
  "AcquisitionNumber": 1,
  "AcquisitionTime": "14:17:40.717500",
  "BandwidthPerPixelPhaseEncode": 18.519,
  "BaseResolution": 100,
  "BodyPartExamined": "BRAIN",
  "CoilCombinationMethod": "Sum of Squares",
  "ConsistencyInfo": "N4_VE11C_LATEST_20160120",
  "ConversionSoftware": "dcm2niix",
  "ConversionSoftwareVersion": "v1.0.20211006",
  "DerivedVendorReportedEchoSpacing": 0.000539986,
  "DeviceSerialNumber": "166078",
  "DwellTime": 2.1e-06,
  "EchoTime": 0.034,
  "EchoTrainLength": 100,
  "EffectiveEchoSpacing": 0.000539986,
  "FlipAngle": 90,
  "ImageOrientationPatientDICOM": [1, 4.36014e-05, 0.00027582, 7.18071e-08, 0.987695, -0.156394],
  "ImageOrientationText": "Tra>Cor(-9.0)>Sag(0.0)",
  "ImageType": [
    "ORIGINAL",
    "PRIMARY",
    "M",
    "ND",
    "MOSAIC"
],
  "ImagingFrequency": 123.258,
  "InPlanePhaseEncodingDirectionDICOM": "COL",
  "InstitutionAddress": "Street StreetNo,Bei Jing,District,CN,ZIP",
  "InstitutionName": "BeiJing Normal University",
  "InstitutionalDepartmentName": "Department",
  "MRAcquisitionType": "2D",
  "MagneticFieldStrength": 3,
  "Manufacturer": "Siemens",
  "ManufacturersModelName": "Prisma",
  "Modality": "MR",
  "MultibandAccelerationFactor": 3,
  "PartialFourier": 1,
  "PatientPosition": "HFS",
  "PercentPhaseFOV": 100,
  "PercentSampling": 100,
  "PhaseEncodingDirection": "j-",
  "PhaseEncodingSteps": 100,
  "PhaseResolution": 1,
  "PixelBandwidth": 2380,
  "ProcedureStepDescription": "BNU_P2018_64CH^Zhen.ZongLei",
  "ProtocolName": "bold_100x100_s3_2x2x2_static_156",
  "PulseSequenceDetails": "%SiemensSeq%\\ep2d_bold",
  "ReceiveCoilActiveElements": "HC1-7;NC1",
  "ReceiveCoilName": "HeadNeck_64",
  "ReconMatrixPE": 100,
  "RefLinesPE": 32,
  "RepetitionTime": 2,
  "SAR": 0.0633519,
  "ScanOptions": "FS",
  "ScanningSequence": "EP",
  "SequenceName": "*epfid2d1_100",
  "SequenceVariant": "SK",
  "SeriesDescription": "bold_100x100_s3_2x2x2_static_156",
  "SeriesNumber": 13,
  "ShimSetting": [-5467, -11506, -1245, 455, -62, -283, -102, 109],
  "SliceThickness": 2,
  "SliceTiming": [1.485, 0, 0.99, 0.0825, 1.0725, 0.165, 1.155, 0.2475, 1.2375, 0.33, 1.32, 0.4125, 1.4025, 0.5775, 1.5675, 0.66, 1.65, 0.7425, 1.7325, 0.825, 1.815, 0.9075, 1.8975, 0.495, 1.485, 0, 0.99, 0.0825, 1.0725, 0.165, 1.155, 0.2475, 1.2375, 0.33, 1.32, 0.4125, 1.4025, 0.5775, 1.5675, 0.66, 1.65, 0.7425, 1.7325, 0.825, 1.815, 0.9075, 1.8975, 0.495, 1.485, 0, 0.99, 0.0825, 1.0725, 0.165, 1.155, 0.2475, 1.2375, 0.33, 1.32, 0.4125, 1.4025, 0.5775, 1.5675, 0.66, 1.65, 0.7425, 1.7325, 0.825, 1.815, 0.9075, 1.8975, 0.495],
  "SoftwareVersions": "syngo MR E11",
  "SpacingBetweenSlices": 2,
  "StationName": "AWP166078",
  "TaskName": "action",
  "TotalReadoutTime": 0.0534586,
  "TxRefAmp": 214.139,
  "dcmmeta_affine": [
    [-1.9999998807907104, 1.436142866850787e-07, 0.0005584903992712498, 101.84530639648438],
    [-8.720281766727567e-05, 1.9753894805908203, -0.3127883970737457, -77.54387664794922],
    [0.0005516405217349529, 0.3127884268760681, 1.9753893613815308, -78.04408264160156],
    [0.0, 0.0, 0.0, 1.0]
],
  "dcmmeta_reorient_transform": [
    [0.0, -1.0, 0.0, 99.0],
    [1.0, 0.0, 0.0, 0.0],
    [0.0, 0.0, 1.0, 0.0],
    [0.0, 0.0, 0.0, 1.0]
],
  "dcmmeta_shape": [100, 100, 72, 156],
  "dcmmeta_slice_dim": 2,
  "dcmmeta_version": 0.6,
  "global": {
    "const": {
      "AcquisitionMatrix": [100, 0, 0, 100],
      "AngioFlag": "N",
      "BitsAllocated": 16,
      "BitsStored": 12,
      "BodyPartExamined": "BRAIN",
      "Columns": 900,
      "EchoNumbers": 1,
      "EchoTime": 34.0,
      "EchoTrainLength": 100,
      "FlipAngle": 90.0,
      "HighBit": 11,
      "ImageOrientationPatient": [0.99999996101105, 4.360140967e-05, 0.00027582024815, 7.180714e-08, 0.98769471595002, -0.1563942073237],
      "ImagePositionPatient": [-901.84534451592, -908.21032951105, 77.816679440989],
      "ImageType": [
        "ORIGINAL",
        "PRIMARY",
        "M",
        "ND",
        "MOSAIC"
],
      "ImagedNucleus": "1H",
      "ImagingFrequency": 123.257708,
      "InPlanePhaseEncodingDirection": "COL",
      "MRAcquisitionType": "2D",
      "MagneticFieldStrength": 3.0,
      "Manufacturer": "SIEMENS",
      "ManufacturerModelName": "Prisma",
      "Modality": "MR",
      "NumberOfAverages": 1.0,
      "NumberOfPhaseEncodingSteps": 100,
      "PercentPhaseFieldOfView": 100.0,
      "PercentSampling": 100.0,
      "PerformedProcedureStepStartTime": "132337.977000",
      "PhotometricInterpretation": "MONOCHROME2",
      "PixelBandwidth": 2380.0,
      "PixelRepresentation": 0,
      "PixelSpacing": [2.0, 2.0],
      "ProtocolName": "bold_100x100_s3_2x2x2_static_156",
      "RepetitionTime": 2000.0,
      "Rows": 900,
      "SAR": 0.06335191111307,
      "SamplesPerPixel": 1,
      "ScanOptions": "FS",
      "ScanningSequence": "EP",
      "SequenceName": "*epfid2d1_100",
      "SequenceVariant": "SK",
      "SeriesDescription": "bold_100x100_s3_2x2x2_static_156",
      "SeriesNumber": 13,
      "SeriesTime": "141743.587000",
      "SliceLocation": -64.927872955161,
      "SliceThickness": 2.0,
      "SmallestImagePixelValue": 0,
      "SoftwareVersions": "syngo MR E11",
      "SpacingBetweenSlices": 1.999999991508,
      "SpecificCharacterSet": "ISO_IR 100",
      "StudyID": "1",
      "StudyTime": "132337.914000",
      "TransmitCoilName": "Body",
      "VariableFlipAngleFlag": "N",
      "WindowCenterWidthExplanation": "Algo1",
      "dBdt": 0.0},
    "slices": {}
  },
  "time": {
    "samples": {
      "AcquisitionNumber": [1, 2, 3, 4, 5, 6, 7, 8, 9, 10, 11, 12, 13, 14, 15, 16, 17, 18, 19, 20, 21, 22, 23, 24, 25, 26, 27, 28, 29, 30, 31, 32, 33, 34, 35, 36, 37, 38, 39, 40, 41, 42, 43, 44, 45, 46, 47, 48, 49, 50, 51, 52, 53, 54, 55, 56, 57, 58, 59, 60, 61, 62, 63, 64, 65, 66, 67, 68, 69, 70, 71, 72, 73, 74, 75, 76, 77, 78, 79, 80, 81, 82, 83, 84, 85, 86, 87, 88, 89, 90, 91, 92, 93, 94, 95, 96, 97, 98, 99, 100, 101, 102, 103, 104, 105, 106, 107, 108, 109, 110, 111, 112, 113, 114, 115, 116, 117, 118, 119, 120, 121, 122, 123, 124, 125, 126, 127, 128, 129, 130, 131, 132, 133, 134, 135, 136, 137, 138, 139, 140, 141, 142, 143, 144, 145, 146, 147, 148, 149, 150, 151, 152, 153, 154, 155, 156],
      "AcquisitionTime": ["141740.717500", "141742.717500", "141744.717500", "141746.717500", "141748.717500", "141750.717500", "141752.717500", "141754.717500", "141756.717500", "141758.717500", "141800.717500", "141802.717500", "141804.717500", "141806.717500", "141808.717500", "141810.717500", "141812.717500", "141814.717500", "141816.717500", "141818.717500", "141820.717500", "141822.717500", "141824.717500", "141826.717500", "141828.717500", "141830.717500", "141832.717500", "141834.717500", "141836.717500", "141838.717500", "141840.717500", "141842.717500", "141844.717500", "141846.717500", "141848.717500", "141850.717500", "141852.717500", "141854.717500", "141856.717500", "141858.717500", "141900.717500", "141902.717500", "141904.717500", "141906.717500", "141908.717500", "141910.717500", "141912.717500", "141914.717500", "141916.717500", "141918.717500", "141920.717500", "141922.717500", "141924.717500", "141926.717500", "141928.717500", "141930.717500", "141932.717500", "141934.717500", "141936.717500", "141938.717500", "141940.717500", "141942.717500", "141944.717500", "141946.717500", "141948.717500", "141950.717500", "141952.717500", "141954.717500", "141956.717500", "141958.717500", "142000.717500", "142002.717500", "142004.717500", "142006.717500", "142008.717500", "142010.717500", "142012.717500", "142014.717500", "142016.717500", "142018.717500", "142020.717500", "142022.717500", "142024.717500", "142026.717500", "142028.717500", "142030.717500", "142032.717500", "142034.717500", "142036.717500", "142038.717500", "142040.717500", "142042.717500", "142044.717500", "142046.717500", "142048.717500", "142050.717500", "142052.717500", "142054.717500", "142056.717500", "142058.717500", "142100.717500", "142102.717500", "142104.717500", "142106.717500", "142108.717500", "142110.717500", "142112.717500", "142114.717500", "142116.717500", "142118.717500", "142120.717500", "142122.717500", "142124.717500", "142126.717500", "142128.717500", "142130.717500", "142132.717500", "142134.717500", "142136.717500", "142138.717500", "142140.717500", "142142.717500", "142144.717500", "142146.717500", "142148.717500", "142150.717500", "142152.717500", "142154.717500", "142156.717500", "142158.717500", "142200.717500", "142202.717500", "142204.717500", "142206.717500", "142208.717500", "142210.717500", "142212.717500", "142214.717500", "142216.717500", "142218.717500", "142220.717500", "142222.717500", "142224.717500", "142226.717500", "142228.717500", "142230.717500", "142232.717500", "142234.717500", "142236.717500", "142238.717500", "142240.717500", "142242.717500", "142244.717500", "142246.717500", "142248.717500", "142250.717500"],
      "ContentTime": ["141743.591000", "141745.087000", "141747.087000", "141749.087000", "141751.087000", "141753.087000", "141755.085000", "141757.087000", "141759.086000", "141801.087000", "141803.086000", "141805.086000", "141807.086000", "141809.087000", "141811.086000", "141813.085000", "141815.086000", "141817.086000", "141819.087000", "141821.086000", "141823.087000", "141825.087000", "141827.086000", "141829.086000", "141831.086000", "141833.087000", "141835.087000", "141837.087000", "141839.087000", "141841.087000", "141843.087000", "141845.087000", "141847.086000", "141849.087000", "141851.086000", "141853.087000", "141855.087000", "141857.086000", "141859.087000", "141901.086000", "141903.087000", "141905.086000", "141907.086000", "141909.086000", "141911.086000", "141913.086000", "141915.087000", "141917.087000", "141919.087000", "141921.086000", "141923.086000", "141925.086000", "141927.087000", "141929.087000", "141931.087000", "141933.087000", "141935.086000", "141937.087000", "141939.086000", "141941.086000", "141943.087000", "141945.087000", "141947.087000", "141949.087000", "141951.087000", "141953.087000", "141955.087000", "141957.086000", "141959.087000", "142001.086000", "142003.086000", "142005.087000", "142007.086000", "142009.087000", "142011.086000", "142013.087000", "142015.086000", "142017.086000", "142019.087000", "142021.087000", "142023.087000", "142025.086000", "142027.087000", "142029.086000", "142031.085000", "142033.085000", "142035.087000", "142037.087000", "142039.087000", "142041.087000", "142043.087000", "142045.086000", "142047.087000", "142049.086000", "142051.085000", "142053.087000", "142055.087000", "142057.087000", "142059.087000", "142101.086000", "142103.087000", "142105.087000", "142107.085000", "142109.087000", "142111.087000", "142113.086000", "142115.087000", "142117.086000", "142119.086000", "142121.086000", "142123.087000", "142125.085000", "142127.086000", "142129.087000", "142131.086000", "142133.087000", "142135.087000", "142137.087000", "142139.086000", "142141.086000", "142143.086000", "142145.100000", "142147.087000", "142149.086000", "142151.087000", "142153.087000", "142155.087000", "142157.087000", "142159.085000", "142201.085000", "142203.087000", "142205.086000", "142207.086000", "142209.087000", "142211.087000", "142213.087000", "142215.086000", "142217.086000", "142219.087000", "142221.087000", "142223.087000", "142225.086000", "142227.087000", "142229.086000", "142231.087000", "142233.087000", "142235.086000", "142237.087000", "142239.087000", "142241.087000", "142243.087000", "142245.087000", "142247.087000", "142249.086000", "142251.085000", "142252.913000"],
      "InstanceCreationTime": ["141743.591000", "141745.087000", "141747.087000", "141749.087000", "141751.087000", "141753.087000", "141755.085000", "141757.087000", "141759.086000", "141801.087000", "141803.086000", "141805.086000", "141807.086000", "141809.087000", "141811.086000", "141813.085000", "141815.086000", "141817.086000", "141819.087000", "141821.086000", "141823.087000", "141825.087000", "141827.086000", "141829.086000", "141831.086000", "141833.087000", "141835.087000", "141837.087000", "141839.087000", "141841.087000", "141843.087000", "141845.087000", "141847.086000", "141849.087000", "141851.086000", "141853.087000", "141855.087000", "141857.086000", "141859.087000", "141901.086000", "141903.087000", "141905.086000", "141907.086000", "141909.086000", "141911.086000", "141913.086000", "141915.087000", "141917.087000", "141919.087000", "141921.086000", "141923.086000", "141925.086000", "141927.087000", "141929.087000", "141931.087000", "141933.087000", "141935.086000", "141937.087000", "141939.086000", "141941.086000", "141943.087000", "141945.087000", "141947.087000", "141949.087000", "141951.087000", "141953.087000", "141955.087000", "141957.086000", "141959.087000", "142001.086000", "142003.086000", "142005.087000", "142007.086000", "142009.087000", "142011.086000", "142013.087000", "142015.086000", "142017.086000", "142019.087000", "142021.087000", "142023.087000", "142025.086000", "142027.087000", "142029.086000", "142031.085000", "142033.085000", "142035.087000", "142037.087000", "142039.087000", "142041.087000", "142043.087000", "142045.086000", "142047.087000", "142049.086000", "142051.085000", "142053.087000", "142055.087000", "142057.087000", "142059.087000", "142101.086000", "142103.087000", "142105.087000", "142107.085000", "142109.087000", "142111.087000", "142113.086000", "142115.087000", "142117.086000", "142119.086000", "142121.086000", "142123.087000", "142125.085000", "142127.086000", "142129.087000", "142131.086000", "142133.087000", "142135.087000", "142137.087000", "142139.086000", "142141.086000", "142143.086000", "142145.100000", "142147.087000", "142149.086000", "142151.087000", "142153.087000", "142155.087000", "142157.087000", "142159.085000", "142201.085000", "142203.087000", "142205.086000", "142207.086000", "142209.087000", "142211.087000", "142213.087000", "142215.086000", "142217.086000", "142219.087000", "142221.087000", "142223.087000", "142225.086000", "142227.087000", "142229.086000", "142231.087000", "142233.087000", "142235.086000", "142237.087000", "142239.087000", "142241.087000", "142243.087000", "142245.087000", "142247.087000", "142249.086000", "142251.085000", "142252.913000"],
      "InstanceNumber": [1, 2, 3, 4, 5, 6, 7, 8, 9, 10, 11, 12, 13, 14, 15, 16, 17, 18, 19, 20, 21, 22, 23, 24, 25, 26, 27, 28, 29, 30, 31, 32, 33, 34, 35, 36, 37, 38, 39, 40, 41, 42, 43, 44, 45, 46, 47, 48, 49, 50, 51, 52, 53, 54, 55, 56, 57, 58, 59, 60, 61, 62, 63, 64, 65, 66, 67, 68, 69, 70, 71, 72, 73, 74, 75, 76, 77, 78, 79, 80, 81, 82, 83, 84, 85, 86, 87, 88, 89, 90, 91, 92, 93, 94, 95, 96, 97, 98, 99, 100, 101, 102, 103, 104, 105, 106, 107, 108, 109, 110, 111, 112, 113, 114, 115, 116, 117, 118, 119, 120, 121, 122, 123, 124, 125, 126, 127, 128, 129, 130, 131, 132, 133, 134, 135, 136, 137, 138, 139, 140, 141, 142, 143, 144, 145, 146, 147, 148, 149, 150, 151, 152, 153, 154, 155, 156],
      "LargestImagePixelValue": [3693, 3589, 3540, 3475, 3425, 3405, 3473, 3513, 3464, 3452, 3506, 3473, 3514, 3460, 3483, 3487, 3498, 3454, 3435, 3474, 3462, 3458, 3539, 3492, 3450, 3460, 3454, 3518, 3489, 3587, 3556, 3465, 3455, 3454, 3460, 3415, 3465, 3524, 3575, 3598, 3658, 3621, 3685, 3627, 3628, 3645, 3674, 3540, 3579, 3580, 3566, 3603, 3649, 3617, 3618, 3527, 3591, 3539, 3445, 3498, 3438, 3486, 3653, 3643, 3489, 3591, 3586, 3626, 3613, 3648, 3613, 3654, 3704, 3683, 3697, 3717, 3710, 3692, 3679, 3695, 3664, 3673, 3682, 3619, 3636, 3597, 3659, 3599, 3634, 3603, 3606, 3598, 3605, 3599, 3558, 3586, 3589, 3643, 3584, 3555, 3645, 3608, 3618, 3542, 3582, 3542, 3545, 3524, 3640, 3574, 3697, 3499, 3629, 3628, 3573, 3601, 3639, 3625, 3689, 3686, 3669, 3662, 3683, 3630, 3689, 3576, 3689, 3452, 3393, 3362, 3457, 3536, 3504, 3626, 3605, 3634, 3472, 3388, 3449, 3531, 3404, 3409, 3460, 3470, 3428, 3407, 3486, 3428, 3508, 3501, 3557, 3486, 3563, 3436, 3555, 3495],
      "WindowCenter": [770.0, 768.0, 768.0, 767.0, 767.0, 769.0, 771.0, 771.0, 770.0, 771.0, 771.0, 771.0, 771.0, 771.0, 772.0, 772.0, 772.0, 770.0, 769.0, 769.0, 769.0, 770.0, 770.0, 769.0, 769.0, 770.0, 771.0, 771.0, 771.0, 770.0, 770.0, 769.0, 768.0, 769.0, 768.0, 769.0, 769.0, 770.0, 771.0, 771.0, 772.0, 772.0, 773.0, 773.0, 773.0, 774.0, 774.0, 774.0, 774.0, 776.0, 776.0, 776.0, 775.0, 773.0, 772.0, 770.0, 771.0, 770.0, 769.0, 768.0, 768.0, 768.0, 769.0, 769.0, 769.0, 768.0, 767.0, 767.0, 769.0, 770.0, 770.0, 771.0, 771.0, 771.0, 770.0, 771.0, 772.0, 771.0, 771.0, 772.0, 772.0, 773.0, 773.0, 772.0, 772.0, 772.0, 772.0, 772.0, 772.0, 771.0, 771.0, 771.0, 773.0, 774.0, 774.0, 773.0, 773.0, 774.0, 773.0, 773.0, 774.0, 774.0, 775.0, 774.0, 774.0, 774.0, 773.0, 773.0, 773.0, 772.0, 772.0, 771.0, 771.0, 771.0, 770.0, 768.0, 767.0, 768.0, 771.0, 771.0, 771.0, 771.0, 770.0, 770.0, 770.0, 770.0, 769.0, 768.0, 766.0, 766.0, 767.0, 768.0, 768.0, 769.0, 770.0, 770.0, 769.0, 768.0, 768.0, 770.0, 769.0, 769.0, 768.0, 766.0, 765.0, 766.0, 766.0, 766.0, 766.0, 767.0, 769.0, 768.0, 768.0, 769.0, 770.0, 768.0],
      "WindowWidth": [1698.0, 1691.0, 1689.0, 1688.0, 1688.0, 1691.0, 1697.0, 1699.0, 1697.0, 1698.0, 1698.0, 1698.0, 1698.0, 1700.0, 1702.0, 1703.0, 1702.0, 1697.0, 1693.0, 1693.0, 1693.0, 1694.0, 1695.0, 1692.0, 1692.0, 1696.0, 1699.0, 1700.0, 1698.0, 1696.0, 1695.0, 1692.0, 1690.0, 1692.0, 1691.0, 1692.0, 1692.0, 1695.0, 1698.0, 1699.0, 1702.0, 1702.0, 1705.0, 1706.0, 1706.0, 1707.0, 1708.0, 1707.0, 1709.0, 1713.0, 1713.0, 1713.0, 1711.0, 1706.0, 1702.0, 1697.0, 1698.0, 1696.0, 1692.0, 1689.0, 1689.0, 1690.0, 1694.0, 1694.0, 1692.0, 1690.0, 1687.0, 1688.0, 1692.0, 1697.0, 1697.0, 1698.0, 1699.0, 1698.0, 1696.0, 1698.0, 1700.0, 1701.0, 1699.0, 1702.0, 1704.0, 1704.0, 1705.0, 1703.0, 1700.0, 1701.0, 1702.0, 1701.0, 1701.0, 1700.0, 1699.0, 1699.0, 1704.0, 1708.0, 1706.0, 1705.0, 1704.0, 1707.0, 1704.0, 1706.0, 1708.0, 1708.0, 1710.0, 1709.0, 1708.0, 1707.0, 1706.0, 1704.0, 1704.0, 1702.0, 1703.0, 1699.0, 1699.0, 1700.0, 1696.0, 1689.0, 1689.0, 1691.0, 1698.0, 1700.0, 1698.0, 1698.0, 1697.0, 1696.0, 1696.0, 1695.0, 1694.0, 1689.0, 1684.0, 1685.0, 1687.0, 1691.0, 1690.0, 1693.0, 1695.0, 1696.0, 1694.0, 1688.0, 1690.0, 1695.0, 1693.0, 1691.0, 1689.0, 1684.0, 1680.0, 1683.0, 1684.0, 1683.0, 1684.0, 1687.0, 1691.0, 1689.0, 1690.0, 1691.0, 1695.0, 1690.0]
    },
    "slices": {}
  }
}