{
  "AcquisitionMatrixPE": 100,
  "AcquisitionNumber": 1,
  "AcquisitionTime": "14:23:36.077500",
  "BandwidthPerPixelPhaseEncode": 18.519,
  "BaseResolution": 100,
  "BodyPartExamined": "BRAIN",
  "CoilCombinationMethod": "Sum of Squares",
  "ConsistencyInfo": "N4_VE11C_LATEST_20160120",
  "ConversionSoftware": "dcm2niix",
  "ConversionSoftwareVersion": "v1.0.20211006",
  "DerivedVendorReportedEchoSpacing": 0.000539986,
  "DeviceSerialNumber": "166078",
  "DwellTime": 2.1e-06,
  "EchoTime": 0.034,
  "EchoTrainLength": 100,
  "EffectiveEchoSpacing": 0.000539986,
  "FlipAngle": 90,
  "ImageOrientationPatientDICOM": [1, 4.36014e-05, 0.00027582, 7.18071e-08, 0.987695, -0.156394],
  "ImageOrientationText": "Tra>Cor(-9.0)>Sag(0.0)",
  "ImageType": [
    "ORIGINAL",
    "PRIMARY",
    "M",
    "ND",
    "MOSAIC"
],
  "ImagingFrequency": 123.258,
  "InPlanePhaseEncodingDirectionDICOM": "COL",
  "InstitutionAddress": "Street StreetNo,Bei Jing,District,CN,ZIP",
  "InstitutionName": "BeiJing Normal University",
  "InstitutionalDepartmentName": "Department",
  "MRAcquisitionType": "2D",
  "MagneticFieldStrength": 3,
  "Manufacturer": "Siemens",
  "ManufacturersModelName": "Prisma",
  "Modality": "MR",
  "MultibandAccelerationFactor": 3,
  "PartialFourier": 1,
  "PatientPosition": "HFS",
  "PercentPhaseFOV": 100,
  "PercentSampling": 100,
  "PhaseEncodingDirection": "j-",
  "PhaseEncodingSteps": 100,
  "PhaseResolution": 1,
  "PixelBandwidth": 2380,
  "ProcedureStepDescription": "BNU_P2018_64CH^Zhen.ZongLei",
  "ProtocolName": "bold_100x100_s3_2x2x2_static_156",
  "PulseSequenceDetails": "%SiemensSeq%\\ep2d_bold",
  "ReceiveCoilActiveElements": "HC1-7;NC1",
  "ReceiveCoilName": "HeadNeck_64",
  "ReconMatrixPE": 100,
  "RefLinesPE": 32,
  "RepetitionTime": 2,
  "SAR": 0.0633519,
  "ScanOptions": "FS",
  "ScanningSequence": "EP",
  "SequenceName": "*epfid2d1_100",
  "SequenceVariant": "SK",
  "SeriesDescription": "bold_100x100_s3_2x2x2_static_156",
  "SeriesNumber": 14,
  "ShimSetting": [-5467, -11506, -1245, 455, -62, -283, -102, 109],
  "SliceThickness": 2,
  "SliceTiming": [1.485, 0, 0.99, 0.0825, 1.0725, 0.165, 1.155, 0.2475, 1.2375, 0.33, 1.32, 0.4125, 1.4025, 0.5775, 1.5675, 0.66, 1.65, 0.7425, 1.7325, 0.825, 1.815, 0.9075, 1.8975, 0.495, 1.485, 0, 0.99, 0.0825, 1.0725, 0.165, 1.155, 0.2475, 1.2375, 0.33, 1.32, 0.4125, 1.4025, 0.5775, 1.5675, 0.66, 1.65, 0.7425, 1.7325, 0.825, 1.815, 0.9075, 1.8975, 0.495, 1.485, 0, 0.99, 0.0825, 1.0725, 0.165, 1.155, 0.2475, 1.2375, 0.33, 1.32, 0.4125, 1.4025, 0.5775, 1.5675, 0.66, 1.65, 0.7425, 1.7325, 0.825, 1.815, 0.9075, 1.8975, 0.495],
  "SoftwareVersions": "syngo MR E11",
  "SpacingBetweenSlices": 2,
  "StationName": "AWP166078",
  "TaskName": "action",
  "TotalReadoutTime": 0.0534586,
  "TxRefAmp": 214.139,
  "dcmmeta_affine": [
    [-1.9999998807907104, 1.436142866850787e-07, 0.0005584903992712498, 101.84530639648438],
    [-8.720281766727567e-05, 1.9753894805908203, -0.3127883970737457, -77.54387664794922],
    [0.0005516405217349529, 0.3127884268760681, 1.9753893613815308, -78.04408264160156],
    [0.0, 0.0, 0.0, 1.0]
],
  "dcmmeta_reorient_transform": [
    [0.0, -1.0, 0.0, 99.0],
    [1.0, 0.0, 0.0, 0.0],
    [0.0, 0.0, 1.0, 0.0],
    [0.0, 0.0, 0.0, 1.0]
],
  "dcmmeta_shape": [100, 100, 72, 156],
  "dcmmeta_slice_dim": 2,
  "dcmmeta_version": 0.6,
  "global": {
    "const": {
      "AcquisitionMatrix": [100, 0, 0, 100],
      "AngioFlag": "N",
      "BitsAllocated": 16,
      "BitsStored": 12,
      "BodyPartExamined": "BRAIN",
      "Columns": 900,
      "EchoNumbers": 1,
      "EchoTime": 34.0,
      "EchoTrainLength": 100,
      "FlipAngle": 90.0,
      "HighBit": 11,
      "ImageOrientationPatient": [0.99999996101105, 4.360140967e-05, 0.00027582024815, 7.180714e-08, 0.98769471595002, -0.1563942073237],
      "ImagePositionPatient": [-901.84534451592, -908.21032951105, 77.816679440989],
      "ImageType": [
        "ORIGINAL",
        "PRIMARY",
        "M",
        "ND",
        "MOSAIC"
],
      "ImagedNucleus": "1H",
      "ImagingFrequency": 123.257711,
      "InPlanePhaseEncodingDirection": "COL",
      "MRAcquisitionType": "2D",
      "MagneticFieldStrength": 3.0,
      "Manufacturer": "SIEMENS",
      "ManufacturerModelName": "Prisma",
      "Modality": "MR",
      "NumberOfAverages": 1.0,
      "NumberOfPhaseEncodingSteps": 100,
      "PercentPhaseFieldOfView": 100.0,
      "PercentSampling": 100.0,
      "PerformedProcedureStepStartTime": "132337.977000",
      "PhotometricInterpretation": "MONOCHROME2",
      "PixelBandwidth": 2380.0,
      "PixelRepresentation": 0,
      "PixelSpacing": [2.0, 2.0],
      "ProtocolName": "bold_100x100_s3_2x2x2_static_156",
      "RepetitionTime": 2000.0,
      "Rows": 900,
      "SAR": 0.06335191111307,
      "SamplesPerPixel": 1,
      "ScanOptions": "FS",
      "ScanningSequence": "EP",
      "SequenceName": "*epfid2d1_100",
      "SequenceVariant": "SK",
      "SeriesDescription": "bold_100x100_s3_2x2x2_static_156",
      "SeriesNumber": 14,
      "SeriesTime": "142339.179000",
      "SliceLocation": -64.927872955161,
      "SliceThickness": 2.0,
      "SmallestImagePixelValue": 0,
      "SoftwareVersions": "syngo MR E11",
      "SpacingBetweenSlices": 1.999999991508,
      "SpecificCharacterSet": "ISO_IR 100",
      "StudyID": "1",
      "StudyTime": "132337.914000",
      "TransmitCoilName": "Body",
      "VariableFlipAngleFlag": "N",
      "WindowCenterWidthExplanation": "Algo1",
      "dBdt": 0.0},
    "slices": {}
  },
  "time": {
    "samples": {
      "AcquisitionNumber": [1, 2, 3, 4, 5, 6, 7, 8, 9, 10, 11, 12, 13, 14, 15, 16, 17, 18, 19, 20, 21, 22, 23, 24, 25, 26, 27, 28, 29, 30, 31, 32, 33, 34, 35, 36, 37, 38, 39, 40, 41, 42, 43, 44, 45, 46, 47, 48, 49, 50, 51, 52, 53, 54, 55, 56, 57, 58, 59, 60, 61, 62, 63, 64, 65, 66, 67, 68, 69, 70, 71, 72, 73, 74, 75, 76, 77, 78, 79, 80, 81, 82, 83, 84, 85, 86, 87, 88, 89, 90, 91, 92, 93, 94, 95, 96, 97, 98, 99, 100, 101, 102, 103, 104, 105, 106, 107, 108, 109, 110, 111, 112, 113, 114, 115, 116, 117, 118, 119, 120, 121, 122, 123, 124, 125, 126, 127, 128, 129, 130, 131, 132, 133, 134, 135, 136, 137, 138, 139, 140, 141, 142, 143, 144, 145, 146, 147, 148, 149, 150, 151, 152, 153, 154, 155, 156],
      "AcquisitionTime": ["142336.077500", "142338.077500", "142340.077500", "142342.077500", "142344.077500", "142346.077500", "142348.077500", "142350.077500", "142352.077500", "142354.077500", "142356.077500", "142358.077500", "142400.077500", "142402.077500", "142404.077500", "142406.077500", "142408.077500", "142410.077500", "142412.077500", "142414.077500", "142416.077500", "142418.077500", "142420.077500", "142422.077500", "142424.077500", "142426.077500", "142428.077500", "142430.077500", "142432.077500", "142434.077500", "142436.077500", "142438.077500", "142440.077500", "142442.077500", "142444.077500", "142446.077500", "142448.077500", "142450.077500", "142452.077500", "142454.077500", "142456.077500", "142458.077500", "142500.077500", "142502.077500", "142504.077500", "142506.077500", "142508.077500", "142510.077500", "142512.077500", "142514.077500", "142516.077500", "142518.077500", "142520.077500", "142522.077500", "142524.077500", "142526.077500", "142528.077500", "142530.077500", "142532.077500", "142534.077500", "142536.077500", "142538.077500", "142540.077500", "142542.077500", "142544.077500", "142546.077500", "142548.077500", "142550.077500", "142552.077500", "142554.077500", "142556.077500", "142558.077500", "142600.077500", "142602.077500", "142604.077500", "142606.077500", "142608.077500", "142610.077500", "142612.077500", "142614.077500", "142616.077500", "142618.077500", "142620.077500", "142622.077500", "142624.077500", "142626.077500", "142628.077500", "142630.077500", "142632.077500", "142634.077500", "142636.077500", "142638.077500", "142640.077500", "142642.077500", "142644.077500", "142646.077500", "142648.077500", "142650.077500", "142652.077500", "142654.077500", "142656.077500", "142658.077500", "142700.077500", "142702.077500", "142704.077500", "142706.077500", "142708.077500", "142710.077500", "142712.077500", "142714.077500", "142716.077500", "142718.077500", "142720.077500", "142722.077500", "142724.077500", "142726.077500", "142728.077500", "142730.077500", "142732.077500", "142734.077500", "142736.077500", "142738.077500", "142740.077500", "142742.077500", "142744.077500", "142746.077500", "142748.077500", "142750.077500", "142752.077500", "142754.077500", "142756.077500", "142758.077500", "142800.077500", "142802.077500", "142804.077500", "142806.077500", "142808.077500", "142810.077500", "142812.077500", "142814.077500", "142816.077500", "142818.077500", "142820.077500", "142822.077500", "142824.077500", "142826.077500", "142828.077500", "142830.077500", "142832.077500", "142834.077500", "142836.077500", "142838.077500", "142840.077500", "142842.077500", "142844.077500", "142846.077500"],
      "ContentTime": ["142339.182000", "142340.678000", "142342.677000", "142344.677000", "142346.677000", "142348.678000", "142350.678000", "142352.678000", "142354.678000", "142356.678000", "142358.677000", "142400.677000", "142402.678000", "142404.678000", "142406.678000", "142408.677000", "142410.677000", "142412.677000", "142414.677000", "142416.677000", "142418.678000", "142420.677000", "142422.678000", "142424.677000", "142426.677000", "142428.678000", "142430.678000", "142432.677000", "142434.677000", "142436.677000", "142438.679000", "142440.678000", "142442.678000", "142444.677000", "142446.177000", "142448.678000", "142450.178000", "142452.678000", "142454.677000", "142456.678000", "142458.177000", "142500.677000", "142502.677000", "142504.677000", "142506.178000", "142508.677000", "142510.677000", "142512.677000", "142514.678000", "142516.678000", "142518.677000", "142520.677000", "142522.678000", "142524.678000", "142526.677000", "142528.678000", "142530.678000", "142532.678000", "142534.678000", "142536.677000", "142538.677000", "142540.677000", "142542.677000", "142544.678000", "142546.678000", "142548.679000", "142550.678000", "142552.678000", "142554.677000", "142556.679000", "142558.678000", "142600.678000", "142602.677000", "142604.677000", "142606.677000", "142608.677000", "142610.678000", "142612.178000", "142614.677000", "142616.677000", "142618.678000", "142620.678000", "142622.677000", "142624.678000", "142626.677000", "142628.677000", "142630.678000", "142632.677000", "142634.678000", "142636.677000", "142638.677000", "142640.177000", "142642.678000", "142644.678000", "142646.678000", "142648.678000", "142650.678000", "142652.677000", "142654.678000", "142656.677000", "142658.679000", "142700.677000", "142702.677000", "142704.677000", "142706.678000", "142708.678000", "142710.678000", "142712.678000", "142714.677000", "142716.677000", "142718.677000", "142720.678000", "142722.678000", "142724.678000", "142726.677000", "142728.678000", "142730.677000", "142732.678000", "142734.677000", "142736.678000", "142738.678000", "142740.677000", "142742.677000", "142744.677000", "142746.677000", "142748.677000", "142750.677000", "142752.677000", "142754.677000", "142756.177000", "142758.677000", "142800.678000", "142802.677000", "142804.677000", "142806.678000", "142808.678000", "142810.677000", "142812.677000", "142814.678000", "142816.678000", "142818.677000", "142820.677000", "142822.678000", "142824.678000", "142826.677000", "142828.678000", "142830.678000", "142832.678000", "142834.678000", "142836.677000", "142838.677000", "142840.677000", "142842.678000", "142844.678000", "142846.678000", "142848.287000"],
      "InstanceCreationTime": ["142339.182000", "142340.678000", "142342.677000", "142344.677000", "142346.677000", "142348.678000", "142350.678000", "142352.678000", "142354.678000", "142356.678000", "142358.677000", "142400.677000", "142402.678000", "142404.678000", "142406.678000", "142408.677000", "142410.677000", "142412.677000", "142414.677000", "142416.677000", "142418.678000", "142420.677000", "142422.678000", "142424.677000", "142426.677000", "142428.678000", "142430.678000", "142432.677000", "142434.677000", "142436.677000", "142438.679000", "142440.678000", "142442.678000", "142444.677000", "142446.177000", "142448.678000", "142450.178000", "142452.678000", "142454.677000", "142456.678000", "142458.177000", "142500.677000", "142502.677000", "142504.677000", "142506.178000", "142508.677000", "142510.677000", "142512.677000", "142514.678000", "142516.678000", "142518.677000", "142520.677000", "142522.678000", "142524.678000", "142526.677000", "142528.678000", "142530.678000", "142532.678000", "142534.678000", "142536.677000", "142538.677000", "142540.677000", "142542.677000", "142544.678000", "142546.678000", "142548.679000", "142550.678000", "142552.678000", "142554.677000", "142556.679000", "142558.678000", "142600.678000", "142602.677000", "142604.677000", "142606.677000", "142608.677000", "142610.678000", "142612.178000", "142614.677000", "142616.677000", "142618.678000", "142620.678000", "142622.677000", "142624.678000", "142626.677000", "142628.677000", "142630.678000", "142632.677000", "142634.678000", "142636.677000", "142638.677000", "142640.177000", "142642.678000", "142644.678000", "142646.678000", "142648.678000", "142650.678000", "142652.677000", "142654.678000", "142656.677000", "142658.679000", "142700.677000", "142702.677000", "142704.677000", "142706.678000", "142708.678000", "142710.678000", "142712.678000", "142714.677000", "142716.677000", "142718.677000", "142720.678000", "142722.678000", "142724.678000", "142726.677000", "142728.678000", "142730.677000", "142732.678000", "142734.677000", "142736.678000", "142738.678000", "142740.677000", "142742.677000", "142744.677000", "142746.677000", "142748.677000", "142750.677000", "142752.677000", "142754.677000", "142756.177000", "142758.677000", "142800.678000", "142802.677000", "142804.677000", "142806.678000", "142808.678000", "142810.677000", "142812.677000", "142814.678000", "142816.678000", "142818.677000", "142820.677000", "142822.678000", "142824.678000", "142826.677000", "142828.678000", "142830.678000", "142832.678000", "142834.678000", "142836.677000", "142838.677000", "142840.677000", "142842.678000", "142844.678000", "142846.678000", "142848.287000"],
      "InstanceNumber": [1, 2, 3, 4, 5, 6, 7, 8, 9, 10, 11, 12, 13, 14, 15, 16, 17, 18, 19, 20, 21, 22, 23, 24, 25, 26, 27, 28, 29, 30, 31, 32, 33, 34, 35, 36, 37, 38, 39, 40, 41, 42, 43, 44, 45, 46, 47, 48, 49, 50, 51, 52, 53, 54, 55, 56, 57, 58, 59, 60, 61, 62, 63, 64, 65, 66, 67, 68, 69, 70, 71, 72, 73, 74, 75, 76, 77, 78, 79, 80, 81, 82, 83, 84, 85, 86, 87, 88, 89, 90, 91, 92, 93, 94, 95, 96, 97, 98, 99, 100, 101, 102, 103, 104, 105, 106, 107, 108, 109, 110, 111, 112, 113, 114, 115, 116, 117, 118, 119, 120, 121, 122, 123, 124, 125, 126, 127, 128, 129, 130, 131, 132, 133, 134, 135, 136, 137, 138, 139, 140, 141, 142, 143, 144, 145, 146, 147, 148, 149, 150, 151, 152, 153, 154, 155, 156],
      "LargestImagePixelValue": [3499, 3505, 3466, 3486, 3414, 3432, 3432, 3355, 3380, 3397, 3432, 3454, 3460, 3459, 3473, 3510, 3462, 3443, 3451, 3436, 3442, 3427, 3397, 3420, 3432, 3397, 3419, 3399, 3448, 3535, 3520, 3497, 3426, 3433, 3392, 3437, 3409, 3406, 3408, 3483, 3596, 3551, 3457, 3416, 3384, 3347, 3406, 3387, 3450, 3397, 3482, 3511, 3439, 3555, 3455, 3453, 3467, 3408, 3475, 3441, 3466, 3371, 3390, 3404, 3471, 3480, 3499, 3489, 3485, 3467, 3396, 3439, 3440, 3423, 3454, 3360, 3341, 3378, 3481, 3496, 3540, 3572, 3566, 3536, 3539, 3569, 3566, 3570, 3563, 3532, 3539, 3573, 3438, 3409, 3425, 3433, 3460, 3456, 3397, 3443, 3552, 3463, 3452, 3648, 3634, 3541, 3549, 3572, 3546, 3566, 3534, 3541, 3509, 3543, 3522, 3489, 3478, 3543, 3549, 3536, 3521, 3539, 3584, 3498, 3527, 3571, 3624, 3578, 3577, 3454, 3649, 3549, 3491, 3531, 3559, 3561, 3515, 3532, 3546, 3517, 3566, 3572, 3557, 3533, 3560, 3558, 3502, 3514, 3620, 3568, 3538, 3580, 3521, 3531, 3643, 3598],
      "WindowCenter": [767.0, 766.0, 765.0, 766.0, 764.0, 765.0, 766.0, 766.0, 766.0, 766.0, 767.0, 768.0, 769.0, 769.0, 770.0, 770.0, 768.0, 767.0, 766.0, 766.0, 766.0, 766.0, 765.0, 765.0, 765.0, 765.0, 766.0, 767.0, 767.0, 768.0, 767.0, 768.0, 767.0, 767.0, 766.0, 768.0, 767.0, 768.0, 768.0, 768.0, 767.0, 766.0, 765.0, 764.0, 765.0, 765.0, 766.0, 767.0, 766.0, 766.0, 768.0, 769.0, 769.0, 770.0, 768.0, 769.0, 768.0, 768.0, 768.0, 768.0, 767.0, 765.0, 765.0, 765.0, 765.0, 765.0, 765.0, 766.0, 767.0, 768.0, 768.0, 768.0, 767.0, 765.0, 764.0, 763.0, 764.0, 763.0, 763.0, 764.0, 765.0, 767.0, 767.0, 768.0, 769.0, 771.0, 772.0, 773.0, 773.0, 773.0, 771.0, 770.0, 769.0, 769.0, 768.0, 767.0, 767.0, 765.0, 764.0, 764.0, 765.0, 765.0, 764.0, 764.0, 765.0, 765.0, 765.0, 765.0, 764.0, 766.0, 766.0, 767.0, 766.0, 767.0, 765.0, 766.0, 766.0, 767.0, 765.0, 765.0, 766.0, 766.0, 766.0, 763.0, 763.0, 763.0, 762.0, 762.0, 763.0, 763.0, 763.0, 764.0, 765.0, 766.0, 767.0, 767.0, 766.0, 766.0, 767.0, 766.0, 764.0, 765.0, 766.0, 766.0, 765.0, 764.0, 763.0, 762.0, 762.0, 762.0, 762.0, 763.0, 763.0, 763.0, 763.0, 762.0],
      "WindowWidth": [1687.0, 1683.0, 1681.0, 1683.0, 1679.0, 1681.0, 1682.0, 1682.0, 1683.0, 1684.0, 1687.0, 1689.0, 1692.0, 1693.0, 1695.0, 1694.0, 1689.0, 1685.0, 1684.0, 1683.0, 1682.0, 1684.0, 1680.0, 1680.0, 1681.0, 1682.0, 1683.0, 1686.0, 1686.0, 1688.0, 1687.0, 1688.0, 1685.0, 1686.0, 1684.0, 1688.0, 1687.0, 1689.0, 1688.0, 1689.0, 1687.0, 1683.0, 1679.0, 1678.0, 1680.0, 1681.0, 1685.0, 1685.0, 1685.0, 1684.0, 1688.0, 1692.0, 1691.0, 1695.0, 1691.0, 1692.0, 1690.0, 1690.0, 1690.0, 1690.0, 1686.0, 1682.0, 1680.0, 1679.0, 1680.0, 1680.0, 1682.0, 1684.0, 1686.0, 1689.0, 1690.0, 1688.0, 1685.0, 1679.0, 1678.0, 1673.0, 1677.0, 1674.0, 1674.0, 1679.0, 1682.0, 1687.0, 1688.0, 1689.0, 1693.0, 1699.0, 1701.0, 1706.0, 1705.0, 1704.0, 1700.0, 1697.0, 1693.0, 1691.0, 1688.0, 1686.0, 1685.0, 1682.0, 1676.0, 1678.0, 1680.0, 1679.0, 1676.0, 1679.0, 1680.0, 1680.0, 1680.0, 1680.0, 1678.0, 1682.0, 1682.0, 1686.0, 1682.0, 1685.0, 1680.0, 1682.0, 1682.0, 1686.0, 1681.0, 1681.0, 1682.0, 1682.0, 1682.0, 1675.0, 1674.0, 1674.0, 1672.0, 1672.0, 1673.0, 1674.0, 1674.0, 1676.0, 1679.0, 1683.0, 1686.0, 1685.0, 1681.0, 1683.0, 1684.0, 1683.0, 1678.0, 1679.0, 1682.0, 1683.0, 1680.0, 1676.0, 1674.0, 1671.0, 1670.0, 1671.0, 1672.0, 1674.0, 1675.0, 1675.0, 1674.0, 1670.0]
    },
    "slices": {}
  }
}