{
  "AcquisitionMatrixPE": 100,
  "AcquisitionNumber": 1,
  "AcquisitionTime": "13:56:41.180000",
  "BandwidthPerPixelPhaseEncode": 18.519,
  "BaseResolution": 100,
  "BodyPartExamined": "BRAIN",
  "CoilCombinationMethod": "Sum of Squares",
  "ConsistencyInfo": "N4_VE11C_LATEST_20160120",
  "ConversionSoftware": "dcm2niix",
  "ConversionSoftwareVersion": "v1.0.20211006",
  "DerivedVendorReportedEchoSpacing": 0.000539986,
  "DeviceSerialNumber": "166078",
  "DwellTime": 2.1e-06,
  "EchoTime": 0.034,
  "EchoTrainLength": 100,
  "EffectiveEchoSpacing": 0.000539986,
  "FlipAngle": 90,
  "ImageOrientationPatientDICOM": [1, 4.36014e-05, 0.00027582, 7.18071e-08, 0.987695, -0.156394],
  "ImageOrientationText": "Tra>Cor(-9.0)>Sag(0.0)",
  "ImageType": [
    "ORIGINAL",
    "PRIMARY",
    "M",
    "ND",
    "MOSAIC"
],
  "ImagingFrequency": 123.258,
  "InPlanePhaseEncodingDirectionDICOM": "COL",
  "InstitutionAddress": "Street StreetNo,Bei Jing,District,CN,ZIP",
  "InstitutionName": "BeiJing Normal University",
  "InstitutionalDepartmentName": "Department",
  "MRAcquisitionType": "2D",
  "MagneticFieldStrength": 3,
  "Manufacturer": "Siemens",
  "ManufacturersModelName": "Prisma",
  "Modality": "MR",
  "MultibandAccelerationFactor": 3,
  "PartialFourier": 1,
  "PatientPosition": "HFS",
  "PercentPhaseFOV": 100,
  "PercentSampling": 100,
  "PhaseEncodingDirection": "j-",
  "PhaseEncodingSteps": 100,
  "PhaseResolution": 1,
  "PixelBandwidth": 2380,
  "ProcedureStepDescription": "BNU_P2018_64CH^Zhen.ZongLei",
  "ProtocolName": "bold_100x100_s3_2x2x2_static_156",
  "PulseSequenceDetails": "%SiemensSeq%\\ep2d_bold",
  "ReceiveCoilActiveElements": "HC1-7;NC1",
  "ReceiveCoilName": "HeadNeck_64",
  "ReconMatrixPE": 100,
  "RefLinesPE": 32,
  "RepetitionTime": 2,
  "SAR": 0.0633519,
  "ScanOptions": "FS",
  "ScanningSequence": "EP",
  "SequenceName": "*epfid2d1_100",
  "SequenceVariant": "SK",
  "SeriesDescription": "bold_100x100_s3_2x2x2_static_156",
  "SeriesNumber": 8,
  "ShimSetting": [-5467, -11506, -1245, 455, -62, -283, -102, 109],
  "SliceThickness": 2,
  "SliceTiming": [1.485, 0, 0.99, 0.0825, 1.0725, 0.165, 1.155, 0.2475, 1.2375, 0.33, 1.32, 0.4125, 1.4025, 0.5775, 1.5675, 0.66, 1.65, 0.7425, 1.7325, 0.825, 1.815, 0.9075, 1.8975, 0.495, 1.485, 0, 0.99, 0.0825, 1.0725, 0.165, 1.155, 0.2475, 1.2375, 0.33, 1.32, 0.4125, 1.4025, 0.5775, 1.5675, 0.66, 1.65, 0.7425, 1.7325, 0.825, 1.815, 0.9075, 1.8975, 0.495, 1.485, 0, 0.99, 0.0825, 1.0725, 0.165, 1.155, 0.2475, 1.2375, 0.33, 1.32, 0.4125, 1.4025, 0.5775, 1.5675, 0.66, 1.65, 0.7425, 1.7325, 0.825, 1.815, 0.9075, 1.8975, 0.495],
  "SoftwareVersions": "syngo MR E11",
  "SpacingBetweenSlices": 2,
  "StationName": "AWP166078",
  "TaskName": "action",
  "TotalReadoutTime": 0.0534586,
  "TxRefAmp": 214.139,
  "dcmmeta_affine": [
    [-1.9999998807907104, 1.436142866850787e-07, 0.0005584903992712498, 101.84530639648438],
    [-8.720281766727567e-05, 1.9753894805908203, -0.3127883970737457, -77.54387664794922],
    [0.0005516405217349529, 0.3127884268760681, 1.9753893613815308, -78.04408264160156],
    [0.0, 0.0, 0.0, 1.0]
],
  "dcmmeta_reorient_transform": [
    [0.0, -1.0, 0.0, 99.0],
    [1.0, 0.0, 0.0, 0.0],
    [0.0, 0.0, 1.0, 0.0],
    [0.0, 0.0, 0.0, 1.0]
],
  "dcmmeta_shape": [100, 100, 72, 156],
  "dcmmeta_slice_dim": 2,
  "dcmmeta_version": 0.6,
  "global": {
    "const": {
      "AcquisitionMatrix": [100, 0, 0, 100],
      "AngioFlag": "N",
      "BitsAllocated": 16,
      "BitsStored": 12,
      "BodyPartExamined": "BRAIN",
      "Columns": 900,
      "EchoNumbers": 1,
      "EchoTime": 34.0,
      "EchoTrainLength": 100,
      "FlipAngle": 90.0,
      "HighBit": 11,
      "ImageOrientationPatient": [0.99999996101105, 4.360140967e-05, 0.00027582024815, 7.180714e-08, 0.98769471595002, -0.1563942073237],
      "ImagePositionPatient": [-901.84534451592, -908.21032951105, 77.816679440989],
      "ImageType": [
        "ORIGINAL",
        "PRIMARY",
        "M",
        "ND",
        "MOSAIC"
],
      "ImagedNucleus": "1H",
      "ImagingFrequency": 123.257705,
      "InPlanePhaseEncodingDirection": "COL",
      "MRAcquisitionType": "2D",
      "MagneticFieldStrength": 3.0,
      "Manufacturer": "SIEMENS",
      "ManufacturerModelName": "Prisma",
      "Modality": "MR",
      "NumberOfAverages": 1.0,
      "NumberOfPhaseEncodingSteps": 100,
      "PercentPhaseFieldOfView": 100.0,
      "PercentSampling": 100.0,
      "PerformedProcedureStepStartTime": "132337.977000",
      "PhotometricInterpretation": "MONOCHROME2",
      "PixelBandwidth": 2380.0,
      "PixelRepresentation": 0,
      "PixelSpacing": [2.0, 2.0],
      "ProtocolName": "bold_100x100_s3_2x2x2_static_156",
      "RepetitionTime": 2000.0,
      "Rows": 900,
      "SAR": 0.06335191111307,
      "SamplesPerPixel": 1,
      "ScanOptions": "FS",
      "ScanningSequence": "EP",
      "SequenceName": "*epfid2d1_100",
      "SequenceVariant": "SK",
      "SeriesDescription": "bold_100x100_s3_2x2x2_static_156",
      "SeriesNumber": 8,
      "SeriesTime": "135644.207000",
      "SliceLocation": -64.927872955161,
      "SliceThickness": 2.0,
      "SmallestImagePixelValue": 0,
      "SoftwareVersions": "syngo MR E11",
      "SpacingBetweenSlices": 1.999999991508,
      "SpecificCharacterSet": "ISO_IR 100",
      "StudyID": "1",
      "StudyTime": "132337.914000",
      "TransmitCoilName": "Body",
      "VariableFlipAngleFlag": "N",
      "WindowCenterWidthExplanation": "Algo1",
      "dBdt": 0.0},
    "slices": {}
  },
  "time": {
    "samples": {
      "AcquisitionNumber": [1, 2, 3, 4, 5, 6, 7, 8, 9, 10, 11, 12, 13, 14, 15, 16, 17, 18, 19, 20, 21, 22, 23, 24, 25, 26, 27, 28, 29, 30, 31, 32, 33, 34, 35, 36, 37, 38, 39, 40, 41, 42, 43, 44, 45, 46, 47, 48, 49, 50, 51, 52, 53, 54, 55, 56, 57, 58, 59, 60, 61, 62, 63, 64, 65, 66, 67, 68, 69, 70, 71, 72, 73, 74, 75, 76, 77, 78, 79, 80, 81, 82, 83, 84, 85, 86, 87, 88, 89, 90, 91, 92, 93, 94, 95, 96, 97, 98, 99, 100, 101, 102, 103, 104, 105, 106, 107, 108, 109, 110, 111, 112, 113, 114, 115, 116, 117, 118, 119, 120, 121, 122, 123, 124, 125, 126, 127, 128, 129, 130, 131, 132, 133, 134, 135, 136, 137, 138, 139, 140, 141, 142, 143, 144, 145, 146, 147, 148, 149, 150, 151, 152, 153, 154, 155, 156],
      "AcquisitionTime": ["135641.180000", "135643.180000", "135645.180000", "135647.180000", "135649.180000", "135651.180000", "135653.180000", "135655.180000", "135657.180000", "135659.180000", "135701.180000", "135703.180000", "135705.180000", "135707.180000", "135709.180000", "135711.180000", "135713.180000", "135715.180000", "135717.180000", "135719.180000", "135721.180000", "135723.180000", "135725.180000", "135727.180000", "135729.180000", "135731.180000", "135733.180000", "135735.180000", "135737.180000", "135739.180000", "135741.180000", "135743.180000", "135745.180000", "135747.180000", "135749.180000", "135751.180000", "135753.180000", "135755.180000", "135757.180000", "135759.180000", "135801.180000", "135803.180000", "135805.180000", "135807.180000", "135809.180000", "135811.180000", "135813.180000", "135815.180000", "135817.180000", "135819.180000", "135821.180000", "135823.180000", "135825.180000", "135827.180000", "135829.180000", "135831.180000", "135833.180000", "135835.180000", "135837.180000", "135839.180000", "135841.180000", "135843.180000", "135845.180000", "135847.180000", "135849.180000", "135851.180000", "135853.180000", "135855.180000", "135857.180000", "135859.180000", "135901.180000", "135903.180000", "135905.180000", "135907.180000", "135909.180000", "135911.180000", "135913.180000", "135915.180000", "135917.180000", "135919.180000", "135921.180000", "135923.180000", "135925.180000", "135927.180000", "135929.180000", "135931.180000", "135933.180000", "135935.180000", "135937.180000", "135939.180000", "135941.180000", "135943.180000", "135945.180000", "135947.180000", "135949.180000", "135951.180000", "135953.180000", "135955.180000", "135957.180000", "135959.180000", "140001.180000", "140003.180000", "140005.180000", "140007.180000", "140009.180000", "140011.180000", "140013.180000", "140015.180000", "140017.180000", "140019.180000", "140021.180000", "140023.180000", "140025.180000", "140027.180000", "140029.180000", "140031.180000", "140033.180000", "140035.180000", "140037.180000", "140039.180000", "140041.180000", "140043.180000", "140045.180000", "140047.180000", "140049.180000", "140051.180000", "140053.180000", "140055.180000", "140057.180000", "140059.180000", "140101.180000", "140103.180000", "140105.180000", "140107.180000", "140109.180000", "140111.180000", "140113.180000", "140115.180000", "140117.180000", "140119.180000", "140121.180000", "140123.180000", "140125.180000", "140127.180000", "140129.180000", "140131.180000", "140133.180000", "140135.180000", "140137.180000", "140139.180000", "140141.180000", "140143.180000", "140145.180000", "140147.180000", "140149.180000", "140151.180000"],
      "ContentTime": ["135644.211000", "135645.706000", "135647.707000", "135649.705000", "135651.706000", "135653.705000", "135655.705000", "135657.707000", "135659.707000", "135701.706000", "135703.707000", "135705.706000", "135707.706000", "135709.706000", "135711.706000", "135713.706000", "135715.707000", "135717.707000", "135719.707000", "135721.707000", "135723.707000", "135725.705000", "135727.705000", "135729.705000", "135731.706000", "135733.707000", "135735.706000", "135737.707000", "135739.706000", "135741.706000", "135743.706000", "135745.706000", "135747.705000", "135749.706000", "135751.706000", "135753.706000", "135755.707000", "135757.706000", "135759.705000", "135801.705000", "135803.706000", "135805.706000", "135807.706000", "135809.706000", "135811.707000", "135813.707000", "135815.707000", "135817.705000", "135819.705000", "135821.705000", "135823.705000", "135825.707000", "135827.707000", "135829.707000", "135831.706000", "135833.706000", "135835.706000", "135837.706000", "135839.705000", "135841.706000", "135843.707000", "135845.711000", "135847.706000", "135849.707000", "135851.707000", "135853.705000", "135855.705000", "135857.705000", "135859.706000", "135901.707000", "135903.706000", "135905.707000", "135907.707000", "135909.705000", "135911.705000", "135913.705000", "135915.705000", "135917.707000", "135919.707000", "135921.706000", "135923.706000", "135925.706000", "135927.705000", "135929.706000", "135931.706000", "135933.705000", "135935.707000", "135937.707000", "135939.706000", "135941.706000", "135943.706000", "135945.705000", "135947.705000", "135949.706000", "135951.705000", "135953.707000", "135955.707000", "135957.706000", "135959.706000", "140001.706000", "140003.706000", "140005.706000", "140007.706000", "140009.706000", "140011.707000", "140013.707000", "140015.707000", "140017.706000", "140019.705000", "140021.705000", "140023.705000", "140025.706000", "140027.707000", "140029.707000", "140031.707000", "140033.707000", "140035.707000", "140037.706000", "140039.705000", "140041.706000", "140043.705000", "140045.707000", "140047.707000", "140049.707000", "140051.706000", "140053.707000", "140055.705000", "140057.706000", "140059.705000", "140101.705000", "140103.707000", "140105.707000", "140107.706000", "140109.706000", "140111.707000", "140113.706000", "140115.706000", "140117.706000", "140119.706000", "140121.706000", "140123.706000", "140125.706000", "140127.707000", "140129.706000", "140131.705000", "140133.706000", "140135.705000", "140137.707000", "140139.707000", "140141.706000", "140143.706000", "140145.707000", "140147.706000", "140149.706000", "140151.705000", "140153.425000"],
      "InstanceCreationTime": ["135644.211000", "135645.706000", "135647.707000", "135649.705000", "135651.706000", "135653.705000", "135655.705000", "135657.707000", "135659.707000", "135701.706000", "135703.707000", "135705.706000", "135707.706000", "135709.706000", "135711.706000", "135713.706000", "135715.707000", "135717.707000", "135719.707000", "135721.707000", "135723.707000", "135725.705000", "135727.705000", "135729.705000", "135731.706000", "135733.707000", "135735.706000", "135737.707000", "135739.706000", "135741.706000", "135743.706000", "135745.706000", "135747.705000", "135749.706000", "135751.706000", "135753.706000", "135755.707000", "135757.706000", "135759.705000", "135801.705000", "135803.706000", "135805.706000", "135807.706000", "135809.706000", "135811.707000", "135813.707000", "135815.707000", "135817.705000", "135819.705000", "135821.705000", "135823.705000", "135825.707000", "135827.707000", "135829.707000", "135831.706000", "135833.706000", "135835.706000", "135837.706000", "135839.705000", "135841.706000", "135843.707000", "135845.711000", "135847.706000", "135849.707000", "135851.707000", "135853.705000", "135855.705000", "135857.705000", "135859.706000", "135901.707000", "135903.706000", "135905.707000", "135907.707000", "135909.705000", "135911.705000", "135913.705000", "135915.705000", "135917.707000", "135919.707000", "135921.706000", "135923.706000", "135925.706000", "135927.705000", "135929.706000", "135931.706000", "135933.705000", "135935.707000", "135937.707000", "135939.706000", "135941.706000", "135943.706000", "135945.705000", "135947.705000", "135949.706000", "135951.705000", "135953.707000", "135955.707000", "135957.706000", "135959.706000", "140001.706000", "140003.706000", "140005.706000", "140007.706000", "140009.706000", "140011.707000", "140013.707000", "140015.707000", "140017.706000", "140019.705000", "140021.705000", "140023.705000", "140025.706000", "140027.707000", "140029.707000", "140031.707000", "140033.707000", "140035.707000", "140037.706000", "140039.705000", "140041.706000", "140043.705000", "140045.707000", "140047.707000", "140049.707000", "140051.706000", "140053.707000", "140055.705000", "140057.706000", "140059.705000", "140101.705000", "140103.707000", "140105.707000", "140107.706000", "140109.706000", "140111.707000", "140113.706000", "140115.706000", "140117.706000", "140119.706000", "140121.706000", "140123.706000", "140125.706000", "140127.707000", "140129.706000", "140131.705000", "140133.706000", "140135.705000", "140137.707000", "140139.707000", "140141.706000", "140143.706000", "140145.707000", "140147.706000", "140149.706000", "140151.705000", "140153.425000"],
      "InstanceNumber": [1, 2, 3, 4, 5, 6, 7, 8, 9, 10, 11, 12, 13, 14, 15, 16, 17, 18, 19, 20, 21, 22, 23, 24, 25, 26, 27, 28, 29, 30, 31, 32, 33, 34, 35, 36, 37, 38, 39, 40, 41, 42, 43, 44, 45, 46, 47, 48, 49, 50, 51, 52, 53, 54, 55, 56, 57, 58, 59, 60, 61, 62, 63, 64, 65, 66, 67, 68, 69, 70, 71, 72, 73, 74, 75, 76, 77, 78, 79, 80, 81, 82, 83, 84, 85, 86, 87, 88, 89, 90, 91, 92, 93, 94, 95, 96, 97, 98, 99, 100, 101, 102, 103, 104, 105, 106, 107, 108, 109, 110, 111, 112, 113, 114, 115, 116, 117, 118, 119, 120, 121, 122, 123, 124, 125, 126, 127, 128, 129, 130, 131, 132, 133, 134, 135, 136, 137, 138, 139, 140, 141, 142, 143, 144, 145, 146, 147, 148, 149, 150, 151, 152, 153, 154, 155, 156],
      "LargestImagePixelValue": [3580, 3476, 3477, 3516, 3491, 3487, 3488, 3493, 3552, 3544, 3538, 3607, 3549, 3539, 3583, 3593, 3597, 3583, 3554, 3638, 3592, 3532, 3577, 3609, 3547, 3594, 3583, 3539, 3562, 3479, 3428, 3476, 3473, 3602, 3597, 3585, 3541, 3573, 3614, 3611, 3631, 3614, 3620, 3624, 3605, 3619, 3602, 3603, 3653, 3613, 3609, 3596, 3600, 3596, 3590, 3644, 3630, 3603, 3638, 3618, 3601, 3637, 3613, 3628, 3623, 3623, 3616, 3658, 3627, 3639, 3630, 3626, 3624, 3581, 3544, 3573, 3563, 3596, 3557, 3599, 3561, 3559, 3612, 3570, 3569, 3595, 3587, 3598, 3592, 3597, 3634, 3644, 3588, 3642, 3632, 3626, 3631, 3599, 3635, 3665, 3648, 3654, 3632, 3602, 3656, 3615, 3664, 3624, 3653, 3621, 3639, 3623, 3646, 3607, 3643, 3614, 3611, 3656, 3660, 3610, 3635, 3659, 3639, 3638, 3612, 3592, 3578, 3597, 3590, 3610, 3537, 3561, 3584, 3582, 3586, 3607, 3592, 3589, 3573, 3563, 3611, 3586, 3619, 3562, 3612, 3587, 3588, 3603, 3632, 3599, 3629, 3597, 3640, 3616, 3636, 3636],
      "WindowCenter": [773.0, 771.0, 770.0, 771.0, 770.0, 770.0, 770.0, 771.0, 772.0, 772.0, 773.0, 773.0, 773.0, 773.0, 772.0, 773.0, 773.0, 773.0, 773.0, 773.0, 773.0, 774.0, 773.0, 773.0, 771.0, 771.0, 771.0, 771.0, 772.0, 773.0, 773.0, 771.0, 770.0, 771.0, 771.0, 771.0, 770.0, 771.0, 772.0, 773.0, 773.0, 774.0, 774.0, 773.0, 773.0, 773.0, 773.0, 773.0, 774.0, 773.0, 773.0, 773.0, 773.0, 773.0, 774.0, 774.0, 774.0, 773.0, 773.0, 772.0, 772.0, 772.0, 772.0, 773.0, 773.0, 773.0, 773.0, 774.0, 774.0, 774.0, 773.0, 773.0, 772.0, 772.0, 772.0, 773.0, 772.0, 770.0, 769.0, 769.0, 769.0, 770.0, 771.0, 770.0, 769.0, 771.0, 771.0, 772.0, 772.0, 773.0, 773.0, 772.0, 772.0, 775.0, 775.0, 774.0, 773.0, 773.0, 774.0, 775.0, 775.0, 776.0, 776.0, 776.0, 774.0, 774.0, 773.0, 772.0, 772.0, 771.0, 771.0, 771.0, 771.0, 772.0, 772.0, 773.0, 774.0, 774.0, 773.0, 773.0, 773.0, 775.0, 776.0, 775.0, 775.0, 775.0, 774.0, 773.0, 773.0, 772.0, 771.0, 770.0, 770.0, 770.0, 769.0, 770.0, 771.0, 773.0, 773.0, 772.0, 772.0, 772.0, 772.0, 771.0, 771.0, 771.0, 772.0, 773.0, 774.0, 774.0, 775.0, 775.0, 774.0, 774.0, 774.0, 773.0],
      "WindowWidth": [1706.0, 1700.0, 1698.0, 1701.0, 1697.0, 1696.0, 1698.0, 1701.0, 1703.0, 1703.0, 1706.0, 1708.0, 1705.0, 1706.0, 1704.0, 1705.0, 1705.0, 1705.0, 1705.0, 1706.0, 1708.0, 1709.0, 1707.0, 1706.0, 1702.0, 1701.0, 1700.0, 1700.0, 1704.0, 1707.0, 1705.0, 1699.0, 1697.0, 1701.0, 1699.0, 1700.0, 1698.0, 1701.0, 1705.0, 1705.0, 1706.0, 1709.0, 1709.0, 1708.0, 1708.0, 1707.0, 1706.0, 1706.0, 1709.0, 1707.0, 1707.0, 1706.0, 1706.0, 1708.0, 1709.0, 1709.0, 1708.0, 1707.0, 1706.0, 1704.0, 1703.0, 1703.0, 1703.0, 1706.0, 1706.0, 1708.0, 1707.0, 1711.0, 1708.0, 1710.0, 1707.0, 1706.0, 1704.0, 1705.0, 1704.0, 1706.0, 1703.0, 1699.0, 1695.0, 1695.0, 1696.0, 1698.0, 1699.0, 1698.0, 1696.0, 1699.0, 1701.0, 1703.0, 1703.0, 1706.0, 1706.0, 1704.0, 1705.0, 1712.0, 1712.0, 1710.0, 1707.0, 1707.0, 1711.0, 1713.0, 1711.0, 1715.0, 1717.0, 1714.0, 1710.0, 1708.0, 1707.0, 1705.0, 1702.0, 1700.0, 1699.0, 1699.0, 1701.0, 1703.0, 1705.0, 1708.0, 1708.0, 1710.0, 1707.0, 1706.0, 1708.0, 1713.0, 1714.0, 1713.0, 1711.0, 1711.0, 1710.0, 1706.0, 1705.0, 1703.0, 1700.0, 1698.0, 1696.0, 1696.0, 1695.0, 1698.0, 1701.0, 1705.0, 1705.0, 1703.0, 1703.0, 1703.0, 1702.0, 1701.0, 1700.0, 1700.0, 1702.0, 1707.0, 1710.0, 1711.0, 1712.0, 1711.0, 1711.0, 1709.0, 1708.0, 1705.0]
    },
    "slices": {}
  }
}