{
  "AcquisitionMatrixPE": 100,
  "AcquisitionNumber": 1,
  "AcquisitionTime": "13:32:37.457500",
  "BandwidthPerPixelPhaseEncode": 18.519,
  "BaseResolution": 100,
  "BodyPartExamined": "BRAIN",
  "CoilCombinationMethod": "Sum of Squares",
  "ConsistencyInfo": "N4_VE11C_LATEST_20160120",
  "ConversionSoftware": "dcm2niix",
  "ConversionSoftwareVersion": "v1.0.20211006",
  "DerivedVendorReportedEchoSpacing": 0.000539986,
  "DeviceSerialNumber": "166078",
  "DwellTime": 2.1e-06,
  "EchoTime": 0.034,
  "EchoTrainLength": 100,
  "EffectiveEchoSpacing": 0.000539986,
  "FlipAngle": 90,
  "ImageOrientationPatientDICOM": [1, 4.36014e-05, 0.00027582, 7.18071e-08, 0.987695, -0.156394],
  "ImageOrientationText": "Tra>Cor(-9.0)>Sag(0.0)",
  "ImageType": [
    "ORIGINAL",
    "PRIMARY",
    "M",
    "ND",
    "MOSAIC"
],
  "ImagingFrequency": 123.258,
  "InPlanePhaseEncodingDirectionDICOM": "COL",
  "InstitutionAddress": "Street StreetNo,Bei Jing,District,CN,ZIP",
  "InstitutionName": "BeiJing Normal University",
  "InstitutionalDepartmentName": "Department",
  "MRAcquisitionType": "2D",
  "MagneticFieldStrength": 3,
  "Manufacturer": "Siemens",
  "ManufacturersModelName": "Prisma",
  "Modality": "MR",
  "MultibandAccelerationFactor": 3,
  "PartialFourier": 1,
  "PatientPosition": "HFS",
  "PercentPhaseFOV": 100,
  "PercentSampling": 100,
  "PhaseEncodingDirection": "j-",
  "PhaseEncodingSteps": 100,
  "PhaseResolution": 1,
  "PixelBandwidth": 2380,
  "ProcedureStepDescription": "BNU_P2018_64CH^Zhen.ZongLei",
  "ProtocolName": "bold_100x100_s3_2x2x2_static_156",
  "PulseSequenceDetails": "%SiemensSeq%\\ep2d_bold",
  "ReceiveCoilActiveElements": "HC1-7;NC1",
  "ReceiveCoilName": "HeadNeck_64",
  "ReconMatrixPE": 100,
  "RefLinesPE": 32,
  "RepetitionTime": 2,
  "SAR": 0.0633519,
  "ScanOptions": "FS",
  "ScanningSequence": "EP",
  "SequenceName": "*epfid2d1_100",
  "SequenceVariant": "SK",
  "SeriesDescription": "bold_100x100_s3_2x2x2_static_156",
  "SeriesNumber": 4,
  "ShimSetting": [-5467, -11506, -1245, 455, -62, -283, -102, 109],
  "SliceThickness": 2,
  "SliceTiming": [1.485, 0, 0.99, 0.0825, 1.0725, 0.165, 1.155, 0.2475, 1.2375, 0.33, 1.32, 0.4125, 1.4025, 0.5775, 1.5675, 0.66, 1.65, 0.7425, 1.7325, 0.825, 1.815, 0.9075, 1.8975, 0.495, 1.485, 0, 0.99, 0.0825, 1.0725, 0.165, 1.155, 0.2475, 1.2375, 0.33, 1.32, 0.4125, 1.4025, 0.5775, 1.5675, 0.66, 1.65, 0.7425, 1.7325, 0.825, 1.815, 0.9075, 1.8975, 0.495, 1.485, 0, 0.99, 0.0825, 1.0725, 0.165, 1.155, 0.2475, 1.2375, 0.33, 1.32, 0.4125, 1.4025, 0.5775, 1.5675, 0.66, 1.65, 0.7425, 1.7325, 0.825, 1.815, 0.9075, 1.8975, 0.495],
  "SoftwareVersions": "syngo MR E11",
  "SpacingBetweenSlices": 2,
  "StationName": "AWP166078",
  "TaskName": "action",
  "TotalReadoutTime": 0.0534586,
  "TxRefAmp": 214.139,
  "dcmmeta_affine": [
    [-1.9999998807907104, 1.436142866850787e-07, 0.0005584903992712498, 101.84530639648438],
    [-8.720281766727567e-05, 1.9753894805908203, -0.3127883970737457, -77.54387664794922],
    [0.0005516405217349529, 0.3127884268760681, 1.9753893613815308, -78.04408264160156],
    [0.0, 0.0, 0.0, 1.0]
],
  "dcmmeta_reorient_transform": [
    [0.0, -1.0, 0.0, 99.0],
    [1.0, 0.0, 0.0, 0.0],
    [0.0, 0.0, 1.0, 0.0],
    [0.0, 0.0, 0.0, 1.0]
],
  "dcmmeta_shape": [100, 100, 72, 156],
  "dcmmeta_slice_dim": 2,
  "dcmmeta_version": 0.6,
  "global": {
    "const": {
      "AcquisitionMatrix": [100, 0, 0, 100],
      "AngioFlag": "N",
      "BitsAllocated": 16,
      "BitsStored": 12,
      "BodyPartExamined": "BRAIN",
      "Columns": 900,
      "EchoNumbers": 1,
      "EchoTime": 34.0,
      "EchoTrainLength": 100,
      "FlipAngle": 90.0,
      "HighBit": 11,
      "ImageOrientationPatient": [0.99999996101105, 4.360140967e-05, 0.00027582024815, 7.180714e-08, 0.98769471595002, -0.1563942073237],
      "ImagePositionPatient": [-901.84534451592, -908.21032951105, 77.816679440989],
      "ImageType": [
        "ORIGINAL",
        "PRIMARY",
        "M",
        "ND",
        "MOSAIC"
],
      "ImagedNucleus": "1H",
      "ImagingFrequency": 123.257694,
      "InPlanePhaseEncodingDirection": "COL",
      "MRAcquisitionType": "2D",
      "MagneticFieldStrength": 3.0,
      "Manufacturer": "SIEMENS",
      "ManufacturerModelName": "Prisma",
      "Modality": "MR",
      "NumberOfAverages": 1.0,
      "NumberOfPhaseEncodingSteps": 100,
      "PercentPhaseFieldOfView": 100.0,
      "PercentSampling": 100.0,
      "PerformedProcedureStepStartTime": "132337.977000",
      "PhotometricInterpretation": "MONOCHROME2",
      "PixelBandwidth": 2380.0,
      "PixelRepresentation": 0,
      "PixelSpacing": [2.0, 2.0],
      "ProtocolName": "bold_100x100_s3_2x2x2_static_156",
      "RepetitionTime": 2000.0,
      "Rows": 900,
      "SAR": 0.06335191111307,
      "SamplesPerPixel": 1,
      "ScanOptions": "FS",
      "ScanningSequence": "EP",
      "SequenceName": "*epfid2d1_100",
      "SequenceVariant": "SK",
      "SeriesDescription": "bold_100x100_s3_2x2x2_static_156",
      "SeriesNumber": 4,
      "SeriesTime": "133239.796000",
      "SliceLocation": -64.927872955161,
      "SliceThickness": 2.0,
      "SmallestImagePixelValue": 0,
      "SoftwareVersions": "syngo MR E11",
      "SpacingBetweenSlices": 1.999999991508,
      "SpecificCharacterSet": "ISO_IR 100",
      "StudyID": "1",
      "StudyTime": "132337.914000",
      "TransmitCoilName": "Body",
      "VariableFlipAngleFlag": "N",
      "WindowCenterWidthExplanation": "Algo1",
      "dBdt": 0.0},
    "slices": {}
  },
  "time": {
    "samples": {
      "AcquisitionNumber": [1, 2, 3, 4, 5, 6, 7, 8, 9, 10, 11, 12, 13, 14, 15, 16, 17, 18, 19, 20, 21, 22, 23, 24, 25, 26, 27, 28, 29, 30, 31, 32, 33, 34, 35, 36, 37, 38, 39, 40, 41, 42, 43, 44, 45, 46, 47, 48, 49, 50, 51, 52, 53, 54, 55, 56, 57, 58, 59, 60, 61, 62, 63, 64, 65, 66, 67, 68, 69, 70, 71, 72, 73, 74, 75, 76, 77, 78, 79, 80, 81, 82, 83, 84, 85, 86, 87, 88, 89, 90, 91, 92, 93, 94, 95, 96, 97, 98, 99, 100, 101, 102, 103, 104, 105, 106, 107, 108, 109, 110, 111, 112, 113, 114, 115, 116, 117, 118, 119, 120, 121, 122, 123, 124, 125, 126, 127, 128, 129, 130, 131, 132, 133, 134, 135, 136, 137, 138, 139, 140, 141, 142, 143, 144, 145, 146, 147, 148, 149, 150, 151, 152, 153, 154, 155, 156],
      "AcquisitionTime": ["133237.457500", "133239.457500", "133241.457500", "133243.457500", "133245.457500", "133247.457500", "133249.457500", "133251.457500", "133253.457500", "133255.457500", "133257.457500", "133259.457500", "133301.457500", "133303.457500", "133305.457500", "133307.457500", "133309.457500", "133311.457500", "133313.457500", "133315.457500", "133317.457500", "133319.457500", "133321.457500", "133323.457500", "133325.457500", "133327.457500", "133329.457500", "133331.457500", "133333.457500", "133335.457500", "133337.457500", "133339.457500", "133341.457500", "133343.457500", "133345.457500", "133347.457500", "133349.457500", "133351.457500", "133353.457500", "133355.457500", "133357.457500", "133359.457500", "133401.457500", "133403.457500", "133405.457500", "133407.457500", "133409.457500", "133411.457500", "133413.457500", "133415.457500", "133417.457500", "133419.457500", "133421.457500", "133423.457500", "133425.457500", "133427.457500", "133429.457500", "133431.457500", "133433.457500", "133435.457500", "133437.457500", "133439.457500", "133441.457500", "133443.457500", "133445.457500", "133447.457500", "133449.457500", "133451.457500", "133453.457500", "133455.457500", "133457.457500", "133459.457500", "133501.457500", "133503.457500", "133505.457500", "133507.457500", "133509.457500", "133511.457500", "133513.457500", "133515.457500", "133517.457500", "133519.457500", "133521.457500", "133523.457500", "133525.457500", "133527.457500", "133529.457500", "133531.457500", "133533.457500", "133535.457500", "133537.457500", "133539.457500", "133541.457500", "133543.457500", "133545.457500", "133547.457500", "133549.457500", "133551.457500", "133553.457500", "133555.457500", "133557.457500", "133559.457500", "133601.457500", "133603.457500", "133605.457500", "133607.457500", "133609.457500", "133611.457500", "133613.457500", "133615.457500", "133617.457500", "133619.457500", "133621.457500", "133623.457500", "133625.457500", "133627.457500", "133629.457500", "133631.457500", "133633.457500", "133635.457500", "133637.457500", "133639.457500", "133641.457500", "133643.457500", "133645.457500", "133647.457500", "133649.457500", "133651.457500", "133653.457500", "133655.457500", "133657.457500", "133659.457500", "133701.457500", "133703.457500", "133705.457500", "133707.457500", "133709.457500", "133711.457500", "133713.457500", "133715.457500", "133717.457500", "133719.457500", "133721.457500", "133723.457500", "133725.457500", "133727.457500", "133729.457500", "133731.457500", "133733.457500", "133735.457500", "133737.457500", "133739.457500", "133741.457500", "133743.457500", "133745.457500", "133747.457500"],
      "ContentTime": ["133239.799000", "133241.294000", "133243.295000", "133245.295000", "133247.295000", "133249.295000", "133251.294000", "133253.294000", "133255.294000", "133257.294000", "133259.294000", "133301.294000", "133303.294000", "133305.295000", "133307.295000", "133309.294000", "133311.294000", "133313.294000", "133315.294000", "133317.295000", "133319.294000", "133321.294000", "133323.295000", "133325.295000", "133327.295000", "133329.295000", "133331.295000", "133333.294000", "133335.295000", "133337.294000", "133339.795000", "133341.295000", "133343.295000", "133345.294000", "133347.294000", "133349.294000", "133351.294000", "133353.294000", "133355.294000", "133357.295000", "133359.295000", "133401.295000", "133403.295000", "133405.295000", "133407.295000", "133409.294000", "133411.295000", "133413.295000", "133415.295000", "133417.296000", "133419.295000", "133421.294000", "133423.294000", "133425.294000", "133427.294000", "133429.294000", "133431.295000", "133433.295000", "133435.296000", "133437.294000", "133439.294000", "133441.795000", "133443.295000", "133445.295000", "133447.295000", "133449.295000", "133451.795000", "133453.295000", "133455.294000", "133457.294000", "133459.294000", "133501.294000", "133503.294000", "133505.795000", "133507.295000", "133509.296000", "133511.294000", "133513.294000", "133515.294000", "133517.294000", "133519.294000", "133521.294000", "133523.294000", "133525.296000", "133527.295000", "133529.294000", "133531.295000", "133533.296000", "133535.295000", "133537.295000", "133539.294000", "133541.295000", "133543.295000", "133545.315000", "133547.294000", "133549.295000", "133551.295000", "133553.295000", "133555.295000", "133557.295000", "133559.296000", "133601.296000", "133603.295000", "133605.794000", "133607.794000", "133609.295000", "133611.295000", "133613.295000", "133615.294000", "133617.296000", "133619.296000", "133621.295000", "133623.295000", "133625.295000", "133627.294000", "133629.294000", "133631.295000", "133633.295000", "133635.296000", "133637.295000", "133639.295000", "133641.795000", "133643.295000", "133645.294000", "133647.295000", "133649.294000", "133651.295000", "133653.295000", "133655.296000", "133657.295000", "133659.294000", "133701.295000", "133703.295000", "133705.295000", "133707.295000", "133709.295000", "133711.295000", "133713.296000", "133715.295000", "133717.294000", "133719.294000", "133721.295000", "133723.295000", "133725.295000", "133727.295000", "133729.296000", "133731.295000", "133733.294000", "133735.295000", "133737.294000", "133739.294000", "133741.294000", "133743.295000", "133745.295000", "133747.296000", "133749.202000"],
      "InstanceCreationTime": ["133239.799000", "133241.294000", "133243.295000", "133245.295000", "133247.295000", "133249.295000", "133251.294000", "133253.294000", "133255.294000", "133257.294000", "133259.294000", "133301.294000", "133303.294000", "133305.295000", "133307.295000", "133309.294000", "133311.294000", "133313.294000", "133315.294000", "133317.295000", "133319.294000", "133321.294000", "133323.295000", "133325.295000", "133327.295000", "133329.295000", "133331.295000", "133333.294000", "133335.295000", "133337.294000", "133339.795000", "133341.295000", "133343.295000", "133345.294000", "133347.294000", "133349.294000", "133351.294000", "133353.294000", "133355.294000", "133357.295000", "133359.295000", "133401.295000", "133403.295000", "133405.295000", "133407.295000", "133409.294000", "133411.295000", "133413.295000", "133415.295000", "133417.296000", "133419.295000", "133421.294000", "133423.294000", "133425.294000", "133427.294000", "133429.294000", "133431.295000", "133433.295000", "133435.296000", "133437.294000", "133439.294000", "133441.795000", "133443.295000", "133445.295000", "133447.295000", "133449.295000", "133451.795000", "133453.295000", "133455.294000", "133457.294000", "133459.294000", "133501.294000", "133503.294000", "133505.795000", "133507.295000", "133509.296000", "133511.294000", "133513.294000", "133515.294000", "133517.294000", "133519.294000", "133521.294000", "133523.294000", "133525.296000", "133527.295000", "133529.294000", "133531.295000", "133533.296000", "133535.295000", "133537.295000", "133539.294000", "133541.295000", "133543.295000", "133545.315000", "133547.294000", "133549.295000", "133551.295000", "133553.295000", "133555.295000", "133557.295000", "133559.296000", "133601.296000", "133603.295000", "133605.794000", "133607.794000", "133609.295000", "133611.295000", "133613.295000", "133615.294000", "133617.296000", "133619.296000", "133621.295000", "133623.295000", "133625.295000", "133627.294000", "133629.294000", "133631.295000", "133633.295000", "133635.296000", "133637.295000", "133639.295000", "133641.795000", "133643.295000", "133645.294000", "133647.295000", "133649.294000", "133651.295000", "133653.295000", "133655.296000", "133657.295000", "133659.294000", "133701.295000", "133703.295000", "133705.295000", "133707.295000", "133709.295000", "133711.295000", "133713.296000", "133715.295000", "133717.294000", "133719.294000", "133721.295000", "133723.295000", "133725.295000", "133727.295000", "133729.296000", "133731.295000", "133733.294000", "133735.295000", "133737.294000", "133739.294000", "133741.294000", "133743.295000", "133745.295000", "133747.296000", "133749.202000"],
      "InstanceNumber": [1, 2, 3, 4, 5, 6, 7, 8, 9, 10, 11, 12, 13, 14, 15, 16, 17, 18, 19, 20, 21, 22, 23, 24, 25, 26, 27, 28, 29, 30, 31, 32, 33, 34, 35, 36, 37, 38, 39, 40, 41, 42, 43, 44, 45, 46, 47, 48, 49, 50, 51, 52, 53, 54, 55, 56, 57, 58, 59, 60, 61, 62, 63, 64, 65, 66, 67, 68, 69, 70, 71, 72, 73, 74, 75, 76, 77, 78, 79, 80, 81, 82, 83, 84, 85, 86, 87, 88, 89, 90, 91, 92, 93, 94, 95, 96, 97, 98, 99, 100, 101, 102, 103, 104, 105, 106, 107, 108, 109, 110, 111, 112, 113, 114, 115, 116, 117, 118, 119, 120, 121, 122, 123, 124, 125, 126, 127, 128, 129, 130, 131, 132, 133, 134, 135, 136, 137, 138, 139, 140, 141, 142, 143, 144, 145, 146, 147, 148, 149, 150, 151, 152, 153, 154, 155, 156],
      "LargestImagePixelValue": [3669, 3611, 3566, 3574, 3499, 3566, 3540, 3523, 3573, 3554, 3583, 3608, 3603, 3588, 3552, 3560, 3530, 3542, 3561, 3522, 3501, 3524, 3554, 3602, 3627, 3650, 3603, 3602, 3641, 3628, 3578, 3560, 3558, 3571, 3604, 3648, 3652, 3624, 3609, 3643, 3657, 3659, 3650, 3619, 3595, 3589, 3586, 3617, 3634, 3619, 3620, 3604, 3611, 3644, 3596, 3602, 3603, 3579, 3587, 3638, 3631, 3615, 3634, 3644, 3623, 3633, 3619, 3585, 3603, 3604, 3612, 3637, 3611, 3565, 3626, 3648, 3654, 3653, 3589, 3617, 3598, 3631, 3615, 3609, 3623, 3643, 3604, 3646, 3643, 3568, 3627, 3626, 3572, 3601, 3533, 3610, 3590, 3524, 3518, 3536, 3558, 3530, 3578, 3486, 3517, 3603, 3487, 3496, 3488, 3469, 3531, 3476, 3409, 3485, 3452, 3553, 3469, 3422, 3399, 3397, 3452, 3444, 3444, 3482, 3470, 3435, 3498, 3460, 3478, 3448, 3420, 3386, 3479, 3443, 3471, 3433, 3407, 3425, 3432, 3445, 3497, 3516, 3409, 3430, 3397, 3394, 3437, 3423, 3455, 3488, 3462, 3439, 3472, 3430, 3505, 3468],
      "WindowCenter": [772.0, 769.0, 769.0, 769.0, 768.0, 768.0, 768.0, 769.0, 770.0, 770.0, 769.0, 769.0, 769.0, 770.0, 770.0, 770.0, 769.0, 769.0, 769.0, 769.0, 768.0, 768.0, 769.0, 769.0, 768.0, 769.0, 769.0, 770.0, 770.0, 770.0, 769.0, 769.0, 769.0, 770.0, 770.0, 770.0, 770.0, 770.0, 769.0, 769.0, 769.0, 769.0, 769.0, 768.0, 769.0, 770.0, 770.0, 770.0, 771.0, 770.0, 770.0, 770.0, 769.0, 769.0, 768.0, 769.0, 769.0, 769.0, 769.0, 769.0, 769.0, 769.0, 769.0, 770.0, 770.0, 770.0, 770.0, 770.0, 770.0, 770.0, 770.0, 770.0, 770.0, 771.0, 770.0, 771.0, 771.0, 771.0, 770.0, 769.0, 768.0, 769.0, 769.0, 770.0, 770.0, 769.0, 768.0, 769.0, 769.0, 770.0, 770.0, 770.0, 770.0, 771.0, 771.0, 771.0, 770.0, 770.0, 769.0, 769.0, 769.0, 770.0, 771.0, 769.0, 769.0, 771.0, 769.0, 769.0, 769.0, 770.0, 770.0, 770.0, 769.0, 770.0, 769.0, 769.0, 769.0, 769.0, 769.0, 769.0, 770.0, 771.0, 771.0, 772.0, 772.0, 771.0, 771.0, 771.0, 771.0, 772.0, 771.0, 771.0, 771.0, 771.0, 771.0, 771.0, 770.0, 770.0, 770.0, 770.0, 770.0, 771.0, 770.0, 770.0, 770.0, 770.0, 771.0, 771.0, 771.0, 771.0, 770.0, 770.0, 770.0, 769.0, 769.0, 770.0],
      "WindowWidth": [1708.0, 1699.0, 1699.0, 1697.0, 1694.0, 1694.0, 1695.0, 1697.0, 1699.0, 1698.0, 1697.0, 1697.0, 1697.0, 1699.0, 1699.0, 1699.0, 1698.0, 1696.0, 1697.0, 1696.0, 1694.0, 1695.0, 1696.0, 1696.0, 1695.0, 1696.0, 1697.0, 1700.0, 1701.0, 1699.0, 1696.0, 1697.0, 1696.0, 1699.0, 1699.0, 1700.0, 1700.0, 1700.0, 1697.0, 1697.0, 1697.0, 1697.0, 1696.0, 1694.0, 1696.0, 1699.0, 1700.0, 1701.0, 1702.0, 1701.0, 1700.0, 1698.0, 1697.0, 1696.0, 1694.0, 1695.0, 1698.0, 1697.0, 1695.0, 1696.0, 1697.0, 1697.0, 1697.0, 1699.0, 1698.0, 1700.0, 1700.0, 1700.0, 1699.0, 1698.0, 1698.0, 1700.0, 1701.0, 1701.0, 1699.0, 1701.0, 1701.0, 1703.0, 1698.0, 1697.0, 1694.0, 1696.0, 1696.0, 1700.0, 1699.0, 1697.0, 1694.0, 1696.0, 1698.0, 1698.0, 1698.0, 1698.0, 1699.0, 1701.0, 1701.0, 1701.0, 1700.0, 1699.0, 1695.0, 1695.0, 1698.0, 1700.0, 1701.0, 1696.0, 1696.0, 1701.0, 1695.0, 1696.0, 1696.0, 1698.0, 1700.0, 1699.0, 1697.0, 1698.0, 1694.0, 1697.0, 1695.0, 1695.0, 1694.0, 1695.0, 1698.0, 1700.0, 1702.0, 1705.0, 1704.0, 1701.0, 1702.0, 1700.0, 1702.0, 1703.0, 1701.0, 1700.0, 1700.0, 1702.0, 1701.0, 1700.0, 1697.0, 1698.0, 1699.0, 1697.0, 1698.0, 1701.0, 1698.0, 1699.0, 1697.0, 1699.0, 1701.0, 1701.0, 1702.0, 1702.0, 1700.0, 1699.0, 1697.0, 1694.0, 1696.0, 1697.0]
    },
    "slices": {}
  }
}