{
  "AcquisitionMatrixPE": 100,
  "AcquisitionNumber": 1,
  "AcquisitionTime": "13:26:10.037500",
  "BandwidthPerPixelPhaseEncode": 18.519,
  "BaseResolution": 100,
  "BodyPartExamined": "BRAIN",
  "CoilCombinationMethod": "Sum of Squares",
  "ConsistencyInfo": "N4_VE11C_LATEST_20160120",
  "ConversionSoftware": "dcm2niix",
  "ConversionSoftwareVersion": "v1.0.20211006",
  "DerivedVendorReportedEchoSpacing": 0.000539986,
  "DeviceSerialNumber": "166078",
  "DwellTime": 2.1e-06,
  "EchoTime": 0.034,
  "EchoTrainLength": 100,
  "EffectiveEchoSpacing": 0.000539986,
  "FlipAngle": 90,
  "ImageOrientationPatientDICOM": [1, 4.36014e-05, 0.00027582, 7.18071e-08, 0.987695, -0.156394],
  "ImageOrientationText": "Tra>Cor(-9.0)>Sag(0.0)",
  "ImageType": [
    "ORIGINAL",
    "PRIMARY",
    "M",
    "ND",
    "MOSAIC"
],
  "ImagingFrequency": 123.258,
  "InPlanePhaseEncodingDirectionDICOM": "COL",
  "InstitutionAddress": "Street StreetNo,Bei Jing,District,CN,ZIP",
  "InstitutionName": "BeiJing Normal University",
  "InstitutionalDepartmentName": "Department",
  "MRAcquisitionType": "2D",
  "MagneticFieldStrength": 3,
  "Manufacturer": "Siemens",
  "ManufacturersModelName": "Prisma",
  "Modality": "MR",
  "MultibandAccelerationFactor": 3,
  "PartialFourier": 1,
  "PatientPosition": "HFS",
  "PercentPhaseFOV": 100,
  "PercentSampling": 100,
  "PhaseEncodingDirection": "j-",
  "PhaseEncodingSteps": 100,
  "PhaseResolution": 1,
  "PixelBandwidth": 2380,
  "ProcedureStepDescription": "BNU_P2018_64CH^Zhen.ZongLei",
  "ProtocolName": "bold_100x100_s3_2x2x2_static_156",
  "PulseSequenceDetails": "%SiemensSeq%\\ep2d_bold",
  "ReceiveCoilActiveElements": "HC1-7;NC1",
  "ReceiveCoilName": "HeadNeck_64",
  "ReconMatrixPE": 100,
  "RefLinesPE": 32,
  "RepetitionTime": 2,
  "SAR": 0.0633519,
  "ScanOptions": "FS",
  "ScanningSequence": "EP",
  "SequenceName": "*epfid2d1_100",
  "SequenceVariant": "SK",
  "SeriesDescription": "bold_100x100_s3_2x2x2_static_156",
  "SeriesNumber": 3,
  "ShimSetting": [-5467, -11506, -1245, 455, -62, -283, -102, 109],
  "SliceThickness": 2,
  "SliceTiming": [1.4825, 0, 0.9875, 0.0825, 1.07, 0.165, 1.1525, 0.2475, 1.235, 0.33, 1.3175, 0.4125, 1.4, 0.5775, 1.565, 0.66, 1.6475, 0.7425, 1.73, 0.825, 1.8125, 0.905, 1.895, 0.495, 1.4825, 0, 0.9875, 0.0825, 1.07, 0.165, 1.1525, 0.2475, 1.235, 0.33, 1.3175, 0.4125, 1.4, 0.5775, 1.565, 0.66, 1.6475, 0.7425, 1.73, 0.825, 1.8125, 0.905, 1.895, 0.495, 1.4825, 0, 0.9875, 0.0825, 1.07, 0.165, 1.1525, 0.2475, 1.235, 0.33, 1.3175, 0.4125, 1.4, 0.5775, 1.565, 0.66, 1.6475, 0.7425, 1.73, 0.825, 1.8125, 0.905, 1.895, 0.495],
  "SoftwareVersions": "syngo MR E11",
  "SpacingBetweenSlices": 2,
  "StationName": "AWP166078",
  "TaskName": "action",
  "TotalReadoutTime": 0.0534586,
  "TxRefAmp": 214.139,
  "dcmmeta_affine": [
    [-1.9999998807907104, 1.436142866850787e-07, 0.0005584903992712498, 101.84530639648438],
    [-8.720281766727567e-05, 1.9753894805908203, -0.3127883970737457, -77.54387664794922],
    [0.0005516405217349529, 0.3127884268760681, 1.9753893613815308, -78.04408264160156],
    [0.0, 0.0, 0.0, 1.0]
],
  "dcmmeta_reorient_transform": [
    [0.0, -1.0, 0.0, 99.0],
    [1.0, 0.0, 0.0, 0.0],
    [0.0, 0.0, 1.0, 0.0],
    [0.0, 0.0, 0.0, 1.0]
],
  "dcmmeta_shape": [100, 100, 72, 156],
  "dcmmeta_slice_dim": 2,
  "dcmmeta_version": 0.6,
  "global": {
    "const": {
      "AcquisitionMatrix": [100, 0, 0, 100],
      "AngioFlag": "N",
      "BitsAllocated": 16,
      "BitsStored": 12,
      "BodyPartExamined": "BRAIN",
      "Columns": 900,
      "EchoNumbers": 1,
      "EchoTime": 34.0,
      "EchoTrainLength": 100,
      "FlipAngle": 90.0,
      "HighBit": 11,
      "ImageOrientationPatient": [0.99999996101105, 4.360140967e-05, 0.00027582024815, 7.180714e-08, 0.98769471595002, -0.1563942073237],
      "ImagePositionPatient": [-901.84534451592, -908.21032951105, 77.816679440989],
      "ImageType": [
        "ORIGINAL",
        "PRIMARY",
        "M",
        "ND",
        "MOSAIC"
],
      "ImagedNucleus": "1H",
      "ImagingFrequency": 123.257688,
      "InPlanePhaseEncodingDirection": "COL",
      "MRAcquisitionType": "2D",
      "MagneticFieldStrength": 3.0,
      "Manufacturer": "SIEMENS",
      "ManufacturerModelName": "Prisma",
      "Modality": "MR",
      "NumberOfAverages": 1.0,
      "NumberOfPhaseEncodingSteps": 100,
      "PercentPhaseFieldOfView": 100.0,
      "PercentSampling": 100.0,
      "PerformedProcedureStepStartTime": "132337.977000",
      "PhotometricInterpretation": "MONOCHROME2",
      "PixelBandwidth": 2380.0,
      "PixelRepresentation": 0,
      "PixelSpacing": [2.0, 2.0],
      "ProtocolName": "bold_100x100_s3_2x2x2_static_156",
      "RepetitionTime": 2000.0,
      "Rows": 900,
      "SAR": 0.06335191111307,
      "SamplesPerPixel": 1,
      "ScanOptions": "FS",
      "ScanningSequence": "EP",
      "SequenceName": "*epfid2d1_100",
      "SequenceVariant": "SK",
      "SeriesDescription": "bold_100x100_s3_2x2x2_static_156",
      "SeriesNumber": 3,
      "SeriesTime": "132613.231000",
      "SliceLocation": -64.927872955161,
      "SliceThickness": 2.0,
      "SmallestImagePixelValue": 0,
      "SoftwareVersions": "syngo MR E11",
      "SpacingBetweenSlices": 1.999999991508,
      "SpecificCharacterSet": "ISO_IR 100",
      "StudyID": "1",
      "StudyTime": "132337.914000",
      "TransmitCoilName": "Body",
      "VariableFlipAngleFlag": "N",
      "WindowCenterWidthExplanation": "Algo1",
      "dBdt": 0.0},
    "slices": {}
  },
  "time": {
    "samples": {
      "AcquisitionNumber": [1, 2, 3, 4, 5, 6, 7, 8, 9, 10, 11, 12, 13, 14, 15, 16, 17, 18, 19, 20, 21, 22, 23, 24, 25, 26, 27, 28, 29, 30, 31, 32, 33, 34, 35, 36, 37, 38, 39, 40, 41, 42, 43, 44, 45, 46, 47, 48, 49, 50, 51, 52, 53, 54, 55, 56, 57, 58, 59, 60, 61, 62, 63, 64, 65, 66, 67, 68, 69, 70, 71, 72, 73, 74, 75, 76, 77, 78, 79, 80, 81, 82, 83, 84, 85, 86, 87, 88, 89, 90, 91, 92, 93, 94, 95, 96, 97, 98, 99, 100, 101, 102, 103, 104, 105, 106, 107, 108, 109, 110, 111, 112, 113, 114, 115, 116, 117, 118, 119, 120, 121, 122, 123, 124, 125, 126, 127, 128, 129, 130, 131, 132, 133, 134, 135, 136, 137, 138, 139, 140, 141, 142, 143, 144, 145, 146, 147, 148, 149, 150, 151, 152, 153, 154, 155, 156],
      "AcquisitionTime": ["132610.037500", "132612.037500", "132614.037500", "132616.037500", "132618.037500", "132620.037500", "132622.037500", "132624.037500", "132626.037500", "132628.037500", "132630.037500", "132632.037500", "132634.037500", "132636.037500", "132638.037500", "132640.037500", "132642.037500", "132644.037500", "132646.037500", "132648.037500", "132650.037500", "132652.037500", "132654.037500", "132656.037500", "132658.037500", "132700.037500", "132702.037500", "132704.037500", "132706.037500", "132708.037500", "132710.037500", "132712.037500", "132714.037500", "132716.037500", "132718.037500", "132720.037500", "132722.037500", "132724.037500", "132726.037500", "132728.037500", "132730.037500", "132732.037500", "132734.037500", "132736.037500", "132738.037500", "132740.037500", "132742.037500", "132744.037500", "132746.037500", "132748.037500", "132750.037500", "132752.037500", "132754.037500", "132756.037500", "132758.037500", "132800.037500", "132802.037500", "132804.037500", "132806.037500", "132808.037500", "132810.037500", "132812.037500", "132814.037500", "132816.037500", "132818.037500", "132820.037500", "132822.037500", "132824.037500", "132826.037500", "132828.037500", "132830.037500", "132832.037500", "132834.037500", "132836.037500", "132838.037500", "132840.037500", "132842.037500", "132844.037500", "132846.037500", "132848.037500", "132850.037500", "132852.037500", "132854.037500", "132856.037500", "132858.037500", "132900.037500", "132902.037500", "132904.037500", "132906.037500", "132908.037500", "132910.037500", "132912.037500", "132914.037500", "132916.037500", "132918.037500", "132920.037500", "132922.037500", "132924.037500", "132926.037500", "132928.037500", "132930.037500", "132932.037500", "132934.037500", "132936.037500", "132938.037500", "132940.037500", "132942.037500", "132944.037500", "132946.037500", "132948.037500", "132950.037500", "132952.037500", "132954.037500", "132956.037500", "132958.037500", "133000.037500", "133002.037500", "133004.037500", "133006.037500", "133008.037500", "133010.037500", "133012.037500", "133014.037500", "133016.037500", "133018.037500", "133020.037500", "133022.037500", "133024.037500", "133026.037500", "133028.037500", "133030.037500", "133032.037500", "133034.037500", "133036.037500", "133038.037500", "133040.037500", "133042.037500", "133044.037500", "133046.037500", "133048.037500", "133050.037500", "133052.037500", "133054.037500", "133056.037500", "133058.037500", "133100.037500", "133102.037500", "133104.037500", "133106.037500", "133108.037500", "133110.037500", "133112.037500", "133114.037500", "133116.037500", "133118.037500", "133120.037500"],
      "ContentTime": ["132613.235000", "132614.731000", "132616.731000", "132618.730000", "132620.731000", "132622.731000", "132624.731000", "132626.730000", "132628.731000", "132630.730000", "132632.731000", "132634.731000", "132636.730000", "132638.731000", "132640.731000", "132642.731000", "132644.730000", "132646.731000", "132648.730000", "132650.730000", "132652.731000", "132654.730000", "132656.731000", "132658.731000", "132700.731000", "132702.731000", "132704.730000", "132706.731000", "132708.730000", "132710.731000", "132712.732000", "132714.732000", "132716.732000", "132718.733000", "132720.731000", "132722.731000", "132724.731000", "132726.731000", "132728.731000", "132730.731000", "132732.732000", "132734.732000", "132736.730000", "132738.731000", "132740.730000", "132742.731000", "132744.730000", "132746.730000", "132748.731000", "132750.731000", "132752.732000", "132754.730000", "132756.730000", "132758.731000", "132800.731000", "132802.730000", "132804.730000", "132806.732000", "132808.732000", "132810.731000", "132812.731000", "132814.731000", "132816.730000", "132818.730000", "132820.731000", "132822.730000", "132824.732000", "132826.731000", "132828.732000", "132830.731000", "132832.730000", "132834.731000", "132836.730000", "132838.731000", "132840.730000", "132842.731000", "132844.731000", "132846.730000", "132848.731000", "132850.731000", "132852.730000", "132854.731000", "132856.730000", "132858.731000", "132900.732000", "132902.731000", "132904.731000", "132906.731000", "132908.731000", "132910.731000", "132912.730000", "132914.731000", "132916.732000", "132918.731000", "132920.732000", "132922.730000", "132924.731000", "132926.731000", "132928.731000", "132930.730000", "132932.731000", "132934.731000", "132936.731000", "132938.732000", "132940.730000", "132942.731000", "132944.731000", "132946.731000", "132948.731000", "132950.730000", "132952.732000", "132954.732000", "132956.731000", "132958.731000", "133000.730000", "133002.730000", "133004.730000", "133006.731000", "133008.731000", "133010.731000", "133012.732000", "133014.730000", "133016.731000", "133018.731000", "133020.731000", "133022.731000", "133024.731000", "133026.731000", "133028.731000", "133030.731000", "133032.730000", "133034.731000", "133036.740000", "133038.730000", "133040.730000", "133042.731000", "133044.732000", "133046.732000", "133048.731000", "133050.730000", "133052.731000", "133054.730000", "133056.730000", "133058.731000", "133100.731000", "133102.731000", "133104.732000", "133106.730000", "133108.730000", "133110.731000", "133112.731000", "133114.730000", "133116.731000", "133118.730000", "133120.732000", "133122.367000"],
      "InstanceCreationTime": ["132613.235000", "132614.731000", "132616.731000", "132618.730000", "132620.731000", "132622.731000", "132624.731000", "132626.730000", "132628.731000", "132630.730000", "132632.731000", "132634.731000", "132636.730000", "132638.731000", "132640.731000", "132642.731000", "132644.730000", "132646.731000", "132648.730000", "132650.730000", "132652.731000", "132654.730000", "132656.731000", "132658.731000", "132700.731000", "132702.731000", "132704.730000", "132706.731000", "132708.730000", "132710.731000", "132712.732000", "132714.732000", "132716.732000", "132718.733000", "132720.731000", "132722.731000", "132724.731000", "132726.731000", "132728.731000", "132730.731000", "132732.732000", "132734.732000", "132736.730000", "132738.731000", "132740.730000", "132742.731000", "132744.730000", "132746.730000", "132748.731000", "132750.731000", "132752.732000", "132754.730000", "132756.730000", "132758.731000", "132800.731000", "132802.730000", "132804.730000", "132806.732000", "132808.732000", "132810.731000", "132812.731000", "132814.731000", "132816.730000", "132818.730000", "132820.731000", "132822.730000", "132824.732000", "132826.731000", "132828.732000", "132830.731000", "132832.730000", "132834.731000", "132836.730000", "132838.731000", "132840.730000", "132842.731000", "132844.731000", "132846.730000", "132848.731000", "132850.731000", "132852.730000", "132854.731000", "132856.730000", "132858.731000", "132900.732000", "132902.731000", "132904.731000", "132906.731000", "132908.731000", "132910.731000", "132912.730000", "132914.731000", "132916.732000", "132918.731000", "132920.732000", "132922.730000", "132924.731000", "132926.731000", "132928.731000", "132930.730000", "132932.731000", "132934.731000", "132936.731000", "132938.732000", "132940.730000", "132942.731000", "132944.731000", "132946.731000", "132948.731000", "132950.730000", "132952.732000", "132954.732000", "132956.731000", "132958.731000", "133000.730000", "133002.730000", "133004.730000", "133006.731000", "133008.731000", "133010.731000", "133012.732000", "133014.730000", "133016.731000", "133018.731000", "133020.731000", "133022.731000", "133024.731000", "133026.731000", "133028.731000", "133030.731000", "133032.730000", "133034.731000", "133036.740000", "133038.730000", "133040.730000", "133042.731000", "133044.732000", "133046.732000", "133048.731000", "133050.730000", "133052.731000", "133054.730000", "133056.730000", "133058.731000", "133100.731000", "133102.731000", "133104.732000", "133106.730000", "133108.730000", "133110.731000", "133112.731000", "133114.730000", "133116.731000", "133118.730000", "133120.732000", "133122.367000"],
      "InstanceNumber": [1, 2, 3, 4, 5, 6, 7, 8, 9, 10, 11, 12, 13, 14, 15, 16, 17, 18, 19, 20, 21, 22, 23, 24, 25, 26, 27, 28, 29, 30, 31, 32, 33, 34, 35, 36, 37, 38, 39, 40, 41, 42, 43, 44, 45, 46, 47, 48, 49, 50, 51, 52, 53, 54, 55, 56, 57, 58, 59, 60, 61, 62, 63, 64, 65, 66, 67, 68, 69, 70, 71, 72, 73, 74, 75, 76, 77, 78, 79, 80, 81, 82, 83, 84, 85, 86, 87, 88, 89, 90, 91, 92, 93, 94, 95, 96, 97, 98, 99, 100, 101, 102, 103, 104, 105, 106, 107, 108, 109, 110, 111, 112, 113, 114, 115, 116, 117, 118, 119, 120, 121, 122, 123, 124, 125, 126, 127, 128, 129, 130, 131, 132, 133, 134, 135, 136, 137, 138, 139, 140, 141, 142, 143, 144, 145, 146, 147, 148, 149, 150, 151, 152, 153, 154, 155, 156],
      "LargestImagePixelValue": [3712, 3677, 3604, 3572, 3588, 3539, 3568, 3556, 3581, 3602, 3582, 3595, 3569, 3534, 3560, 3544, 3584, 3542, 3534, 3507, 3504, 3537, 3529, 3550, 3588, 3591, 3528, 3564, 3546, 3532, 3549, 3513, 3517, 3563, 3601, 3562, 3600, 3570, 3565, 3578, 3615, 3595, 3546, 3559, 3516, 3572, 3568, 3582, 3581, 3593, 3597, 3592, 3582, 3644, 3597, 3608, 3578, 3574, 3598, 3567, 3596, 3602, 3571, 3542, 3568, 3563, 3569, 3545, 3615, 3593, 3561, 3588, 3560, 3578, 3594, 3621, 3571, 3585, 3558, 3531, 3565, 3590, 3573, 3619, 3555, 3578, 3602, 3549, 3587, 3577, 3555, 3561, 3564, 3519, 3581, 3585, 3544, 3589, 3534, 3553, 3552, 3520, 3554, 3563, 3496, 3572, 3575, 3496, 3590, 3549, 3516, 3556, 3530, 3526, 3572, 3564, 3519, 3562, 3540, 3520, 3517, 3455, 3409, 3522, 3475, 3554, 3529, 3462, 3503, 3521, 3476, 3536, 3475, 3442, 3461, 3493, 3468, 3462, 3520, 3511, 3499, 3550, 3565, 3443, 3537, 3511, 3432, 3509, 3544, 3471, 3488, 3525, 3465, 3510, 3481, 3523],
      "WindowCenter": [770.0, 768.0, 766.0, 766.0, 767.0, 767.0, 767.0, 768.0, 768.0, 769.0, 769.0, 769.0, 769.0, 770.0, 770.0, 769.0, 769.0, 769.0, 768.0, 767.0, 767.0, 768.0, 769.0, 769.0, 769.0, 769.0, 769.0, 769.0, 769.0, 769.0, 768.0, 766.0, 766.0, 768.0, 769.0, 768.0, 768.0, 769.0, 769.0, 769.0, 768.0, 768.0, 767.0, 768.0, 767.0, 768.0, 768.0, 768.0, 768.0, 768.0, 769.0, 770.0, 769.0, 769.0, 768.0, 767.0, 767.0, 767.0, 767.0, 767.0, 769.0, 769.0, 769.0, 769.0, 769.0, 768.0, 767.0, 766.0, 767.0, 768.0, 767.0, 767.0, 768.0, 768.0, 769.0, 769.0, 769.0, 768.0, 768.0, 768.0, 768.0, 768.0, 769.0, 769.0, 769.0, 769.0, 768.0, 767.0, 768.0, 768.0, 768.0, 769.0, 769.0, 769.0, 769.0, 770.0, 769.0, 769.0, 769.0, 769.0, 769.0, 770.0, 770.0, 770.0, 769.0, 769.0, 769.0, 768.0, 769.0, 769.0, 768.0, 769.0, 768.0, 769.0, 769.0, 768.0, 768.0, 770.0, 770.0, 769.0, 768.0, 767.0, 767.0, 768.0, 769.0, 770.0, 769.0, 768.0, 769.0, 769.0, 769.0, 770.0, 769.0, 769.0, 770.0, 770.0, 770.0, 769.0, 769.0, 769.0, 769.0, 770.0, 770.0, 768.0, 769.0, 769.0, 768.0, 770.0, 770.0, 769.0, 769.0, 769.0, 768.0, 770.0, 770.0, 769.0],
      "WindowWidth": [1703.0, 1695.0, 1690.0, 1690.0, 1692.0, 1692.0, 1692.0, 1693.0, 1694.0, 1696.0, 1698.0, 1698.0, 1698.0, 1700.0, 1701.0, 1698.0, 1698.0, 1697.0, 1694.0, 1691.0, 1691.0, 1695.0, 1697.0, 1698.0, 1698.0, 1698.0, 1696.0, 1696.0, 1696.0, 1697.0, 1693.0, 1689.0, 1689.0, 1694.0, 1697.0, 1695.0, 1696.0, 1697.0, 1698.0, 1697.0, 1694.0, 1693.0, 1692.0, 1693.0, 1692.0, 1694.0, 1694.0, 1694.0, 1693.0, 1694.0, 1696.0, 1699.0, 1697.0, 1696.0, 1694.0, 1691.0, 1691.0, 1692.0, 1692.0, 1692.0, 1695.0, 1698.0, 1698.0, 1696.0, 1695.0, 1694.0, 1691.0, 1687.0, 1690.0, 1692.0, 1691.0, 1691.0, 1692.0, 1695.0, 1696.0, 1697.0, 1695.0, 1694.0, 1693.0, 1692.0, 1693.0, 1694.0, 1695.0, 1697.0, 1696.0, 1695.0, 1694.0, 1691.0, 1693.0, 1693.0, 1694.0, 1695.0, 1696.0, 1695.0, 1697.0, 1698.0, 1696.0, 1697.0, 1696.0, 1696.0, 1697.0, 1698.0, 1698.0, 1698.0, 1694.0, 1696.0, 1696.0, 1692.0, 1696.0, 1694.0, 1693.0, 1695.0, 1694.0, 1696.0, 1697.0, 1694.0, 1694.0, 1699.0, 1699.0, 1696.0, 1693.0, 1689.0, 1689.0, 1693.0, 1694.0, 1697.0, 1695.0, 1693.0, 1694.0, 1695.0, 1695.0, 1697.0, 1696.0, 1696.0, 1698.0, 1698.0, 1697.0, 1696.0, 1695.0, 1694.0, 1695.0, 1699.0, 1698.0, 1693.0, 1694.0, 1694.0, 1693.0, 1697.0, 1698.0, 1696.0, 1695.0, 1695.0, 1693.0, 1697.0, 1697.0, 1695.0]
    },
    "slices": {}
  }
}