{"AcquisitionMatrixPE": 100, "AcquisitionNumber": 1, "AcquisitionTime": "12:06:41.197500", "BaseResolution": 100, "BodyPartExamined": "BRAIN", "CoilCombinationMethod": "Sum of Squares", "ConsistencyInfo": "N4_VE11C_LATEST_20160120", "ConversionSoftware": "dcm2niix", "ConversionSoftwareVersion": "v1.0.20211006", "DeviceSerialNumber": "166078", "DwellTime": 8.8e-06, "EchoNumber": 2, "EchoTime": 0.00738, "EchoTime1": 0.00492, "EchoTime2": 0.00738, "FlipAngle": 60, "ImageOrientationPatientDICOM": [0.997636, 0.0245746, 0.064172, -4.13169e-10, 0.933866, -0.357623], "ImageOrientationText": "Tra>Cor(-21.0)>Sag(3.9)", "ImageType": ["ORIGINAL", "PRIMARY", "P", "ND", "PHASE"], "ImagingFrequency": 123.258, "InPlanePhaseEncodingDirectionDICOM": "ROW", "InstitutionAddress": "Street StreetNo,Bei Jing,District,CN,ZIP", "InstitutionName": "BeiJing Normal University", "InstitutionalDepartmentName": "Department", "MRAcquisitionType": "2D", "MagneticFieldStrength": 3, "Manufacturer": "Siemens", "ManufacturersModelName": "Prisma", "MatrixCoilMode": "SENSE", "Modality": "MR", "PartialFourier": 1, "PatientPosition": "HFS", "PercentPhaseFOV": 100, "PercentSampling": 100, "PhaseEncodingDirection": "i", "PhaseEncodingSteps": 100, "PhaseResolution": 1, "PixelBandwidth": 570, "ProcedureStepDescription": "BNU_P2018_64CH^Zhen.ZongLei", "ProtocolName": "field_mapping_2x2x2", "PulseSequenceDetails": "%SiemensSeq%\\gre_field_mapping", "ReceiveCoilActiveElements": "HC1-7;NC1", "ReceiveCoilName": "HeadNeck_64", "ReconMatrixPE": 100, "RepetitionTime": 0.72, "SAR": 0.120651, "ScanningSequence": "GR", "SequenceName": "*fm2d2r", "SequenceVariant": "SP", "SeriesDescription": "field_mapping_2x2x2", "SeriesNumber": 20, "ShimSetting": [-5435, -11462, -1292, 386, 65, -276, -163, -7], "SliceThickness": 2, "SliceTiming": [0.35938, 0, 0.375, 0.00781, 0.38281, 0.02344, 0.39062, 0.03125, 0.39844, 0.03906, 0.41406, 0.05469, 0.42188, 0.0625, 0.42969, 0.07031, 0.44531, 0.07812, 0.45312, 0.09375, 0.46094, 0.10156, 0.46875, 0.10938, 0.48438, 0.125, 0.49219, 0.13281, 0.5, 0.14062, 0.50781, 0.14844, 0.52344, 0.16406, 0.53125, 0.17188, 0.53906, 0.17969, 0.55469, 0.19531, 0.5625, 0.20312, 0.57031, 0.21094, 0.57812, 0.21875, 0.59375, 0.23438, 0.60156, 0.24219, 0.60938, 0.25, 0.625, 0.25781, 0.63281, 0.27344, 0.64062, 0.28125, 0.64844, 0.28906, 0.66406, 0.30469, 0.67188, 0.3125, 0.67969, 0.32031, 0.69531, 0.32812, 0.70312, 0.34375, 0.71094, 0.35156], "SoftwareVersions": "syngo MR E11", "SpacingBetweenSlices": 2, "StationName": "AWP166078", "TxRefAmp": 228.085, "dcmmeta_affine": [[-1.9952725172042847, -8.263379980277819e-10, 0.13743305206298828, 97.2267074584961], [-0.04914915934205055, 1.867732286453247, -0.7135543823242188, -63.71320724487305], [0.12834396958351135, 0.7152456045150757, 1.8633193969726562, -124.454833984375], [0.0, 0.0, 0.0, 1.0]], "dcmmeta_reorient_transform": [[0.0, -1.0, 0.0, 99.0], [1.0, 0.0, 0.0, 0.0], [0.0, 0.0, -1.0, 71.0], [0.0, 0.0, 0.0, 1.0]], "dcmmeta_shape": [100, 100, 72], "dcmmeta_slice_dim": 2, "dcmmeta_version": 0.6, "global": {"const": {"AcquisitionMatrix": [0, 100, 100, 0], "AcquisitionNumber": 1, "AngioFlag": "N", "BitsAllocated": 16, "BitsStored": 12, "BodyPartExamined": "BRAIN", "Columns": 100, "EchoNumbers": 2, "EchoTime": 7.38, "EchoTrainLength": 0, "FlipAngle": 60.0, "HighBit": 11, "ImageOrientationPatient": [0.99763622928437, 0.02457457996519, 0.06417198796046, -4.13169e-10, 0.93386611500351, -0.3576228170129], "ImageType": ["ORIGINAL", "PRIMARY", "P", "ND"], "ImagedNucleus": "1H", "ImagingFrequency": 123.257774, "InPlanePhaseEncodingDirection": "ROW", "MRAcquisitionType": "2D", "MagneticFieldStrength": 3.0, "Manufacturer": "SIEMENS", "ManufacturerModelName": "Prisma", "Modality": "MR", "NumberOfAverages": 1.0, "NumberOfPhaseEncodingSteps": 100, "PercentPhaseFieldOfView": 100.0, "PercentSampling": 100.0, "PerformedProcedureStepStartTime": "103805.151000", "PhotometricInterpretation": "MONOCHROME2", "PixelBandwidth": 570.0, "PixelRepresentation": 0, "PixelSpacing": [2.0, 2.0], "ProtocolName": "field_mapping_2x2x2", "RepetitionTime": 720.0, "RescaleIntercept": -4096.0, "RescaleSlope": 2.0, "RescaleType": "US", "Rows": 100, "SAR": 0.12065118391968, "SamplesPerPixel": 1, "ScanningSequence": "GR", "SequenceName": "*fm2d2r", "SequenceVariant": "SP", "SeriesDescription": "field_mapping_2x2x2", "SeriesNumber": 20, "SeriesTime": "120906.268000", "SliceThickness": 2.0, "SoftwareVersions": "syngo MR E11", "SpacingBetweenSlices": 2.0, "SpecificCharacterSet": "ISO_IR 100", "StudyID": "1", "StudyTime": "103805.058000", "TransmitCoilName": "Body", "VariableFlipAngleFlag": "N", "WindowCenterWidthExplanation": "Algo1", "dBdt": 0.0}, "slices": {"AcquisitionTime": ["120641.197500", "120640.837500", "120641.207500", "120640.847500", "120641.217500", "120640.857500", "120641.227500", "120640.867500", "120641.237500", "120640.877500", "120641.247500", "120640.887500", "120641.257500", "120640.897500", "120641.267500", "120640.907500", "120641.277500", "120640.917500", "120641.287500", "120640.927500", "120641.297500", "120640.937500", "120641.307500", "120640.947500", "120641.317500", "120640.957500", "120641.327500", "120640.967500", "120641.337500", "120640.977500", "120641.347500", "120640.987500", "120641.357500", "120640.997500", "120641.367500", "120641.007500", "120641.377500", "120641.017500", "120641.387500", "120641.027500", "120641.397500", "120641.037500", "120641.407500", "120641.047500", "120641.417500", "120641.057500", "120641.427500", "120641.067500", "120641.437500", "120641.077500", "120641.447500", "120641.087500", "120641.457500", "120641.097500", "120641.467500", "120641.107500", "120641.477500", "120641.117500", "120641.487500", "120641.127500", "120641.497500", "120641.137500", "120641.507500", "120641.147500", "120641.517500", "120641.157500", "120641.527500", "120641.167500", "120641.537500", "120641.177500", "120641.547500", "120641.187500"], "ContentTime": ["120906.338000", "120906.269000", "120906.340000", "120906.271000", "120906.341000", "120906.273000", "120906.343000", "120906.275000", "120906.345000", "120906.277000", "120906.347000", "120906.279000", "120906.349000", "120906.281000", "120906.351000", "120906.283000", "120906.353000", "120906.285000", "120906.354000", "120906.287000", "120906.356000", "120906.289000", "120906.358000", "120906.291000", "120906.360000", "120906.293000", "120906.362000", "120906.294000", "120906.364000", "120906.296000", "120906.366000", "120906.298000", "120906.368000", "120906.300000", "120906.369000", "120906.302000", "120906.371000", "120906.304000", "120906.373000", "120906.306000", "120906.375000", "120906.308000", "120906.377000", "120906.309000", "120906.379000", "120906.311000", "120906.381000", "120906.313000", "120906.383000", "120906.315000", "120906.385000", "120906.317000", "120906.386000", "120906.319000", "120906.388000", "120906.321000", "120906.390000", "120906.323000", "120906.392000", "120906.324000", "120906.394000", "120906.326000", "120906.396000", "120906.328000", "120906.398000", "120906.330000", "120906.400000", "120906.332000", "120906.402000", "120906.334000", "120906.403000", "120906.336000"], "CsaImage.GSWDDataType": ["measured", "predicted", "measured", "predicted", "measured", "predicted", "measured", "predicted", "measured", "predicted", "measured", "predicted", "measured", "predicted", "measured", "predicted", "measured", "predicted", "measured", "predicted", "measured", "predicted", "measured", "predicted", "measured", "predicted", "measured", "predicted", "measured", "predicted", "measured", "predicted", "measured", "predicted", "measured", "predicted", "measured", "predicted", "measured", "predicted", "measured", "predicted", "measured", "predicted", "measured", "predicted", "measured", "predicted", "measured", "predicted", "measured", "predicted", "measured", "predicted", "measured", "predicted", "measured", "predicted", "measured", "predicted", "measured", "measured", "measured", "measured", "measured", "measured", "measured", "measured", "measured", "measured", "measured", "measured"], "CsaImage.ICE_Dims": ["X_2_1_1_1_1_1_37_1_1_1_1_120", "X_2_1_1_1_1_1_1_1_1_2_1_120", "X_2_1_1_1_1_1_38_1_1_3_1_120", "X_2_1_1_1_1_1_2_1_1_4_1_120", "X_2_1_1_1_1_1_39_1_1_5_1_120", "X_2_1_1_1_1_1_3_1_1_6_1_120", "X_2_1_1_1_1_1_40_1_1_7_1_120", "X_2_1_1_1_1_1_4_1_1_8_1_120", "X_2_1_1_1_1_1_41_1_1_9_1_120", "X_2_1_1_1_1_1_5_1_1_10_1_120", "X_2_1_1_1_1_1_42_1_1_11_1_120", "X_2_1_1_1_1_1_6_1_1_12_1_120", "X_2_1_1_1_1_1_43_1_1_13_1_120", "X_2_1_1_1_1_1_7_1_1_14_1_120", "X_2_1_1_1_1_1_44_1_1_15_1_120", "X_2_1_1_1_1_1_8_1_1_16_1_120", "X_2_1_1_1_1_1_45_1_1_17_1_120", "X_2_1_1_1_1_1_9_1_1_18_1_120", "X_2_1_1_1_1_1_46_1_1_19_1_120", "X_2_1_1_1_1_1_10_1_1_20_1_120", "X_2_1_1_1_1_1_47_1_1_21_1_120", "X_2_1_1_1_1_1_11_1_1_22_1_120", "X_2_1_1_1_1_1_48_1_1_23_1_120", "X_2_1_1_1_1_1_12_1_1_24_1_120", "X_2_1_1_1_1_1_49_1_1_25_1_120", "X_2_1_1_1_1_1_13_1_1_26_1_120", "X_2_1_1_1_1_1_50_1_1_27_1_120", "X_2_1_1_1_1_1_14_1_1_28_1_120", "X_2_1_1_1_1_1_51_1_1_29_1_120", "X_2_1_1_1_1_1_15_1_1_30_1_120", "X_2_1_1_1_1_1_52_1_1_31_1_120", "X_2_1_1_1_1_1_16_1_1_32_1_120", "X_2_1_1_1_1_1_53_1_1_33_1_120", "X_2_1_1_1_1_1_17_1_1_34_1_120", "X_2_1_1_1_1_1_54_1_1_35_1_120", "X_2_1_1_1_1_1_18_1_1_36_1_120", "X_2_1_1_1_1_1_55_1_1_37_1_120", "X_2_1_1_1_1_1_19_1_1_38_1_120", "X_2_1_1_1_1_1_56_1_1_39_1_120", "X_2_1_1_1_1_1_20_1_1_40_1_120", "X_2_1_1_1_1_1_57_1_1_41_1_120", "X_2_1_1_1_1_1_21_1_1_42_1_120", "X_2_1_1_1_1_1_58_1_1_43_1_120", "X_2_1_1_1_1_1_22_1_1_44_1_120", "X_2_1_1_1_1_1_59_1_1_45_1_120", "X_2_1_1_1_1_1_23_1_1_46_1_120", "X_2_1_1_1_1_1_60_1_1_47_1_120", "X_2_1_1_1_1_1_24_1_1_48_1_120", "X_2_1_1_1_1_1_61_1_1_49_1_120", "X_2_1_1_1_1_1_25_1_1_50_1_120", "X_2_1_1_1_1_1_62_1_1_51_1_120", "X_2_1_1_1_1_1_26_1_1_52_1_120", "X_2_1_1_1_1_1_63_1_1_53_1_120", "X_2_1_1_1_1_1_27_1_1_54_1_120", "X_2_1_1_1_1_1_64_1_1_55_1_120", "X_2_1_1_1_1_1_28_1_1_56_1_120", "X_2_1_1_1_1_1_65_1_1_57_1_120", "X_2_1_1_1_1_1_29_1_1_58_1_120", "X_2_1_1_1_1_1_66_1_1_59_1_120", "X_2_1_1_1_1_1_30_1_1_60_1_120", "X_2_1_1_1_1_1_67_1_1_61_1_120", "X_2_1_1_1_1_1_31_1_1_62_1_120", "X_2_1_1_1_1_1_68_1_1_63_1_120", "X_2_1_1_1_1_1_32_1_1_64_1_120", "X_2_1_1_1_1_1_69_1_1_65_1_120", "X_2_1_1_1_1_1_33_1_1_66_1_120", "X_2_1_1_1_1_1_70_1_1_67_1_120", "X_2_1_1_1_1_1_34_1_1_68_1_120", "X_2_1_1_1_1_1_71_1_1_69_1_120", "X_2_1_1_1_1_1_35_1_1_70_1_120", "X_2_1_1_1_1_1_72_1_1_71_1_120", "X_2_1_1_1_1_1_36_1_1_72_1_120"], "CsaImage.ProtocolSliceNumber": [0, 1, 2, 3, 4, 5, 6, 7, 8, 9, 10, 11, 12, 13, 14, 15, 16, 17, 18, 19, 20, 21, 22, 23, 24, 25, 26, 27, 28, 29, 30, 31, 32, 33, 34, 35, 36, 37, 38, 39, 40, 41, 42, 43, 44, 45, 46, 47, 48, 49, 50, 51, 52, 53, 54, 55, 56, 57, 58, 59, 60, 61, 62, 63, 64, 65, 66, 67, 68, 69, 70, 71], "CsaImage.RFSWDDataType": ["measured", "predicted", "measured", "predicted", "measured", "predicted", "measured", "predicted", "measured", "predicted", "measured", "predicted", "measured", "predicted", "measured", "predicted", "measured", "predicted", "measured", "predicted", "measured", "predicted", "measured", "predicted", "measured", "predicted", "measured", "predicted", "measured", "predicted", "measured", "predicted", "measured", "predicted", "measured", "predicted", "measured", "predicted", "measured", "predicted", "measured", "predicted", "measured", "predicted", "measured", "predicted", "measured", "predicted", "measured", "predicted", "measured", "predicted", "measured", "predicted", "measured", "predicted", "measured", "predicted", "measured", "measured", "measured", "measured", "measured", "measured", "measured", "measured", "measured", "measured", "measured", "measured", "measured", "measured"], "CsaImage.SlicePosition_PCS": [[-97.22671545, -121.19232656, -53.64536509], [-97.36414827, -120.47877218, -51.78205333], [-97.50158132, -119.76521589, -49.91873393], [-97.63901413, -119.05166151, -48.05541453], [-97.77644718, -118.33810713, -46.19210276], [-97.91388012, -117.62455084, -44.32878337], [-98.05131305, -116.91099645, -42.46546397], [-98.18874598, -116.19744207, -40.60214457], [-98.32617892, -115.48388578, -38.73883281], [-98.46361185, -114.7703314, -36.87551341], [-98.60104478, -114.05677702, -35.01219401], [-98.73847771, -113.34322073, -33.14887843], [-98.87591071, -112.62966634, -31.28555903], [-99.01334364, -111.91611196, -29.42224345], [-99.15077663, -111.20255663, -27.55892405], [-99.28820956, -110.48900129, -25.69560847], [-99.4256425, -109.77544691, -23.83229289], [-99.56307546, -109.06189157, -21.96897349], [-99.7005084, -108.34833624, -20.10565791], [-99.83794135, -107.63478185, -18.24233851], [-99.9753743, -106.92122652, -16.37902293], [-100.11280725, -106.20767118, -14.51570353], [-100.25024018, -105.4941168, -12.65238795], [-100.38767315, -104.78056146, -10.78906855], [-100.52510608, -104.06700613, -8.92575297], [-100.66253901, -103.35345174, -7.06243357], [-100.79997195, -102.63989641, -5.19911799], [-100.93740488, -101.92634155, -3.33580241], [-101.07483793, -101.21278669, -1.47248301], [-101.21227086, -100.49923135, 0.39083448], [-101.3497038, -99.7856765, 2.25415197], [-101.48713673, -99.07212164, 4.11746946], [-101.62456966, -98.35856654, 5.98078504], [-101.76200259, -97.64501156, 7.84410253], [-101.89943565, -96.93145658, 9.70742002], [-102.03686846, -96.21790154, 11.57073751], [-102.17430151, -95.50434654, 13.434055], [-102.31173433, -94.79079153, 15.29737249], [-102.44916738, -94.07723655, 17.16068998], [-102.58660019, -93.36368157, 19.02400747], [-102.72403324, -92.65012647, 20.88732496], [-102.8614663, -91.93657161, 22.75064197], [-102.99889911, -91.22301675, 24.61395898], [-103.13633216, -90.50946142, 26.47727647], [-103.27376498, -89.79590656, 28.34059384], [-103.41119803, -89.0823517, 30.20391115], [-103.54863084, -88.36879636, 32.06722846], [-103.68606389, -87.65524198, 33.93054595], [-103.82349694, -86.94168665, 35.79386297], [-103.96093, -86.22813131, 37.65718045], [-104.09836257, -85.51457693, 39.52049794], [-104.23579562, -84.80102159, 41.38381543], [-104.37322868, -84.08746626, 43.24713197], [-104.51066173, -83.37391187, 45.11044946], [-104.6480943, -82.66035654, 46.9737679], [-104.78552736, -81.9468012, 48.83708349], [-104.92296041, -81.23324682, 50.70040097], [-105.06039346, -80.51969148, 52.56371846], [-105.19782651, -79.80613615, 54.42703595], [-105.33525909, -79.09258176, 56.29035344], [-105.47269214, -78.37902738, 58.15367093], [-105.61012519, -77.66547109, 60.01698842], [-105.74755824, -76.95191671, 61.88030401], [-105.88499082, -76.23836233, 63.7436234], [-106.02242387, -75.52480604, 65.60693898], [-106.15985692, -74.81125166, 67.47025838], [-106.29728997, -74.09769727, 69.33357396], [-106.43472303, -73.38414098, 71.19689336], [-106.5721556, -72.6705866, 73.06020894], [-106.70958865, -71.95703222, 74.92352834], [-106.84702171, -71.24347593, 76.78684392], [-106.98445476, -70.52992155, 78.65016332]], "CsaImage.TimeAfterStart": [1.0825, 0.7225, 1.0925, 0.7325, 1.1025, 0.7425, 1.1125, 0.7525, 1.1225, 0.7625, 1.1325, 0.7725, 1.1425, 0.7825, 1.1525, 0.7925, 1.1625, 0.8025, 1.1725, 0.8125, 1.1825, 0.8225, 1.1925, 0.8325, 1.2025, 0.8425, 1.2125, 0.8525, 1.2225, 0.8625, 1.2325, 0.8725, 1.2425, 0.8825, 1.2525, 0.8925, 1.2625, 0.9025, 1.2725, 0.9125, 1.2825, 0.9225, 1.2925, 0.9325, 1.3025, 0.9425, 1.3125, 0.9525, 1.3225, 0.9625, 1.3325, 0.9725, 1.3425, 0.9825, 1.3525, 0.9925, 1.3625, 1.0025, 1.3725, 1.0125, 1.3825, 1.0225, 1.3925, 1.0325, 1.4025, 1.0425, 1.4125, 1.0525, 1.4225, 1.0625, 1.4325, 1.0725], "ImagePositionPatient": [[-97.226715452657, -121.19232656169, -53.645365092802], [-97.364148266301, -120.47877217936, -51.782053325224], [-97.501581318364, -119.76521588969, -49.918733928251], [-97.639014132008, -119.05166150737, -48.055414531278], [-97.776447184071, -118.33810712504, -46.1921027637], [-97.913880116925, -117.62455083537, -44.328783366728], [-98.051313049779, -116.91099645305, -42.465463969755], [-98.188745982632, -116.19744207072, -40.602144572782], [-98.326178915486, -115.48388578105, -38.738832805204], [-98.46361184834, -114.77033139873, -36.875513408232], [-98.601044781194, -114.0567770164, -35.012194011259], [-98.738477714047, -113.34322072673, -33.148878428984], [-98.875910706506, -112.6296663444, -31.285559032011], [-99.013343639359, -111.91611196208, -29.422243449735], [-99.150776631818, -111.20255662608, -27.558924052763], [-99.288209564671, -110.48900129008, -25.695608470487], [-99.425642497525, -109.77544690776, -23.832292888212], [-99.563075460181, -109.06189157176, -21.968973491239], [-99.700508400485, -108.34833623576, -20.105657908964], [-99.83794134824, -107.63478185344, -18.242338511991], [-99.975374303446, -106.92122651744, -16.379022929716], [-100.1128072512, -106.20767118144, -14.515703532743], [-100.25024018405, -105.49411679912, -12.652387950468], [-100.38767314671, -104.78056146312, -10.789068553495], [-100.52510607956, -104.06700612712, -8.9257529712198], [-100.66253901242, -103.35345174479, -7.0624335742472], [-100.79997194527, -102.6398964088, -5.1991179919718], [-100.93740487813, -101.92634154963, -3.3358024096964], [-101.07483793019, -101.21278669047, -1.4724830127237], [-101.21227086304, -100.49923135447, 0.39083447690027], [-101.3497037959, -99.785676495313, 2.2541519665243], [-101.48713672875, -99.072121636152, 4.1174694561483], [-101.6245696616, -98.358566538572, 5.9807850384237], [-101.76200259446, -97.645011560201, 7.8441025280477], [-101.89943564652, -96.931456581831, 9.7074200176718], [-102.03686846016, -96.217901543855, 11.570737507296], [-102.17430151223, -95.504346535682, 13.43405499692], [-102.31173432587, -94.790791527509, 15.297372486544], [-102.44916737793, -94.077236549139, 17.160689976168], [-102.58660019158, -93.363681570768, 19.024007465792], [-102.72403324364, -92.650126473188, 20.887324955416], [-102.8614662957, -91.936571614027, 22.750641968203], [-102.99889910935, -91.223016754865, 24.61395898099], [-103.13633216141, -90.509461418867, 26.477276470614], [-103.27376497506, -89.795906559705, 28.340593841028], [-103.41119802712, -89.082351700544, 30.203911151838], [-103.54863084076, -88.368796364545, 32.067228462649], [-103.68606389283, -87.655241982221, 33.930545952273], [-103.82349694489, -86.941686646223, 35.793862965059], [-103.96092999695, -86.228131310224, 37.657180454683], [-104.09836257218, -85.5145769279, 39.520497944308], [-104.23579562424, -84.801021591901, 41.383815433932], [-104.3732286763, -84.087466255903, 43.247131969881], [-104.51066172837, -83.373911873579, 45.110449459505], [-104.64809430359, -82.66035653758, 46.973767902804], [-104.78552735566, -81.946801201582, 48.837083485079], [-104.92296040772, -81.233246819257, 50.700400974703], [-105.06039345978, -80.519691483259, 52.563718464327], [-105.19782651185, -79.80613614726, 54.427035953951], [-105.33525908707, -79.092581764936, 56.290353443575], [-105.47269213913, -78.379027382612, 58.153670933199], [-105.6101251912, -77.665471092939, 60.016988422823], [-105.74755824326, -76.951916710615, 61.880304005099], [-105.88499081849, -76.238362328291, 63.743623402071], [-106.02242387055, -75.524806038618, 65.606938984347], [-106.15985692261, -74.811251656293, 67.470258381319], [-106.29728997468, -74.097697273969, 69.333573963595], [-106.43472302674, -73.384140984296, 71.196893360567], [-106.57215560196, -72.670586601972, 73.060208942843], [-106.70958865403, -71.957032219648, 74.923528339815], [-106.84702170609, -71.243475929975, 76.786843922091], [-106.98445475815, -70.529921547651, 78.650163319063]], "InstanceCreationTime": ["120906.338000", "120906.269000", "120906.340000", "120906.271000", "120906.341000", "120906.273000", "120906.343000", "120906.275000", "120906.345000", "120906.277000", "120906.347000", "120906.279000", "120906.349000", "120906.281000", "120906.351000", "120906.283000", "120906.353000", "120906.285000", "120906.354000", "120906.287000", "120906.356000", "120906.289000", "120906.358000", "120906.291000", "120906.360000", "120906.293000", "120906.362000", "120906.294000", "120906.364000", "120906.296000", "120906.366000", "120906.298000", "120906.368000", "120906.300000", "120906.369000", "120906.302000", "120906.371000", "120906.304000", "120906.373000", "120906.306000", "120906.375000", "120906.308000", "120906.377000", "120906.309000", "120906.379000", "120906.311000", "120906.381000", "120906.313000", "120906.383000", "120906.315000", "120906.385000", "120906.317000", "120906.386000", "120906.319000", "120906.388000", "120906.321000", "120906.390000", "120906.323000", "120906.392000", "120906.324000", "120906.394000", "120906.326000", "120906.396000", "120906.328000", "120906.398000", "120906.330000", "120906.400000", "120906.332000", "120906.402000", "120906.334000", "120906.403000", "120906.336000"], "InstanceNumber": [1, 2, 3, 4, 5, 6, 7, 8, 9, 10, 11, 12, 13, 14, 15, 16, 17, 18, 19, 20, 21, 22, 23, 24, 25, 26, 27, 28, 29, 30, 31, 32, 33, 34, 35, 36, 37, 38, 39, 40, 41, 42, 43, 44, 45, 46, 47, 48, 49, 50, 51, 52, 53, 54, 55, 56, 57, 58, 59, 60, 61, 62, 63, 64, 65, 66, 67, 68, 69, 70, 71, 72], "LargestImagePixelValue": [4095, 4094, 4094, 4094, 4094, 4092, 4094, 4095, 4095, 4095, 4095, 4095, 4094, 4093, 4095, 4095, 4094, 4095, 4093, 4094, 4095, 4095, 4092, 4094, 4092, 4090, 4094, 4090, 4093, 4094, 4093, 4094, 4093, 4094, 4094, 4092, 4094, 4092, 4083, 4093, 4090, 4092, 4093, 4093, 4094, 4091, 4088, 4095, 4089, 4095, 4088, 4092, 4091, 4095, 4094, 4093, 4089, 4094, 4094, 4095, 4094, 4094, 4094, 4092, 4095, 4095, 4095, 4093, 4094, 4094, 4094, 4095], "SliceLocation": [-86.536784956021, -84.53679036153, -82.536787962165, -80.536786259682, -78.536791648808, -76.536789257635, -74.53678754696, -72.536785836286, -70.536790553105, -68.53678884243, -66.536787131756, -64.536788294579, -62.536786579809, -60.53678842313, -58.536786368111, -56.536787871183, -54.536789714504, -52.536787661533, -50.536789164093, -48.536787452394, -46.536788953931, -44.536786901983, -42.536788745304, -40.536786692333, -38.536788195405, -36.536786484731, -34.536787987803, -32.536789661, -30.536787772009, -28.536787498083, -26.536787394282, -24.536787290481, -22.536788878615, -20.536788732283, -18.536788577759, -16.536788418353, -14.536788253196, -12.536788104423, -10.536787949899, -8.5367878117583, -6.5367876147032, -4.5367879469599, -2.5367882956, -0.5367880134825, 1.4632119710646, 3.4632119164638, 5.4632120156044, 7.4632119574724, 9.4632117953404, 11.463212077458, 13.463211986559, 15.463212268677, 17.463211662295, 19.463211604163, 21.463212742013, 23.463211247133, 25.463211189001, 27.463211471118, 29.463211753236, 31.463211662337, 33.463211604205, 35.463212226572, 37.463210391442, 39.463212077541, 41.46321092291, 43.463212641776, 45.463210806646, 47.463213206011, 49.463211338115, 51.463213056981, 53.46321190235, 55.463213621216], "SmallestImagePixelValue": [0, 3, 0, 0, 0, 0, 0, 0, 1, 0, 2, 0, 1, 1, 0, 0, 2, 0, 0, 3, 0, 0, 0, 5, 0, 6, 1, 3, 1, 2, 1, 1, 0, 7, 4, 5, 2, 0, 0, 9, 1, 13, 5, 0, 0, 0, 0, 4, 4, 0, 4, 0, 2, 2, 0, 0, 0, 0, 1, 0, 0, 0, 0, 0, 0, 0, 0, 0, 0, 0, 0, 0], "WindowCenter": [-216.0, -248.0, -260.0, -266.0, -228.0, -192.0, -148.0, -100.0, -198.0, -212.0, -168.0, -240.0, -230.0, -246.0, -214.0, -314.0, -314.0, -360.0, -368.0, -476.0, -454.0, -550.0, -504.0, -498.0, -334.0, -412.0, -384.0, -320.0, -160.0, -276.0, -94.0, -104.0, -226.0, -108.0, -122.0, -94.0, -224.0, -86.0, -92.0, -76.0, -98.0, -102.0, -180.0, -56.0, -30.0, -140.0, -134.0, -122.0, -128.0, -144.0, -158.0, -198.0, -206.0, -78.0, -238.0, -248.0, -236.0, -234.0, -242.0, -240.0, -144.0, -116.0, -138.0, -162.0, -188.0, -202.0, -250.0, -244.0, -224.0, -282.0, -300.0, -302.0], "WindowWidth": [6428.0, 6330.0, 6356.0, 6348.0, 6406.0, 6438.0, 6440.0, 6450.0, 6378.0, 6442.0, 6418.0, 6282.0, 6266.0, 6120.0, 6148.0, 5992.0, 6032.0, 5876.0, 5870.0, 5862.0, 5692.0, 4788.0, 4754.0, 4704.0, 5312.0, 4634.0, 4642.0, 4626.0, 5248.0, 4622.0, 5316.0, 5252.0, 4622.0, 5192.0, 5116.0, 5274.0, 4600.0, 5182.0, 5156.0, 5252.0, 5040.0, 4958.0, 4560.0, 4968.0, 5042.0, 4534.0, 4524.0, 4514.0, 4524.0, 4542.0, 4554.0, 4588.0, 4600.0, 5232.0, 4636.0, 4646.0, 4648.0, 4652.0, 4672.0, 4702.0, 5188.0, 5420.0, 5366.0, 5570.0, 5650.0, 5806.0, 5900.0, 5950.0, 6032.0, 5980.0, 6034.0, 6026.0]}}, "IntendedFor": ["ses-action01/func/sub-15_ses-action01_task-action_run-07_bold.nii.gz", "ses-action01/func/sub-15_ses-action01_task-action_run-08_bold.nii.gz", "ses-action01/func/sub-15_ses-action01_task-action_run-05_bold.nii.gz", "ses-action01/func/sub-15_ses-action01_task-action_run-03_bold.nii.gz", "ses-action01/func/sub-15_ses-action01_task-action_run-11_bold.nii.gz", "ses-action01/func/sub-15_ses-action01_task-action_run-01_bold.nii.gz", "ses-action01/func/sub-15_ses-action01_task-action_run-12_bold.nii.gz", "ses-action01/func/sub-15_ses-action01_task-action_run-02_bold.nii.gz", "ses-action01/func/sub-15_ses-action01_task-action_run-10_bold.nii.gz", "ses-action01/func/sub-15_ses-action01_task-action_run-09_bold.nii.gz", "ses-action01/func/sub-15_ses-action01_task-action_run-06_bold.nii.gz", "ses-action01/func/sub-15_ses-action01_task-action_run-04_bold.nii.gz"]}