{"AcquisitionMatrixPE": 100, "AcquisitionNumber": 1, "AcquisitionTime": "16:41:45.827500", "BaseResolution": 100, "BodyPartExamined": "BRAIN", "CoilCombinationMethod": "Sum of Squares", "ConsistencyInfo": "N4_VE11C_LATEST_20160120", "ConversionSoftware": "dcm2niix", "ConversionSoftwareVersion": "v1.0.20211006", "DeviceSerialNumber": "166078", "DwellTime": 8.8e-06, "EchoNumber": 2, "EchoTime": 0.00738, "EchoTime1": 0.00492, "EchoTime2": 0.00738, "FlipAngle": 60, "ImageOrientationPatientDICOM": [1, 4.719e-12, -1.309e-12, -4.897e-12, 0.96363, -0.267238], "ImageOrientationText": "Tra>Cor(-15.5)", "ImageType": ["ORIGINAL", "PRIMARY", "P", "ND", "PHASE"], "ImagingFrequency": 123.258, "InPlanePhaseEncodingDirectionDICOM": "ROW", "InstitutionAddress": "Street StreetNo,Bei Jing,District,CN,ZIP", "InstitutionName": "BeiJing Normal University", "InstitutionalDepartmentName": "Department", "MRAcquisitionType": "2D", "MagneticFieldStrength": 3, "Manufacturer": "Siemens", "ManufacturersModelName": "Prisma", "MatrixCoilMode": "SENSE", "Modality": "MR", "PartialFourier": 1, "PatientPosition": "HFS", "PercentPhaseFOV": 100, "PercentSampling": 100, "PhaseEncodingDirection": "i", "PhaseEncodingSteps": 100, "PhaseResolution": 1, "PixelBandwidth": 570, "ProcedureStepDescription": "BNU_P2018_64CH^Zhen.ZongLei", "ProtocolName": "field_mapping_2x2x2", "PulseSequenceDetails": "%SiemensSeq%\\gre_field_mapping", "ReceiveCoilActiveElements": "HC1-7;NC1", "ReceiveCoilName": "HeadNeck_64", "ReconMatrixPE": 100, "RepetitionTime": 0.72, "SAR": 0.111072, "ScanningSequence": "GR", "SequenceName": "*fm2d2r", "SequenceVariant": "SP", "SeriesDescription": "field_mapping_2x2x2", "SeriesNumber": 10, "ShimSetting": [-5460, -11527, -1257, 402, -8, -337, -117, 36], "SliceThickness": 2, "SliceTiming": [0.35938, 0, 0.375, 0.01562, 0.375, 0.01562, 0.39062, 0.03125, 0.40625, 0.03125, 0.40625, 0.04688, 0.42188, 0.0625, 0.42188, 0.0625, 0.4375, 0.07812, 0.45312, 0.09375, 0.45312, 0.09375, 0.46875, 0.10938, 0.48438, 0.125, 0.48438, 0.125, 0.5, 0.14062, 0.51562, 0.15625, 0.51562, 0.15625, 0.53125, 0.17188, 0.53125, 0.17188, 0.54688, 0.1875, 0.5625, 0.20312, 0.5625, 0.20312, 0.57812, 0.21875, 0.59375, 0.23438, 0.59375, 0.23438, 0.60938, 0.25, 0.625, 0.26562, 0.625, 0.26562, 0.64062, 0.28125, 0.65625, 0.28125, 0.65625, 0.29688, 0.67188, 0.3125, 0.67188, 0.3125, 0.6875, 0.32812, 0.70312, 0.34375, 0.70312, 0.34375], "SoftwareVersions": "syngo MR E11", "SpacingBetweenSlices": 2, "StationName": "AWP166078", "TxRefAmp": 212.816, "dcmmeta_affine": [[-2.0, -9.79399981254625e-12, 0.0, 100.0], [-9.43799986080629e-12, 1.9272608757019043, -0.5344772338867188, -71.66036987304688], [-2.618000000814691e-12, 0.5344767570495605, 1.9272613525390625, -91.50788116455078], [0.0, 0.0, 0.0, 1.0]], "dcmmeta_reorient_transform": [[0.0, -1.0, 0.0, 99.0], [1.0, 0.0, 0.0, 0.0], [0.0, 0.0, -1.0, 71.0], [0.0, 0.0, 0.0, 1.0]], "dcmmeta_shape": [100, 100, 72], "dcmmeta_slice_dim": 2, "dcmmeta_version": 0.6, "global": {"const": {"AcquisitionMatrix": [0, 100, 100, 0], "AcquisitionNumber": 1, "AngioFlag": "N", "BitsAllocated": 16, "BitsStored": 12, "BodyPartExamined": "BRAIN", "Columns": 100, "EchoNumbers": 2, "EchoTime": 7.38, "EchoTrainLength": 0, "FlipAngle": 60.0, "HighBit": 11, "ImageOrientationPatient": [1.0, 4.719e-12, -1.309e-12, -4.897e-12, 0.96363045035144, -0.2672383863809], "ImageType": ["ORIGINAL", "PRIMARY", "P", "ND"], "ImagedNucleus": "1H", "ImagingFrequency": 123.257727, "InPlanePhaseEncodingDirection": "ROW", "MRAcquisitionType": "2D", "MagneticFieldStrength": 3.0, "Manufacturer": "SIEMENS", "ManufacturerModelName": "Prisma", "Modality": "MR", "NumberOfAverages": 1.0, "NumberOfPhaseEncodingSteps": 100, "PercentPhaseFieldOfView": 100.0, "PercentSampling": 100.0, "PerformedProcedureStepStartTime": "160219.420000", "PhotometricInterpretation": "MONOCHROME2", "PixelBandwidth": 570.0, "PixelRepresentation": 0, "PixelSpacing": [2.0, 2.0], "ProtocolName": "field_mapping_2x2x2", "RepetitionTime": 720.0, "RescaleIntercept": -4096.0, "RescaleSlope": 2.0, "RescaleType": "US", "Rows": 100, "SAR": 0.11107230234602, "SamplesPerPixel": 1, "ScanningSequence": "GR", "SequenceName": "*fm2d2r", "SequenceVariant": "SP", "SeriesDescription": "field_mapping_2x2x2", "SeriesNumber": 10, "SeriesTime": "164410.278000", "SliceThickness": 2.0, "SoftwareVersions": "syngo MR E11", "SpacingBetweenSlices": 2.0, "SpecificCharacterSet": "ISO_IR 100", "StudyID": "1", "StudyTime": "160219.353000", "TransmitCoilName": "Body", "VariableFlipAngleFlag": "N", "WindowCenterWidthExplanation": "Algo1", "dBdt": 0.0}, "slices": {"AcquisitionTime": ["164145.827500", "164145.467500", "164145.837500", "164145.477500", "164145.847500", "164145.487500", "164145.857500", "164145.497500", "164145.867500", "164145.507500", "164145.877500", "164145.517500", "164145.887500", "164145.527500", "164145.897500", "164145.537500", "164145.907500", "164145.547500", "164145.917500", "164145.557500", "164145.927500", "164145.567500", "164145.937500", "164145.577500", "164145.947500", "164145.587500", "164145.957500", "164145.597500", "164145.967500", "164145.607500", "164145.977500", "164145.617500", "164145.987500", "164145.627500", "164145.997500", "164145.637500", "164146.007500", "164145.647500", "164146.017500", "164145.657500", "164146.027500", "164145.667500", "164146.037500", "164145.677500", "164146.047500", "164145.687500", "164146.057500", "164145.697500", "164146.067500", "164145.707500", "164146.077500", "164145.717500", "164146.087500", "164145.727500", "164146.097500", "164145.737500", "164146.107500", "164145.747500", "164146.117500", "164145.757500", "164146.127500", "164145.767500", "164146.137500", "164145.777500", "164146.147500", "164145.787500", "164146.157500", "164145.797500", "164146.167500", "164145.807500", "164146.177500", "164145.817500"], "ContentTime": ["164410.351000", "164410.280000", "164410.353000", "164410.282000", "164410.355000", "164410.284000", "164410.357000", "164410.285000", "164410.359000", "164410.287000", "164410.361000", "164410.289000", "164410.363000", "164410.291000", "164410.365000", "164410.293000", "164410.367000", "164410.295000", "164410.369000", "164410.297000", "164410.371000", "164410.299000", "164410.373000", "164410.301000", "164410.375000", "164410.303000", "164410.377000", "164410.304000", "164410.379000", "164410.307000", "164410.381000", "164410.309000", "164410.383000", "164410.311000", "164410.385000", "164410.312000", "164410.387000", "164410.314000", "164410.390000", "164410.316000", "164410.392000", "164410.318000", "164410.395000", "164410.320000", "164410.397000", "164410.322000", "164410.399000", "164410.324000", "164410.401000", "164410.327000", "164410.403000", "164410.329000", "164410.405000", "164410.331000", "164410.407000", "164410.333000", "164410.409000", "164410.335000", "164410.411000", "164410.337000", "164410.413000", "164410.339000", "164410.415000", "164410.341000", "164410.417000", "164410.343000", "164410.419000", "164410.345000", "164410.421000", "164410.347000", "164410.423000", "164410.349000"], "CsaImage.GSWDDataType": ["measured", "predicted", "measured", "predicted", "measured", "predicted", "measured", "predicted", "measured", "predicted", "measured", "predicted", "measured", "predicted", "measured", "predicted", "measured", "predicted", "measured", "predicted", "measured", "predicted", "measured", "predicted", "measured", "predicted", "measured", "predicted", "measured", "predicted", "measured", "predicted", "measured", "predicted", "measured", "predicted", "measured", "predicted", "measured", "predicted", "measured", "predicted", "measured", "predicted", "measured", "predicted", "measured", "predicted", "measured", "predicted", "measured", "predicted", "measured", "predicted", "measured", "predicted", "measured", "predicted", "measured", "predicted", "measured", "predicted", "measured", "measured", "measured", "measured", "measured", "measured", "measured", "measured", "measured", "measured"], "CsaImage.ICE_Dims": ["X_2_1_1_1_1_1_37_1_1_1_1_250", "X_2_1_1_1_1_1_1_1_1_2_1_250", "X_2_1_1_1_1_1_38_1_1_3_1_250", "X_2_1_1_1_1_1_2_1_1_4_1_250", "X_2_1_1_1_1_1_39_1_1_5_1_250", "X_2_1_1_1_1_1_3_1_1_6_1_250", "X_2_1_1_1_1_1_40_1_1_7_1_250", "X_2_1_1_1_1_1_4_1_1_8_1_250", "X_2_1_1_1_1_1_41_1_1_9_1_250", "X_2_1_1_1_1_1_5_1_1_10_1_250", "X_2_1_1_1_1_1_42_1_1_11_1_250", "X_2_1_1_1_1_1_6_1_1_12_1_250", "X_2_1_1_1_1_1_43_1_1_13_1_250", "X_2_1_1_1_1_1_7_1_1_14_1_250", "X_2_1_1_1_1_1_44_1_1_15_1_250", "X_2_1_1_1_1_1_8_1_1_16_1_250", "X_2_1_1_1_1_1_45_1_1_17_1_250", "X_2_1_1_1_1_1_9_1_1_18_1_250", "X_2_1_1_1_1_1_46_1_1_19_1_250", "X_2_1_1_1_1_1_10_1_1_20_1_250", "X_2_1_1_1_1_1_47_1_1_21_1_250", "X_2_1_1_1_1_1_11_1_1_22_1_250", "X_2_1_1_1_1_1_48_1_1_23_1_250", "X_2_1_1_1_1_1_12_1_1_24_1_250", "X_2_1_1_1_1_1_49_1_1_25_1_250", "X_2_1_1_1_1_1_13_1_1_26_1_250", "X_2_1_1_1_1_1_50_1_1_27_1_250", "X_2_1_1_1_1_1_14_1_1_28_1_250", "X_2_1_1_1_1_1_51_1_1_29_1_250", "X_2_1_1_1_1_1_15_1_1_30_1_250", "X_2_1_1_1_1_1_52_1_1_31_1_250", "X_2_1_1_1_1_1_16_1_1_32_1_250", "X_2_1_1_1_1_1_53_1_1_33_1_250", "X_2_1_1_1_1_1_17_1_1_34_1_250", "X_2_1_1_1_1_1_54_1_1_35_1_250", "X_2_1_1_1_1_1_18_1_1_36_1_250", "X_2_1_1_1_1_1_55_1_1_37_1_250", "X_2_1_1_1_1_1_19_1_1_38_1_250", "X_2_1_1_1_1_1_56_1_1_39_1_250", "X_2_1_1_1_1_1_20_1_1_40_1_250", "X_2_1_1_1_1_1_57_1_1_41_1_250", "X_2_1_1_1_1_1_21_1_1_42_1_250", "X_2_1_1_1_1_1_58_1_1_43_1_250", "X_2_1_1_1_1_1_22_1_1_44_1_250", "X_2_1_1_1_1_1_59_1_1_45_1_250", "X_2_1_1_1_1_1_23_1_1_46_1_250", "X_2_1_1_1_1_1_60_1_1_47_1_250", "X_2_1_1_1_1_1_24_1_1_48_1_250", "X_2_1_1_1_1_1_61_1_1_49_1_250", "X_2_1_1_1_1_1_25_1_1_50_1_250", "X_2_1_1_1_1_1_62_1_1_51_1_250", "X_2_1_1_1_1_1_26_1_1_52_1_250", "X_2_1_1_1_1_1_63_1_1_53_1_250", "X_2_1_1_1_1_1_27_1_1_54_1_250", "X_2_1_1_1_1_1_64_1_1_55_1_250", "X_2_1_1_1_1_1_28_1_1_56_1_250", "X_2_1_1_1_1_1_65_1_1_57_1_250", "X_2_1_1_1_1_1_29_1_1_58_1_250", "X_2_1_1_1_1_1_66_1_1_59_1_250", "X_2_1_1_1_1_1_30_1_1_60_1_250", "X_2_1_1_1_1_1_67_1_1_61_1_250", "X_2_1_1_1_1_1_31_1_1_62_1_250", "X_2_1_1_1_1_1_68_1_1_63_1_250", "X_2_1_1_1_1_1_32_1_1_64_1_250", "X_2_1_1_1_1_1_69_1_1_65_1_250", "X_2_1_1_1_1_1_33_1_1_66_1_250", "X_2_1_1_1_1_1_70_1_1_67_1_250", "X_2_1_1_1_1_1_34_1_1_68_1_250", "X_2_1_1_1_1_1_71_1_1_69_1_250", "X_2_1_1_1_1_1_35_1_1_70_1_250", "X_2_1_1_1_1_1_72_1_1_71_1_250", "X_2_1_1_1_1_1_36_1_1_72_1_250"], "CsaImage.ProtocolSliceNumber": [0, 1, 2, 3, 4, 5, 6, 7, 8, 9, 10, 11, 12, 13, 14, 15, 16, 17, 18, 19, 20, 21, 22, 23, 24, 25, 26, 27, 28, 29, 30, 31, 32, 33, 34, 35, 36, 37, 38, 39, 40, 41, 42, 43, 44, 45, 46, 47, 48, 49, 50, 51, 52, 53, 54, 55, 56, 57, 58, 59, 60, 61, 62, 63, 64, 65, 66, 67, 68, 69, 70, 71], "CsaImage.RFSWDDataType": ["measured", "predicted", "measured", "predicted", "measured", "predicted", "measured", "predicted", "measured", "predicted", "measured", "predicted", "measured", "predicted", "measured", "predicted", "measured", "predicted", "measured", "predicted", "measured", "predicted", "measured", "predicted", "measured", "predicted", "measured", "predicted", "measured", "predicted", "measured", "predicted", "measured", "predicted", "measured", "predicted", "measured", "predicted", "measured", "predicted", "measured", "predicted", "measured", "predicted", "measured", "predicted", "measured", "predicted", "measured", "predicted", "measured", "predicted", "measured", "predicted", "measured", "predicted", "measured", "predicted", "measured", "measured", "measured", "measured", "measured", "measured", "measured", "measured", "measured", "measured", "measured", "measured", "measured", "measured"], "CsaImage.SlicePosition_PCS": [[-100.0, -119.13842231, -38.59465044], [-100.0, -118.60394508, -36.66738908], [-100.0, -118.06946975, -34.74012773], [-100.0, -117.53499251, -32.81286638], [-100.0, -117.00051528, -30.88560503], [-100.0, -116.46603805, -28.95834367], [-100.0, -115.93156272, -27.03108614], [-100.0, -115.39708549, -25.10382478], [-100.0, -114.86260825, -23.17656343], [-100.0, -114.32813102, -21.24930208], [-100.0, -113.79365569, -19.32204073], [-100.0, -113.25917846, -17.39477937], [-100.0, -112.72470122, -15.46751802], [-100.0, -112.19022494, -13.54025667], [-100.0, -111.65574771, -11.61299913], [-100.0, -111.12127143, -9.68573778], [-100.0, -110.5867942, -7.75847643], [-100.0, -110.05231792, -5.83121507], [-100.0, -109.51784068, -3.90395372], [-100.0, -108.9833644, -1.97669237], [-100.0, -108.44888717, -0.04943102], [-100.0, -107.91441089, 1.87782843], [-100.0, -107.37993365, 3.80508978], [-100.0, -106.84545737, 5.73235114], [-100.0, -106.31098014, 7.65961249], [-100.0, -105.77650386, 9.58687193], [-100.0, -105.24202663, 11.51413329], [-100.0, -104.70755035, 13.44139464], [-100.0, -104.17307359, 15.36865504], [-100.0, -103.63859683, 17.29591639], [-100.0, -103.10412007, 19.22317727], [-100.0, -102.56964332, 21.15043814], [-100.0, -102.03516656, 23.07769902], [-100.0, -101.5006898, 25.00496001], [-100.0, -100.96621305, 26.93222089], [-100.0, -100.43173629, 28.85948188], [-100.0, -99.89725953, 30.78674252], [-100.0, -99.36278278, 32.71400339], [-100.0, -98.82830602, 34.64126475], [-100.0, -98.29382914, 36.56852515], [-100.0, -97.75935238, 38.4957865], [-100.0, -97.22487569, 40.4230469], [-100.0, -96.69039893, 42.35030825], [-100.0, -96.15592217, 44.27756865], [-100.0, -95.62144542, 46.20483], [-100.0, -95.08696872, 48.13209135], [-100.0, -94.55249196, 50.05935271], [-100.0, -94.0180152, 51.98661215], [-100.0, -93.48353845, 53.9138735], [-100.0, -92.94906169, 55.84113486], [-100.0, -92.41458493, 57.76839621], [-100.0, -91.88010818, 59.69565565], [-100.0, -91.34563142, 61.62291701], [-100.0, -90.81115466, 63.55017836], [-100.0, -90.27667791, 65.47743971], [-100.0, -89.74220115, 67.40470106], [-100.0, -89.20772439, 69.33196242], [-100.0, -88.67324763, 71.25921996], [-100.0, -88.13877135, 73.18648131], [-100.0, -87.60429412, 75.11374266], [-100.0, -87.06981784, 77.04100401], [-100.0, -86.53534061, 78.96826537], [-100.0, -86.00086433, 80.89552672], [-100.0, -85.46638709, 82.82278807], [-100.0, -84.93191081, 84.75004942], [-100.0, -84.39743358, 86.67731078], [-100.0, -83.8629573, 88.60456831], [-100.0, -83.32848006, 90.53182967], [-100.0, -82.79400378, 92.45909102], [-100.0, -82.25952655, 94.38635237], [-100.0, -81.72505027, 96.31361372], [-100.0, -81.19057304, 98.24087508]], "CsaImage.TimeAfterStart": [1.0825, 0.7225, 1.0925, 0.7325, 1.1025, 0.7425, 1.1125, 0.7525, 1.1225, 0.7625, 1.1325, 0.7725, 1.1425, 0.7825, 1.1525, 0.7925, 1.1625, 0.8025, 1.1725, 0.8125, 1.1825, 0.8225, 1.1925, 0.8325, 1.2025, 0.8425, 1.2125, 0.8525, 1.2225, 0.8625, 1.2325, 0.8725, 1.2425, 0.8825, 1.2525, 0.8925, 1.2625, 0.9025, 1.2725, 0.9125, 1.2825, 0.9225, 1.2925, 0.9325, 1.3025, 0.9425, 1.3125, 0.9525, 1.3225, 0.9625, 1.3325, 0.9725, 1.3425, 0.9825, 1.3525, 0.9925, 1.3625, 1.0025, 1.3725, 1.0125, 1.3825, 1.0225, 1.3925, 1.0325, 1.4025, 1.0425, 1.4125, 1.0525, 1.4225, 1.0625, 1.4325, 1.0725], "ImagePositionPatient": [[-99.99999999951, -119.13842230918, -38.594650436485], [-99.99999999951, -118.60394507529, -36.667389083946], [-99.99999999951, -118.06946974875, -34.740127731407], [-99.99999999951, -117.53499251486, -32.812866378868], [-99.99999999951, -117.00051528098, -30.885605026329], [-99.99999999951, -116.46603804709, -28.95834367379], [-99.99999999951, -115.93156272055, -27.031086135948], [-99.99999999951, -115.39708548667, -25.103824783409], [-99.99999999951, -114.86260825278, -23.17656343087], [-99.99999999951, -114.32813101889, -21.249302078331], [-99.99999999951, -113.79365569235, -19.322040725792], [-99.99999999951, -113.25917845847, -17.394779373253], [-99.99999999951, -112.72470122458, -15.467518020714], [-99.99999999951, -112.19022494437, -13.540256668175], [-99.99999999951, -111.65574771048, -11.612999130333], [-99.99999999951, -111.12127143027, -9.6857377777937], [-99.99999999951, -110.58679419638, -7.7584764252547], [-99.99999999951, -110.05231791617, -5.8312150727156], [-99.99999999951, -109.51784068228, -3.9039537201765], [-99.99999999951, -108.98336440207, -1.9766923676375], [-99.99999999951, -108.44888716818, -0.0494310150984], [-99.99999999951, -107.91441088797, 1.877828430092], [-99.99999999951, -107.37993365409, 3.8050897826311], [-99.99999999951, -106.84545737387, 5.7323511351701], [-99.99999999951, -106.31098013999, 7.6596124877092], [-99.99999999951, -105.77650385977, 9.5868719328996], [-99.99999999951, -105.24202662589, 11.514133285439], [-99.99999999951, -104.70755034567, 13.441394637978], [-99.99999999951, -104.17307358862, 15.368655036843], [-99.99999999951, -103.63859683158, 17.295916389382], [-99.99999999951, -103.10412007453, 19.223177265083], [-99.99999999951, -102.56964331748, 21.150438140785], [-99.99999999951, -102.03516656043, 23.077699016487], [-99.99999999951, -101.50068980338, 25.004960011398], [-99.99999999951, -100.96621304633, 26.9322208871], [-99.99999999951, -100.43173628928, 28.859481882012], [-99.99999999951, -99.897259532228, 30.786742519295], [-99.99999999951, -99.362782775179, 32.714003394997], [-99.99999999951, -98.828306018129, 34.641264747536], [-99.99999999951, -98.29382914187, 36.568525146401], [-99.99999999951, -97.759352384821, 38.49578649894], [-99.99999999951, -97.224875687376, 40.423046897804], [-99.99999999951, -96.690398930326, 42.350308250343], [-99.99999999951, -96.155922173277, 44.277568649208], [-99.99999999951, -95.621445416227, 46.204830001747], [-99.99999999951, -95.086968718782, 48.132091354286], [-99.99999999951, -94.552491961733, 50.059352706825], [-99.99999999951, -94.018015204683, 51.986612152016], [-99.99999999951, -93.483538447634, 53.913873504555], [-99.99999999951, -92.949061690584, 55.841134857094], [-99.99999999951, -92.414584933535, 57.768396209633], [-99.99999999951, -91.880108176485, 59.695655654823], [-99.99999999951, -91.345631419435, 61.622917007363], [-99.99999999951, -90.811154662386, 63.550178359902], [-99.99999999951, -90.276677905336, 65.477439712441], [-99.99999999951, -89.742201148287, 67.40470106498], [-99.99999999951, -89.207724391237, 69.331962417519], [-99.99999999951, -88.673247634188, 71.259219955361], [-99.99999999951, -88.138771353975, 73.1864813079], [-99.99999999951, -87.604294120089, 75.113742660439], [-99.99999999951, -87.069817839876, 77.041004012978], [-99.99999999951, -86.535340605989, 78.968265365517], [-99.99999999951, -86.000864325777, 80.895526718056], [-99.99999999951, -85.46638709189, 82.822788070595], [-99.99999999951, -84.931910811678, 84.750049423134], [-99.99999999951, -84.397433577791, 86.677310775673], [-99.99999999951, -83.862957297579, 88.604568313515], [-99.99999999951, -83.328480063692, 90.531829666054], [-99.99999999951, -82.79400378348, 92.459091018593], [-99.99999999951, -82.259526549593, 94.386352371132], [-99.99999999951, -81.725050269381, 96.313613723671], [-99.99999999951, -81.190573035494, 98.24087507621]], "InstanceCreationTime": ["164410.351000", "164410.280000", "164410.353000", "164410.282000", "164410.355000", "164410.284000", "164410.357000", "164410.285000", "164410.359000", "164410.287000", "164410.361000", "164410.289000", "164410.363000", "164410.291000", "164410.365000", "164410.293000", "164410.367000", "164410.295000", "164410.369000", "164410.297000", "164410.371000", "164410.299000", "164410.373000", "164410.301000", "164410.375000", "164410.303000", "164410.377000", "164410.304000", "164410.379000", "164410.307000", "164410.381000", "164410.309000", "164410.383000", "164410.311000", "164410.385000", "164410.312000", "164410.387000", "164410.314000", "164410.390000", "164410.316000", "164410.392000", "164410.318000", "164410.395000", "164410.320000", "164410.397000", "164410.322000", "164410.399000", "164410.324000", "164410.401000", "164410.327000", "164410.403000", "164410.329000", "164410.405000", "164410.331000", "164410.407000", "164410.333000", "164410.409000", "164410.335000", "164410.411000", "164410.337000", "164410.413000", "164410.339000", "164410.415000", "164410.341000", "164410.417000", "164410.343000", "164410.419000", "164410.345000", "164410.421000", "164410.347000", "164410.423000", "164410.349000"], "InstanceNumber": [1, 2, 3, 4, 5, 6, 7, 8, 9, 10, 11, 12, 13, 14, 15, 16, 17, 18, 19, 20, 21, 22, 23, 24, 25, 26, 27, 28, 29, 30, 31, 32, 33, 34, 35, 36, 37, 38, 39, 40, 41, 42, 43, 44, 45, 46, 47, 48, 49, 50, 51, 52, 53, 54, 55, 56, 57, 58, 59, 60, 61, 62, 63, 64, 65, 66, 67, 68, 69, 70, 71, 72], "LargestImagePixelValue": [4094, 4093, 4095, 4094, 4095, 4094, 4090, 4093, 4094, 4093, 4094, 4094, 4094, 4095, 4092, 4095, 4094, 4095, 4094, 4093, 4093, 4095, 4095, 4093, 4095, 4094, 4094, 4093, 4090, 4094, 4094, 4094, 4094, 4086, 4092, 4094, 4095, 4094, 4093, 4093, 4095, 4088, 4094, 4091, 4090, 4089, 4094, 4093, 4094, 4093, 4093, 4094, 4095, 4095, 4093, 4093, 4093, 4095, 4093, 4092, 4092, 4094, 4094, 4094, 4094, 4095, 4093, 4095, 4094, 4092, 4093, 4094], "SliceLocation": [-69.029340115138, -67.029339556505, -65.029339507588, -63.029338948955, -61.029338390322, -59.029337831688, -57.02934145873, -55.029340900097, -53.029340341463, -51.02933978283, -49.029339733913, -47.02933917528, -45.029338616647, -43.029338312872, -41.029341430197, -39.029341126422, -37.029340567788, -35.029340264013, -33.02933970538, -31.029339401605, -29.029338842972, -27.029340377176, -25.029339818543, -23.029339514768, -21.029338956134, -19.029340490338, -17.029339931705, -15.02933962793, -13.029340115716, -11.029339684511, -9.029339712802, -7.0293397410926, -5.0293397693832, -3.0293396828002, -1.0293397110908, 0.97066037549227, 2.9706601174542, 4.9706600891636, 6.9706605203678, 8.9706600644396, 10.970660495644, 12.97065999193, 14.970660423134, 16.970659935348, 18.970660366553, 20.970660781828, 22.970661213032, 24.970659806257, 26.970660237461, 28.970660668666, 30.97066109987, 32.970659693095, 34.970660124299, 36.970660555503, 38.970660986707, 40.970661417912, 42.970661849116, 44.970658604361, 46.970658908136, 48.97065946677, 50.970659770545, 52.970660329178, 54.970660632953, 56.970661191586, 58.970661495361, 60.970662053995, 62.970658681811, 64.970659240445, 66.97065954422, 68.970660102853, 70.970660406628, 72.970660965261], "SmallestImagePixelValue": [0, 0, 0, 0, 1, 0, 1, 0, 1, 0, 0, 0, 0, 0, 0, 1, 2, 0, 6, 1, 4, 14, 1, 2, 0, 0, 4, 4, 1, 0, 0, 2, 1, 1, 0, 0, 3, 0, 2, 0, 0, 0, 5, 0, 0, 3, 1, 0, 1, 1, 0, 0, 0, 4, 0, 6, 0, 0, 0, 0, 2, 0, 0, 0, 2, 1, 0, 0, 0, 0, 0, 0], "WindowCenter": [-260.0, -228.0, -272.0, -254.0, -222.0, -204.0, -204.0, -214.0, -234.0, -208.0, -174.0, -172.0, -142.0, -118.0, -124.0, -132.0, -224.0, -250.0, -234.0, -248.0, -278.0, -284.0, -304.0, -296.0, -268.0, -236.0, -220.0, -164.0, -182.0, -162.0, -110.0, -106.0, -136.0, -144.0, -150.0, -126.0, -122.0, -104.0, -108.0, -104.0, -120.0, -228.0, -120.0, -72.0, -198.0, -198.0, -194.0, -194.0, -194.0, -188.0, -206.0, -98.0, -82.0, -178.0, -182.0, -164.0, -156.0, -154.0, -92.0, -88.0, -228.0, -244.0, -160.0, -138.0, -172.0, -188.0, -210.0, -326.0, -298.0, -314.0, -304.0, -326.0], "WindowWidth": [6138.0, 6234.0, 6184.0, 6248.0, 6270.0, 6266.0, 6272.0, 6254.0, 6222.0, 6270.0, 6316.0, 6338.0, 6362.0, 6408.0, 6366.0, 6300.0, 6152.0, 6090.0, 6070.0, 6028.0, 5944.0, 5880.0, 5776.0, 5638.0, 5508.0, 5592.0, 5498.0, 5530.0, 5398.0, 5448.0, 5496.0, 5388.0, 5326.0, 5270.0, 5252.0, 5312.0, 5254.0, 5374.0, 5324.0, 5220.0, 5116.0, 4618.0, 4884.0, 5156.0, 4594.0, 4610.0, 4610.0, 4614.0, 4622.0, 4624.0, 4628.0, 4884.0, 5102.0, 4626.0, 4658.0, 4648.0, 4648.0, 4670.0, 5038.0, 5138.0, 4758.0, 4806.0, 5278.0, 5716.0, 5742.0, 5832.0, 5870.0, 6006.0, 6102.0, 6208.0, 6286.0, 6374.0]}}, "IntendedFor": ["ses-action01/func/sub-18_ses-action01_task-action_run-04_bold.nii.gz", "ses-action01/func/sub-18_ses-action01_task-action_run-06_bold.nii.gz", "ses-action01/func/sub-18_ses-action01_task-action_run-09_bold.nii.gz", "ses-action01/func/sub-18_ses-action01_task-action_run-10_bold.nii.gz", "ses-action01/func/sub-18_ses-action01_task-action_run-02_bold.nii.gz", "ses-action01/func/sub-18_ses-action01_task-action_run-12_bold.nii.gz", "ses-action01/func/sub-18_ses-action01_task-action_run-01_bold.nii.gz", "ses-action01/func/sub-18_ses-action01_task-action_run-11_bold.nii.gz", "ses-action01/func/sub-18_ses-action01_task-action_run-03_bold.nii.gz", "ses-action01/func/sub-18_ses-action01_task-action_run-05_bold.nii.gz", "ses-action01/func/sub-18_ses-action01_task-action_run-08_bold.nii.gz", "ses-action01/func/sub-18_ses-action01_task-action_run-07_bold.nii.gz"]}