{"AcquisitionMatrixPE": 100, "AcquisitionNumber": 1, "AcquisitionTime": "13:38:9.772500", "BaseResolution": 100, "BodyPartExamined": "BRAIN", "CoilCombinationMethod": "Sum of Squares", "ConsistencyInfo": "N4_VE11C_LATEST_20160120", "ConversionSoftware": "dcm2niix", "ConversionSoftwareVersion": "v1.0.20211006", "DeviceSerialNumber": "166078", "DwellTime": 8.8e-06, "EchoNumber": 2, "EchoTime": 0.00738, "EchoTime1": 0.00492, "EchoTime2": 0.00738, "FlipAngle": 60, "ImageOrientationPatientDICOM": [1, 4.8e-12, -9.68e-13, -4.897e-12, 0.980271, -0.197657], "ImageOrientationText": "Tra>Cor(-11.4)", "ImageType": ["ORIGINAL", "PRIMARY", "P", "ND", "PHASE"], "ImagingFrequency": 123.258, "InPlanePhaseEncodingDirectionDICOM": "ROW", "InstitutionAddress": "Street StreetNo,Bei Jing,District,CN,ZIP", "InstitutionName": "BeiJing Normal University", "InstitutionalDepartmentName": "Department", "MRAcquisitionType": "2D", "MagneticFieldStrength": 3, "Manufacturer": "Siemens", "ManufacturersModelName": "Prisma", "MatrixCoilMode": "SENSE", "Modality": "MR", "MultibandAccelerationFactor": 2, "PartialFourier": 1, "PatientPosition": "HFS", "PercentPhaseFOV": 100, "PercentSampling": 100, "PhaseEncodingDirection": "i", "PhaseEncodingSteps": 100, "PhaseResolution": 1, "PixelBandwidth": 570, "ProcedureStepDescription": "BNU_P2018_64CH^Zhen.ZongLei", "ProtocolName": "field_mapping_2x2x2", "PulseSequenceDetails": "%SiemensSeq%\\gre_field_mapping", "ReceiveCoilActiveElements": "HC1-7;NC1", "ReceiveCoilName": "HeadNeck_64", "ReconMatrixPE": 100, "RepetitionTime": 0.72, "SAR": 0.139804, "ScanningSequence": "GR", "SequenceName": "*fm2d2r", "SequenceVariant": "SP", "SeriesDescription": "field_mapping_2x2x2", "SeriesNumber": 10, "ShimSetting": [-5446, -11513, -1244, 294, 9, -142, -87, 47], "SliceThickness": 2, "SliceTiming": [0.35938, 0, 0.375, 0.01562, 0.39062, 0.03125, 0.39062, 0.03125, 0.40625, 0.04688, 0.42188, 0.0625, 0.42188, 0.0625, 0.4375, 0.07812, 0.45312, 0.09375, 0.45312, 0.09375, 0.46875, 0.10938, 0.46875, 0.10938, 0.48438, 0.125, 0.5, 0.14062, 0.5, 0.14062, 0.51562, 0.15625, 0.53125, 0.17188, 0.53125, 0.17188, 0.54688, 0.1875, 0.5625, 0.20312, 0.5625, 0.20312, 0.57812, 0.21875, 0.59375, 0.21875, 0.59375, 0.23438, 0.60938, 0.25, 0.60938, 0.25, 0.625, 0.26562, 0.64062, 0.28125, 0.64062, 0.28125, 0.65625, 0.29688, 0.67188, 0.3125, 0.67188, 0.3125, 0.6875, 0.32812, 0.70312, 0.34375, 0.70312, 0.34375, 0.71875, 0.35938], "SoftwareVersions": "syngo MR E11", "SpacingBetweenSlices": 2, "StationName": "AWP166078", "TxRefAmp": 251.967, "dcmmeta_affine": [[-2.0, -9.79399981254625e-12, 0.0, 100.67796325683594], [-9.599999614695598e-12, 1.9605423212051392, -0.39531469345092773, -74.68665313720703], [-1.935999971447444e-12, 0.39531469345092773, 1.960540771484375, -67.29402160644531], [0.0, 0.0, 0.0, 1.0]], "dcmmeta_reorient_transform": [[0.0, -1.0, 0.0, 99.0], [1.0, 0.0, 0.0, 0.0], [0.0, 0.0, -1.0, 71.0], [0.0, 0.0, 0.0, 1.0]], "dcmmeta_shape": [100, 100, 72], "dcmmeta_slice_dim": 2, "dcmmeta_version": 0.6, "global": {"const": {"AcquisitionMatrix": [0, 100, 100, 0], "AcquisitionNumber": 1, "AngioFlag": "N", "BitsAllocated": 16, "BitsStored": 12, "BodyPartExamined": "BRAIN", "Columns": 100, "EchoNumbers": 2, "EchoTime": 7.38, "EchoTrainLength": 0, "FlipAngle": 60.0, "HighBit": 11, "ImageOrientationPatient": [1.0, 4.8e-12, -9.68e-13, -4.897e-12, 0.98027117454279, -0.1976573407706], "ImageType": ["ORIGINAL", "PRIMARY", "P", "ND"], "ImagedNucleus": "1H", "ImagingFrequency": 123.257698, "InPlanePhaseEncodingDirection": "ROW", "MRAcquisitionType": "2D", "MagneticFieldStrength": 3.0, "Manufacturer": "SIEMENS", "ManufacturerModelName": "Prisma", "Modality": "MR", "NumberOfAverages": 1.0, "NumberOfPhaseEncodingSteps": 100, "PercentPhaseFieldOfView": 100.0, "PercentSampling": 100.0, "PerformedProcedureStepStartTime": "125606.019000", "PhotometricInterpretation": "MONOCHROME2", "PixelBandwidth": 570.0, "PixelRepresentation": 0, "PixelSpacing": [2.0, 2.0], "ProtocolName": "field_mapping_2x2x2", "RepetitionTime": 720.0, "RescaleIntercept": -4096.0, "RescaleSlope": 2.0, "RescaleType": "US", "Rows": 100, "SAR": 0.13980436026429, "SamplesPerPixel": 1, "ScanningSequence": "GR", "SequenceName": "*fm2d2r", "SequenceVariant": "SP", "SeriesDescription": "field_mapping_2x2x2", "SeriesNumber": 10, "SeriesTime": "134034.671000", "SliceThickness": 2.0, "SoftwareVersions": "syngo MR E11", "SpacingBetweenSlices": 2.0, "SpecificCharacterSet": "ISO_IR 100", "StudyID": "1", "StudyTime": "125605.925000", "TransmitCoilName": "Body", "VariableFlipAngleFlag": "N", "WindowCenterWidthExplanation": "Algo1", "dBdt": 0.0}, "slices": {"AcquisitionTime": ["133809.772500", "133809.412500", "133809.782500", "133809.422500", "133809.792500", "133809.432500", "133809.802500", "133809.442500", "133809.812500", "133809.452500", "133809.822500", "133809.462500", "133809.832500", "133809.472500", "133809.842500", "133809.482500", "133809.852500", "133809.492500", "133809.862500", "133809.502500", "133809.872500", "133809.512500", "133809.882500", "133809.522500", "133809.892500", "133809.532500", "133809.902500", "133809.542500", "133809.912500", "133809.552500", "133809.922500", "133809.562500", "133809.932500", "133809.572500", "133809.942500", "133809.582500", "133809.952500", "133809.592500", "133809.962500", "133809.602500", "133809.972500", "133809.612500", "133809.982500", "133809.622500", "133809.992500", "133809.632500", "133810.002500", "133809.642500", "133810.012500", "133809.652500", "133810.022500", "133809.662500", "133810.032500", "133809.672500", "133810.042500", "133809.682500", "133810.052500", "133809.692500", "133810.062500", "133809.702500", "133810.072500", "133809.712500", "133810.082500", "133809.722500", "133810.092500", "133809.732500", "133810.102500", "133809.742500", "133810.112500", "133809.752500", "133810.122500", "133809.762500"], "ContentTime": ["134034.746000", "134034.673000", "134034.748000", "134034.675000", "134034.750000", "134034.677000", "134034.752000", "134034.680000", "134034.755000", "134034.682000", "134034.757000", "134034.684000", "134034.760000", "134034.686000", "134034.762000", "134034.687000", "134034.764000", "134034.689000", "134034.766000", "134034.691000", "134034.768000", "134034.693000", "134034.770000", "134034.695000", "134034.772000", "134034.697000", "134034.774000", "134034.700000", "134034.777000", "134034.703000", "134034.779000", "134034.705000", "134034.781000", "134034.708000", "134034.783000", "134034.710000", "134034.784000", "134034.712000", "134034.787000", "134034.714000", "134034.789000", "134034.716000", "134034.791000", "134034.718000", "134034.792000", "134034.719000", "134034.794000", "134034.721000", "134034.796000", "134034.723000", "134034.798000", "134034.725000", "134034.800000", "134034.727000", "134034.802000", "134034.729000", "134034.804000", "134034.731000", "134034.806000", "134034.733000", "134034.808000", "134034.735000", "134034.811000", "134034.736000", "134034.813000", "134034.738000", "134034.815000", "134034.740000", "134034.817000", "134034.742000", "134034.819000", "134034.744000"], "CsaImage.GSWDDataType": ["measured", "predicted", "measured", "predicted", "measured", "predicted", "measured", "predicted", "measured", "predicted", "measured", "predicted", "measured", "predicted", "measured", "predicted", "measured", "predicted", "measured", "predicted", "measured", "predicted", "measured", "predicted", "measured", "predicted", "measured", "predicted", "measured", "predicted", "measured", "predicted", "measured", "predicted", "measured", "predicted", "measured", "predicted", "measured", "predicted", "measured", "predicted", "measured", "predicted", "measured", "predicted", "measured", "predicted", "measured", "predicted", "measured", "predicted", "measured", "predicted", "measured", "predicted", "measured", "predicted", "measured", "predicted", "measured", "predicted", "measured", "predicted", "measured", "predicted", "measured", "measured", "measured", "measured", "measured", "measured"], "CsaImage.ICE_Dims": ["X_2_1_1_1_1_1_37_1_1_1_1_111", "X_2_1_1_1_1_1_1_1_1_2_1_111", "X_2_1_1_1_1_1_38_1_1_3_1_111", "X_2_1_1_1_1_1_2_1_1_4_1_111", "X_2_1_1_1_1_1_39_1_1_5_1_111", "X_2_1_1_1_1_1_3_1_1_6_1_111", "X_2_1_1_1_1_1_40_1_1_7_1_111", "X_2_1_1_1_1_1_4_1_1_8_1_111", "X_2_1_1_1_1_1_41_1_1_9_1_111", "X_2_1_1_1_1_1_5_1_1_10_1_111", "X_2_1_1_1_1_1_42_1_1_11_1_111", "X_2_1_1_1_1_1_6_1_1_12_1_111", "X_2_1_1_1_1_1_43_1_1_13_1_111", "X_2_1_1_1_1_1_7_1_1_14_1_111", "X_2_1_1_1_1_1_44_1_1_15_1_111", "X_2_1_1_1_1_1_8_1_1_16_1_111", "X_2_1_1_1_1_1_45_1_1_17_1_111", "X_2_1_1_1_1_1_9_1_1_18_1_111", "X_2_1_1_1_1_1_46_1_1_19_1_111", "X_2_1_1_1_1_1_10_1_1_20_1_111", "X_2_1_1_1_1_1_47_1_1_21_1_111", "X_2_1_1_1_1_1_11_1_1_22_1_111", "X_2_1_1_1_1_1_48_1_1_23_1_111", "X_2_1_1_1_1_1_12_1_1_24_1_111", "X_2_1_1_1_1_1_49_1_1_25_1_111", "X_2_1_1_1_1_1_13_1_1_26_1_111", "X_2_1_1_1_1_1_50_1_1_27_1_111", "X_2_1_1_1_1_1_14_1_1_28_1_111", "X_2_1_1_1_1_1_51_1_1_29_1_111", "X_2_1_1_1_1_1_15_1_1_30_1_111", "X_2_1_1_1_1_1_52_1_1_31_1_111", "X_2_1_1_1_1_1_16_1_1_32_1_111", "X_2_1_1_1_1_1_53_1_1_33_1_111", "X_2_1_1_1_1_1_17_1_1_34_1_111", "X_2_1_1_1_1_1_54_1_1_35_1_111", "X_2_1_1_1_1_1_18_1_1_36_1_111", "X_2_1_1_1_1_1_55_1_1_37_1_111", "X_2_1_1_1_1_1_19_1_1_38_1_111", "X_2_1_1_1_1_1_56_1_1_39_1_111", "X_2_1_1_1_1_1_20_1_1_40_1_111", "X_2_1_1_1_1_1_57_1_1_41_1_111", "X_2_1_1_1_1_1_21_1_1_42_1_111", "X_2_1_1_1_1_1_58_1_1_43_1_111", "X_2_1_1_1_1_1_22_1_1_44_1_111", "X_2_1_1_1_1_1_59_1_1_45_1_111", "X_2_1_1_1_1_1_23_1_1_46_1_111", "X_2_1_1_1_1_1_60_1_1_47_1_111", "X_2_1_1_1_1_1_24_1_1_48_1_111", "X_2_1_1_1_1_1_61_1_1_49_1_111", "X_2_1_1_1_1_1_25_1_1_50_1_111", "X_2_1_1_1_1_1_62_1_1_51_1_111", "X_2_1_1_1_1_1_26_1_1_52_1_111", "X_2_1_1_1_1_1_63_1_1_53_1_111", "X_2_1_1_1_1_1_27_1_1_54_1_111", "X_2_1_1_1_1_1_64_1_1_55_1_111", "X_2_1_1_1_1_1_28_1_1_56_1_111", "X_2_1_1_1_1_1_65_1_1_57_1_111", "X_2_1_1_1_1_1_29_1_1_58_1_111", "X_2_1_1_1_1_1_66_1_1_59_1_111", "X_2_1_1_1_1_1_30_1_1_60_1_111", "X_2_1_1_1_1_1_67_1_1_61_1_111", "X_2_1_1_1_1_1_31_1_1_62_1_111", "X_2_1_1_1_1_1_68_1_1_63_1_111", "X_2_1_1_1_1_1_32_1_1_64_1_111", "X_2_1_1_1_1_1_69_1_1_65_1_111", "X_2_1_1_1_1_1_33_1_1_66_1_111", "X_2_1_1_1_1_1_70_1_1_67_1_111", "X_2_1_1_1_1_1_34_1_1_68_1_111", "X_2_1_1_1_1_1_71_1_1_69_1_111", "X_2_1_1_1_1_1_35_1_1_70_1_111", "X_2_1_1_1_1_1_72_1_1_71_1_111", "X_2_1_1_1_1_1_36_1_1_72_1_111"], "CsaImage.ProtocolSliceNumber": [0, 1, 2, 3, 4, 5, 6, 7, 8, 9, 10, 11, 12, 13, 14, 15, 16, 17, 18, 19, 20, 21, 22, 23, 24, 25, 26, 27, 28, 29, 30, 31, 32, 33, 34, 35, 36, 37, 38, 39, 40, 41, 42, 43, 44, 45, 46, 47, 48, 49, 50, 51, 52, 53, 54, 55, 56, 57, 58, 59, 60, 61, 62, 63, 64, 65, 66, 67, 68, 69, 70, 71], "CsaImage.RFSWDDataType": ["measured", "predicted", "measured", "predicted", "measured", "predicted", "measured", "predicted", "measured", "predicted", "measured", "predicted", "measured", "predicted", "measured", "predicted", "measured", "predicted", "measured", "predicted", "measured", "predicted", "measured", "predicted", "measured", "predicted", "measured", "predicted", "measured", "predicted", "measured", "predicted", "measured", "predicted", "measured", "predicted", "measured", "predicted", "measured", "predicted", "measured", "predicted", "measured", "predicted", "measured", "predicted", "measured", "predicted", "measured", "predicted", "measured", "predicted", "measured", "predicted", "measured", "predicted", "measured", "predicted", "measured", "predicted", "measured", "predicted", "measured", "measured", "measured", "measured", "measured", "measured", "measured", "measured", "measured", "measured"], "CsaImage.SlicePosition_PCS": [[-100.67796612, -119.40703651, -28.15797579], [-100.67796612, -119.01172134, -26.19743121], [-100.67796612, -118.61640617, -24.23689043], [-100.67796612, -118.221091, -22.27634585], [-100.67796612, -117.82577773, -20.31580508], [-100.67796612, -117.43046256, -18.35526431], [-100.67796612, -117.03514739, -16.39471972], [-100.67796612, -116.63983222, -14.43417895], [-100.67796612, -116.24451896, -12.47363436], [-100.67796612, -115.84920379, -10.51309359], [-100.67796612, -115.45388862, -8.55255091], [-100.67796612, -115.05857345, -6.59200823], [-100.67796612, -114.66326019, -4.63146555], [-100.67796612, -114.26794502, -2.67092478], [-100.67796612, -113.87262984, -0.7103821], [-100.67796612, -113.47731563, 1.25016058], [-100.67796612, -113.08200046, 3.21070325], [-100.67796612, -112.68668624, 5.17124498], [-100.67796612, -112.29137107, 7.13178766], [-100.67796612, -111.89605685, 9.09233034], [-100.67796612, -111.50074168, 11.05287206], [-100.67796612, -111.10542747, 13.01341474], [-100.67796612, -110.7101123, 14.97395694], [-100.67796612, -110.31479808, 16.93449962], [-100.67796612, -109.91948291, 18.89504188], [-100.67796612, -109.52416869, 20.85558415], [-100.67796612, -109.12885352, 22.81612647], [-100.67796612, -108.73353931, 24.77666891], [-100.67796612, -108.33822414, 26.73721111], [-100.67796612, -107.94290992, 28.69775331], [-100.67796612, -107.54759475, 30.65829599], [-100.67796612, -107.15228053, 32.61883867], [-100.67796612, -106.75696536, 34.57938039], [-100.67796612, -106.36165115, 36.53992307], [-100.67796612, -105.96633645, 38.50046575], [-100.67796612, -105.57102176, 40.46100843], [-100.67796612, -105.17570707, 42.4215492], [-100.67796612, -104.78039237, 44.38209188], [-100.67796612, -104.38507768, 46.34263456], [-100.67796612, -103.98976299, 48.30317724], [-100.67796612, -103.59444829, 50.26371992], [-100.67796612, -103.1991336, 52.22426069], [-100.67796612, -102.80381891, 54.18480527], [-100.67796612, -102.40850421, 56.14534605], [-100.67796612, -102.01318976, 58.10589063], [-100.67796612, -101.61787506, 60.0664314], [-100.67796612, -101.22256037, 62.02697218], [-100.67796612, -100.82724568, 63.98751676], [-100.67796612, -100.43193098, 65.94805753], [-100.67796612, -100.03661629, 67.90860212], [-100.67796612, -99.6413016, 69.86914289], [-100.67796612, -99.2459869, 71.82968366], [-100.67796612, -98.85067221, 73.79022825], [-100.67796612, -98.45535752, 75.75076902], [-100.67796612, -98.06004283, 77.71131361], [-100.67796612, -97.66472816, 79.67185438], [-100.67796612, -97.26941349, 81.63239515], [-100.67796612, -96.87409874, 83.59293974], [-100.67796612, -96.47878417, 85.55348432], [-100.67796612, -96.08346947, 87.51402509], [-100.67796612, -95.68815466, 89.47456586], [-100.67796612, -95.29283997, 91.43510664], [-100.67796612, -94.89752527, 93.39564741], [-100.67796612, -94.50221082, 95.35619581], [-100.67796612, -94.10689613, 97.31673658], [-100.67796612, -93.71158143, 99.27727735], [-100.67796612, -93.31626674, 101.23781812], [-100.67796612, -92.92095205, 103.19836652], [-100.67796612, -92.52563735, 105.15890729], [-100.67796612, -92.13032266, 107.11944807], [-100.67796612, -91.73500797, 109.07998884], [-100.67796612, -91.33969327, 111.04052961]], "CsaImage.TimeAfterStart": [1.0825, 0.7225, 1.0925, 0.7325, 1.1025, 0.7425, 1.1125, 0.7525, 1.1225, 0.7625, 1.1325, 0.7725, 1.1425, 0.7825, 1.1525, 0.7925, 1.1625, 0.8025, 1.1725, 0.8125, 1.1825, 0.8225, 1.1925, 0.8325, 1.2025, 0.8425, 1.2125, 0.8525, 1.2225, 0.8625, 1.2325, 0.8725, 1.2425, 0.8825, 1.2525, 0.8925, 1.2625, 0.9025, 1.2725, 0.9125, 1.2825, 0.9225, 1.2925, 0.9325, 1.3025, 0.9425, 1.3125, 0.9525, 1.3225, 0.9625, 1.3325, 0.9725, 1.3425, 0.9825, 1.3525, 0.9925, 1.3625, 1.0025, 1.3725, 1.0125, 1.3825, 1.0225, 1.3925, 1.0325, 1.4025, 1.0425, 1.4125, 1.0525, 1.4225, 1.0625, 1.4325, 1.0725], "ImagePositionPatient": [[-100.67796611737, -119.40703650688, -28.15797579223], [-100.67796611737, -119.01172133659, -26.197431206048], [-100.67796611737, -118.61640616631, -24.236890434564], [-100.67796611737, -118.22109099602, -22.276345848382], [-100.67796611737, -117.82577773308, -20.315805076898], [-100.67796611737, -117.43046256279, -18.355264305414], [-100.67796611737, -117.0351473925, -16.394719719232], [-100.67796611737, -116.63983222222, -14.434178947748], [-100.67796611737, -116.24451895928, -12.473634361566], [-100.67796611737, -115.84920378899, -10.513093590082], [-100.67796611737, -115.4538886187, -8.5525509112485], [-100.67796611737, -115.05857344841, -6.5920082324155], [-100.67796611737, -114.66326018547, -4.6314655535825], [-100.67796611737, -114.26794501518, -2.6709247820981], [-100.67796611737, -113.8726298449, -0.7103821032651], [-100.67796611737, -113.47731562828, 1.2501605755679], [-100.67796611737, -113.08200045799, 3.2107032544009], [-100.67796611737, -112.68668624138, 5.1712449795596], [-100.67796611737, -112.29137107109, 7.1317876583926], [-100.67796611737, -111.89605685448, 9.0923303372256], [-100.67796611737, -111.50074168419, 11.052872062384], [-100.67796611737, -111.10542746758, 13.013414741217], [-100.67796611737, -110.71011229729, 14.973956943213], [-100.67796611737, -110.31479808067, 16.934499622046], [-100.67796611737, -109.91948291039, 18.895041883647], [-100.67796611737, -109.52416869377, 20.855584145247], [-100.67796611737, -109.12885352348, 22.816126466452], [-100.67796611737, -108.73353930687, 24.776668906867], [-100.67796611737, -108.33822413658, 26.737211108863], [-100.67796611737, -107.94290991997, 28.697753310858], [-100.67796611737, -107.54759474968, 30.658295989691], [-100.67796611737, -107.15228053307, 32.618838668524], [-100.67796611737, -106.75696536278, 34.579380393683], [-100.67796611737, -106.36165114617, 36.539923072516], [-100.67796611737, -105.96633645271, 38.500465751349], [-100.67796611737, -105.57102175926, 40.461008430182], [-100.67796611737, -105.17570706581, 42.421549201667], [-100.67796611737, -104.78039237236, 44.3820918805], [-100.67796611737, -104.38507767891, 46.342634559333], [-100.67796611737, -103.98976298546, 48.303177238166], [-100.67796611737, -103.59444829201, 50.263719916999], [-100.67796611737, -103.19913359856, 52.224260688483], [-100.67796611737, -102.80381890511, 54.184805274665], [-100.67796611737, -102.40850421166, 56.145346046149], [-100.67796611737, -102.01318975662, 58.105890632331], [-100.67796611737, -101.61787506317, 60.066431403815], [-100.67796611737, -101.22256036972, 62.026972175299], [-100.67796611737, -100.82724567627, 63.987516761481], [-100.67796611737, -100.43193098282, 65.948057532965], [-100.67796611737, -100.03661628937, 67.908602119147], [-100.67796611737, -99.641301595918, 69.869142890631], [-100.67796611737, -99.245986902467, 71.829683662116], [-100.67796611737, -98.850672209016, 73.790228248297], [-100.67796611737, -98.455357515565, 75.750769019782], [-100.67796611737, -98.06004283329, 77.711313605963], [-100.67796611737, -97.664728158466, 79.671854377448], [-100.67796611737, -97.269413494817, 81.632395148932], [-100.67796611737, -96.874098741762, 83.592939735114], [-100.67796611737, -96.47878416752, 85.553484321295], [-100.67796611737, -96.083469474069, 87.51402509278], [-100.67796611737, -95.688154661409, 89.474565864264], [-100.67796611737, -95.292839967958, 91.435106635749], [-100.67796611737, -94.897525274507, 93.395647407233], [-100.67796611737, -94.502210819475, 95.356195808112], [-100.67796611737, -94.106896126024, 97.316736579596], [-100.67796611737, -93.711581432573, 99.277277351081], [-100.67796611737, -93.316266739122, 101.23781812256], [-100.67796611737, -92.920952045671, 103.19836652344], [-100.67796611737, -92.52563735222, 105.15890729493], [-100.67796611737, -92.130322658769, 107.11944806641], [-100.67796611737, -91.735007965318, 109.0799888379], [-100.67796611737, -91.339693271867, 111.04052960938]], "InstanceCreationTime": ["134034.746000", "134034.673000", "134034.748000", "134034.675000", "134034.750000", "134034.677000", "134034.752000", "134034.680000", "134034.755000", "134034.682000", "134034.757000", "134034.684000", "134034.760000", "134034.686000", "134034.762000", "134034.687000", "134034.764000", "134034.689000", "134034.766000", "134034.691000", "134034.768000", "134034.693000", "134034.770000", "134034.695000", "134034.772000", "134034.697000", "134034.774000", "134034.700000", "134034.777000", "134034.703000", "134034.779000", "134034.705000", "134034.781000", "134034.708000", "134034.783000", "134034.710000", "134034.784000", "134034.712000", "134034.787000", "134034.714000", "134034.789000", "134034.716000", "134034.791000", "134034.718000", "134034.792000", "134034.719000", "134034.794000", "134034.721000", "134034.796000", "134034.723000", "134034.798000", "134034.725000", "134034.800000", "134034.727000", "134034.802000", "134034.729000", "134034.804000", "134034.731000", "134034.806000", "134034.733000", "134034.808000", "134034.735000", "134034.811000", "134034.736000", "134034.813000", "134034.738000", "134034.815000", "134034.740000", "134034.817000", "134034.742000", "134034.819000", "134034.744000"], "InstanceNumber": [1, 2, 3, 4, 5, 6, 7, 8, 9, 10, 11, 12, 13, 14, 15, 16, 17, 18, 19, 20, 21, 22, 23, 24, 25, 26, 27, 28, 29, 30, 31, 32, 33, 34, 35, 36, 37, 38, 39, 40, 41, 42, 43, 44, 45, 46, 47, 48, 49, 50, 51, 52, 53, 54, 55, 56, 57, 58, 59, 60, 61, 62, 63, 64, 65, 66, 67, 68, 69, 70, 71, 72], "LargestImagePixelValue": [4095, 4095, 4094, 4094, 4094, 4093, 4093, 4095, 4094, 4094, 4093, 4087, 4095, 4093, 4095, 4094, 4090, 4093, 4095, 4095, 4091, 4094, 4095, 4092, 4094, 4095, 4086, 4087, 4094, 4094, 4091, 4093, 4091, 4081, 4088, 4092, 4077, 4088, 4094, 4089, 4089, 4090, 4079, 4091, 4092, 4092, 4094, 4086, 4088, 4094, 4093, 4093, 4091, 4095, 4093, 4088, 4087, 4095, 4095, 4089, 4094, 4093, 4092, 4095, 4092, 4095, 4093, 4094, 4095, 4094, 4093, 4095], "SliceLocation": [-51.204129307843, -49.204127018278, -47.20412846815, -45.204126178585, -43.204128005459, -41.204129455332, -39.204127165766, -37.204128615639, -35.204126703075, -33.204128152948, -31.204127733101, -29.204127313255, -27.20412727041, -25.204128720283, -23.204128300437, -21.204128069091, -19.204127649245, -17.204128352759, -15.204127932912, -13.204127701567, -11.20412821658, -9.2041279852342, -7.2041280328176, -5.204127801472, -3.2041277906267, -1.2041279682821, 0.79587210099192, 2.7958720986226, 4.7958720510392, 6.7958718149551, 8.7958722348014, 10.795872466147, 12.795871951134, 14.795872182479, 16.795872508075, 18.795872833671, 20.795871289548, 22.795871615144, 24.79587194074, 26.795872266336, 28.795872591932, 30.795871047809, 32.795873243124, 34.795871699001, 36.795873847191, 38.795872303068, 40.795870758945, 42.79587295426, 44.795871410137, 46.795873605452, 48.795872061329, 50.795870517206, 52.795872712521, 54.795871168398, 56.795873361504, 58.795871813699, 60.795870263685, 62.795872470782, 64.795874642534, 66.795873098411, 68.79587157785, 70.795870033728, 72.795868489605, 74.795874377232, 76.795872833109, 78.795871288986, 80.795869744863, 82.795875679616, 84.795874135493, 86.79587259137, 88.795871047247, 90.795869503124], "SmallestImagePixelValue": [0, 0, 0, 0, 0, 0, 0, 2, 0, 0, 1, 0, 0, 0, 5, 0, 3, 0, 0, 0, 4, 0, 2, 2, 5, 4, 3, 5, 5, 0, 2, 0, 1, 0, 19, 42, 13, 5, 6, 0, 2, 4, 2, 11, 2, 11, 0, 9, 4, 2, 7, 3, 6, 0, 1, 1, 5, 0, 0, 2, 0, 0, 0, 0, 0, 0, 2, 1, 0, 0, 1, 0], "WindowCenter": [-182.0, -166.0, -250.0, -256.0, -252.0, -158.0, -188.0, -296.0, -344.0, -330.0, -344.0, -392.0, -342.0, -318.0, -224.0, -236.0, -222.0, -232.0, -286.0, -258.0, -264.0, -250.0, -230.0, -216.0, -238.0, -250.0, -224.0, -186.0, -214.0, -322.0, -316.0, -286.0, -130.0, -132.0, -120.0, -110.0, -134.0, -160.0, -160.0, -144.0, -156.0, -154.0, -178.0, -262.0, -100.0, -130.0, -100.0, -190.0, -176.0, -48.0, -180.0, -56.0, -26.0, -20.0, -56.0, -68.0, -56.0, -76.0, -72.0, -80.0, -88.0, -84.0, -68.0, -72.0, -48.0, -64.0, -86.0, -126.0, -98.0, -166.0, -186.0, -228.0], "WindowWidth": [6224.0, 6236.0, 6256.0, 6252.0, 6282.0, 6324.0, 6316.0, 6282.0, 6256.0, 6246.0, 6152.0, 6088.0, 5970.0, 5912.0, 5922.0, 5840.0, 5800.0, 5810.0, 5762.0, 5720.0, 5622.0, 5446.0, 5370.0, 5504.0, 5322.0, 5224.0, 5190.0, 5284.0, 5042.0, 4588.0, 4594.0, 4586.0, 5232.0, 5264.0, 5256.0, 5286.0, 5220.0, 5108.0, 5166.0, 5292.0, 5230.0, 5232.0, 5000.0, 4602.0, 5312.0, 4922.0, 4954.0, 4562.0, 4550.0, 5156.0, 4562.0, 5048.0, 5274.0, 5320.0, 5294.0, 5254.0, 5392.0, 5378.0, 5580.0, 5628.0, 5606.0, 5726.0, 5762.0, 5796.0, 5852.0, 5904.0, 5972.0, 6016.0, 6050.0, 6110.0, 6074.0, 6102.0]}}, "IntendedFor": ["ses-action01/func/sub-01_ses-action01_task-action_run-06_bold.nii.gz", "ses-action01/func/sub-01_ses-action01_task-action_run-09_bold.nii.gz", "ses-action01/func/sub-01_ses-action01_task-action_run-04_bold.nii.gz", "ses-action01/func/sub-01_ses-action01_task-action_run-12_bold.nii.gz", "ses-action01/func/sub-01_ses-action01_task-action_run-02_bold.nii.gz", "ses-action01/func/sub-01_ses-action01_task-action_run-10_bold.nii.gz", "ses-action01/func/sub-01_ses-action01_task-action_run-03_bold.nii.gz", "ses-action01/func/sub-01_ses-action01_task-action_run-11_bold.nii.gz", "ses-action01/func/sub-01_ses-action01_task-action_run-01_bold.nii.gz", "ses-action01/func/sub-01_ses-action01_task-action_run-08_bold.nii.gz", "ses-action01/func/sub-01_ses-action01_task-action_run-07_bold.nii.gz", "ses-action01/func/sub-01_ses-action01_task-action_run-05_bold.nii.gz"]}