{"AcquisitionMatrixPE": 100, "AcquisitionNumber": 1, "AcquisitionTime": "13:39:41.947500", "BaseResolution": 100, "BodyPartExamined": "BRAIN", "CoilCombinationMethod": "Sum of Squares", "ConsistencyInfo": "N4_VE11C_LATEST_20160120", "ConversionSoftware": "dcm2niix", "ConversionSoftwareVersion": "v1.0.20211006", "DeviceSerialNumber": "166078", "DwellTime": 8.8e-06, "EchoNumber": 2, "EchoTime": 0.00738, "EchoTime1": 0.00492, "EchoTime2": 0.00738, "FlipAngle": 60, "ImageOrientationPatientDICOM": [1, -5.21205e-05, -0.00027326, -4.469e-12, 0.982292, -0.187358], "ImageOrientationText": "Tra>Cor(-10.8)>Sag(-0.0)", "ImageType": ["ORIGINAL", "PRIMARY", "P", "ND", "PHASE"], "ImagingFrequency": 123.258, "InPlanePhaseEncodingDirectionDICOM": "ROW", "InstitutionAddress": "Street StreetNo,Bei Jing,District,CN,ZIP", "InstitutionName": "BeiJing Normal University", "InstitutionalDepartmentName": "Department", "MRAcquisitionType": "2D", "MagneticFieldStrength": 3, "Manufacturer": "Siemens", "ManufacturersModelName": "Prisma", "MatrixCoilMode": "SENSE", "Modality": "MR", "MultibandAccelerationFactor": 2, "PartialFourier": 1, "PatientPosition": "HFS", "PercentPhaseFOV": 100, "PercentSampling": 100, "PhaseEncodingDirection": "i", "PhaseEncodingSteps": 100, "PhaseResolution": 1, "PixelBandwidth": 570, "ProcedureStepDescription": "BNU_P2018_64CH^Zhen.ZongLei", "ProtocolName": "field_mapping_2x2x2", "PulseSequenceDetails": "%SiemensSeq%\\gre_field_mapping", "ReceiveCoilActiveElements": "HC1-7;NC1", "ReceiveCoilName": "HeadNeck_64", "ReconMatrixPE": 100, "RepetitionTime": 0.72, "SAR": 0.142163, "ScanningSequence": "GR", "SequenceName": "*fm2d2r", "SequenceVariant": "SP", "SeriesDescription": "field_mapping_2x2x2", "SeriesNumber": 10, "ShimSetting": [-5444, -11516, -1230, 507, 35, -190, -117, 18], "SliceThickness": 2, "SliceTiming": [0.35938, 0, 0.35938, 0, 0.375, 0.01562, 0.39062, 0.03125, 0.39062, 0.03125, 0.40625, 0.04688, 0.40625, 0.04688, 0.42188, 0.0625, 0.4375, 0.07812, 0.4375, 0.07812, 0.45312, 0.09375, 0.46875, 0.10938, 0.46875, 0.10938, 0.48438, 0.125, 0.5, 0.14062, 0.5, 0.14062, 0.51562, 0.15625, 0.53125, 0.15625, 0.53125, 0.17188, 0.54688, 0.1875, 0.54688, 0.1875, 0.5625, 0.20312, 0.57812, 0.21875, 0.57812, 0.21875, 0.59375, 0.23438, 0.60938, 0.25, 0.60938, 0.25, 0.625, 0.26562, 0.64062, 0.28125, 0.64062, 0.28125, 0.65625, 0.29688, 0.65625, 0.29688, 0.67188, 0.3125, 0.6875, 0.32812, 0.6875, 0.32812, 0.70312, 0.34375], "SoftwareVersions": "syngo MR E11", "SpacingBetweenSlices": 2, "StationName": "AWP166078", "TxRefAmp": 227.505, "dcmmeta_affine": [[-1.9999998807907104, -8.937999645963757e-12, -0.0005564689636230469, 101.46331024169922], [0.00010424096399219707, 1.9645832777023315, -0.37471675872802734, -80.93177032470703], [-0.0005465201684273779, 0.3747164011001587, 1.9645843505859375, -77.7530517578125], [0.0, 0.0, 0.0, 1.0]], "dcmmeta_reorient_transform": [[0.0, -1.0, 0.0, 99.0], [1.0, 0.0, 0.0, 0.0], [0.0, 0.0, -1.0, 71.0], [0.0, 0.0, 0.0, 1.0]], "dcmmeta_shape": [100, 100, 72], "dcmmeta_slice_dim": 2, "dcmmeta_version": 0.6, "global": {"const": {"AcquisitionMatrix": [0, 100, 100, 0], "AcquisitionNumber": 1, "AngioFlag": "N", "BitsAllocated": 16, "BitsStored": 12, "BodyPartExamined": "BRAIN", "Columns": 100, "EchoNumbers": 2, "EchoTime": 7.38, "EchoTrainLength": 0, "FlipAngle": 60.0, "HighBit": 11, "ImageOrientationPatient": [0.99999996130619, -5.21204804e-05, -0.0002732600866, -4.469e-12, 0.9822916599978, -0.1873581989099], "ImageType": ["ORIGINAL", "PRIMARY", "P", "ND"], "ImagedNucleus": "1H", "ImagingFrequency": 123.257727, "InPlanePhaseEncodingDirection": "ROW", "MRAcquisitionType": "2D", "MagneticFieldStrength": 3.0, "Manufacturer": "SIEMENS", "ManufacturerModelName": "Prisma", "Modality": "MR", "NumberOfAverages": 1.0, "NumberOfPhaseEncodingSteps": 100, "PercentPhaseFieldOfView": 100.0, "PercentSampling": 100.0, "PerformedProcedureStepStartTime": "125823.622000", "PhotometricInterpretation": "MONOCHROME2", "PixelBandwidth": 570.0, "PixelRepresentation": 0, "PixelSpacing": [2.0, 2.0], "ProtocolName": "field_mapping_2x2x2", "RepetitionTime": 720.0, "RescaleIntercept": -4096.0, "RescaleSlope": 2.0, "RescaleType": "US", "Rows": 100, "SAR": 0.14216345614022, "SamplesPerPixel": 1, "ScanningSequence": "GR", "SequenceName": "*fm2d2r", "SequenceVariant": "SP", "SeriesDescription": "field_mapping_2x2x2", "SeriesNumber": 10, "SeriesTime": "134205.602000", "SliceThickness": 2.0, "SoftwareVersions": "syngo MR E11", "SpacingBetweenSlices": 2.0, "SpecificCharacterSet": "ISO_IR 100", "StudyID": "1", "StudyTime": "125823.466000", "TransmitCoilName": "Body", "VariableFlipAngleFlag": "N", "WindowCenterWidthExplanation": "Algo1", "dBdt": 0.0}, "slices": {"AcquisitionTime": ["133941.947500", "133941.587500", "133941.957500", "133941.597500", "133941.967500", "133941.607500", "133941.977500", "133941.617500", "133941.987500", "133941.627500", "133941.997500", "133941.637500", "133942.007500", "133941.647500", "133942.017500", "133941.657500", "133942.027500", "133941.667500", "133942.037500", "133941.677500", "133942.047500", "133941.687500", "133942.057500", "133941.697500", "133942.067500", "133941.707500", "133942.077500", "133941.717500", "133942.087500", "133941.727500", "133942.097500", "133941.737500", "133942.107500", "133941.747500", "133942.117500", "133941.757500", "133942.127500", "133941.767500", "133942.137500", "133941.777500", "133942.147500", "133941.787500", "133942.157500", "133941.797500", "133942.167500", "133941.807500", "133942.177500", "133941.817500", "133942.187500", "133941.827500", "133942.197500", "133941.837500", "133942.207500", "133941.847500", "133942.217500", "133941.857500", "133942.227500", "133941.867500", "133942.237500", "133941.877500", "133942.247500", "133941.887500", "133942.257500", "133941.897500", "133942.267500", "133941.907500", "133942.277500", "133941.917500", "133942.287500", "133941.927500", "133942.297500", "133941.937500"], "ContentTime": ["134207.226000", "134205.609000", "134207.227000", "134205.617000", "134207.229000", "134205.619000", "134207.231000", "134205.621000", "134207.233000", "134207.162000", "134207.235000", "134207.165000", "134207.237000", "134207.167000", "134207.238000", "134207.169000", "134207.240000", "134207.171000", "134207.242000", "134207.173000", "134207.244000", "134207.175000", "134207.246000", "134207.178000", "134207.248000", "134207.179000", "134207.249000", "134207.182000", "134207.252000", "134207.184000", "134207.254000", "134207.186000", "134207.255000", "134207.188000", "134207.257000", "134207.189000", "134207.259000", "134207.191000", "134207.261000", "134207.193000", "134207.263000", "134207.195000", "134207.265000", "134207.197000", "134207.267000", "134207.199000", "134207.269000", "134207.201000", "134207.270000", "134207.202000", "134207.272000", "134207.204000", "134207.274000", "134207.206000", "134207.276000", "134207.208000", "134207.278000", "134207.210000", "134207.280000", "134207.213000", "134207.282000", "134207.214000", "134207.284000", "134207.216000", "134207.285000", "134207.218000", "134207.287000", "134207.220000", "134207.289000", "134207.222000", "134207.291000", "134207.224000"], "CsaImage.GSWDDataType": ["measured", "predicted", "measured", "predicted", "measured", "predicted", "measured", "predicted", "measured", "predicted", "measured", "predicted", "measured", "predicted", "measured", "predicted", "measured", "predicted", "measured", "predicted", "measured", "predicted", "measured", "predicted", "measured", "predicted", "measured", "predicted", "measured", "predicted", "measured", "predicted", "measured", "predicted", "measured", "predicted", "measured", "predicted", "measured", "predicted", "measured", "predicted", "measured", "predicted", "measured", "predicted", "measured", "predicted", "measured", "predicted", "measured", "predicted", "measured", "predicted", "measured", "predicted", "measured", "predicted", "measured", "predicted", "measured", "predicted", "measured", "measured", "measured", "measured", "measured", "measured", "measured", "measured", "measured", "measured"], "CsaImage.ICE_Dims": ["X_2_1_1_1_1_1_37_1_1_1_1_106", "X_2_1_1_1_1_1_1_1_1_2_1_106", "X_2_1_1_1_1_1_38_1_1_3_1_106", "X_2_1_1_1_1_1_2_1_1_4_1_106", "X_2_1_1_1_1_1_39_1_1_5_1_106", "X_2_1_1_1_1_1_3_1_1_6_1_106", "X_2_1_1_1_1_1_40_1_1_7_1_106", "X_2_1_1_1_1_1_4_1_1_8_1_106", "X_2_1_1_1_1_1_41_1_1_9_1_106", "X_2_1_1_1_1_1_5_1_1_10_1_106", "X_2_1_1_1_1_1_42_1_1_11_1_106", "X_2_1_1_1_1_1_6_1_1_12_1_106", "X_2_1_1_1_1_1_43_1_1_13_1_106", "X_2_1_1_1_1_1_7_1_1_14_1_106", "X_2_1_1_1_1_1_44_1_1_15_1_106", "X_2_1_1_1_1_1_8_1_1_16_1_106", "X_2_1_1_1_1_1_45_1_1_17_1_106", "X_2_1_1_1_1_1_9_1_1_18_1_106", "X_2_1_1_1_1_1_46_1_1_19_1_106", "X_2_1_1_1_1_1_10_1_1_20_1_106", "X_2_1_1_1_1_1_47_1_1_21_1_106", "X_2_1_1_1_1_1_11_1_1_22_1_106", "X_2_1_1_1_1_1_48_1_1_23_1_106", "X_2_1_1_1_1_1_12_1_1_24_1_106", "X_2_1_1_1_1_1_49_1_1_25_1_106", "X_2_1_1_1_1_1_13_1_1_26_1_106", "X_2_1_1_1_1_1_50_1_1_27_1_106", "X_2_1_1_1_1_1_14_1_1_28_1_106", "X_2_1_1_1_1_1_51_1_1_29_1_106", "X_2_1_1_1_1_1_15_1_1_30_1_106", "X_2_1_1_1_1_1_52_1_1_31_1_106", "X_2_1_1_1_1_1_16_1_1_32_1_106", "X_2_1_1_1_1_1_53_1_1_33_1_106", "X_2_1_1_1_1_1_17_1_1_34_1_106", "X_2_1_1_1_1_1_54_1_1_35_1_106", "X_2_1_1_1_1_1_18_1_1_36_1_106", "X_2_1_1_1_1_1_55_1_1_37_1_106", "X_2_1_1_1_1_1_19_1_1_38_1_106", "X_2_1_1_1_1_1_56_1_1_39_1_106", "X_2_1_1_1_1_1_20_1_1_40_1_106", "X_2_1_1_1_1_1_57_1_1_41_1_106", "X_2_1_1_1_1_1_21_1_1_42_1_106", "X_2_1_1_1_1_1_58_1_1_43_1_106", "X_2_1_1_1_1_1_22_1_1_44_1_106", "X_2_1_1_1_1_1_59_1_1_45_1_106", "X_2_1_1_1_1_1_23_1_1_46_1_106", "X_2_1_1_1_1_1_60_1_1_47_1_106", "X_2_1_1_1_1_1_24_1_1_48_1_106", "X_2_1_1_1_1_1_61_1_1_49_1_106", "X_2_1_1_1_1_1_25_1_1_50_1_106", "X_2_1_1_1_1_1_62_1_1_51_1_106", "X_2_1_1_1_1_1_26_1_1_52_1_106", "X_2_1_1_1_1_1_63_1_1_53_1_106", "X_2_1_1_1_1_1_27_1_1_54_1_106", "X_2_1_1_1_1_1_64_1_1_55_1_106", "X_2_1_1_1_1_1_28_1_1_56_1_106", "X_2_1_1_1_1_1_65_1_1_57_1_106", "X_2_1_1_1_1_1_29_1_1_58_1_106", "X_2_1_1_1_1_1_66_1_1_59_1_106", "X_2_1_1_1_1_1_30_1_1_60_1_106", "X_2_1_1_1_1_1_67_1_1_61_1_106", "X_2_1_1_1_1_1_31_1_1_62_1_106", "X_2_1_1_1_1_1_68_1_1_63_1_106", "X_2_1_1_1_1_1_32_1_1_64_1_106", "X_2_1_1_1_1_1_69_1_1_65_1_106", "X_2_1_1_1_1_1_33_1_1_66_1_106", "X_2_1_1_1_1_1_70_1_1_67_1_106", "X_2_1_1_1_1_1_34_1_1_68_1_106", "X_2_1_1_1_1_1_71_1_1_69_1_106", "X_2_1_1_1_1_1_35_1_1_70_1_106", "X_2_1_1_1_1_1_72_1_1_71_1_106", "X_2_1_1_1_1_1_36_1_1_72_1_106"], "CsaImage.ProtocolSliceNumber": [0, 1, 2, 3, 4, 5, 6, 7, 8, 9, 10, 11, 12, 13, 14, 15, 16, 17, 18, 19, 20, 21, 22, 23, 24, 25, 26, 27, 28, 29, 30, 31, 32, 33, 34, 35, 36, 37, 38, 39, 40, 41, 42, 43, 44, 45, 46, 47, 48, 49, 50, 51, 52, 53, 54, 55, 56, 57, 58, 59, 60, 61, 62, 63, 64, 65, 66, 67, 68, 69, 70, 71], "CsaImage.RFSWDDataType": ["measured", "predicted", "measured", "predicted", "measured", "predicted", "measured", "predicted", "measured", "predicted", "measured", "predicted", "measured", "predicted", "measured", "predicted", "measured", "predicted", "measured", "predicted", "measured", "predicted", "measured", "predicted", "measured", "predicted", "measured", "predicted", "measured", "predicted", "measured", "predicted", "measured", "predicted", "measured", "predicted", "measured", "predicted", "measured", "predicted", "measured", "predicted", "measured", "predicted", "measured", "predicted", "measured", "predicted", "measured", "predicted", "measured", "predicted", "measured", "predicted", "measured", "predicted", "measured", "predicted", "measured", "measured", "measured", "measured", "measured", "measured", "measured", "measured", "measured", "measured", "measured", "measured", "measured", "measured"], "CsaImage.SlicePosition_PCS": [[-101.46330208, -113.5619552, -40.65605118], [-101.46274573, -113.1872394, -38.69146683], [-101.46218938, -112.81252264, -36.72688248], [-101.46163291, -112.43780588, -34.76230195], [-101.46107656, -112.06309008, -32.7977176], [-101.46052021, -111.68837332, -30.83313324], [-101.45996386, -111.31365656, -28.86854889], [-101.45940751, -110.93894075, -26.90396836], [-101.45885104, -110.56422399, -24.93938401], [-101.45829469, -110.18950819, -22.97479966], [-101.45773834, -109.81479143, -21.01021912], [-101.45718199, -109.44007467, -19.04563477], [-101.45662564, -109.06535887, -17.08105042], [-101.45606918, -108.69064211, -15.11646988], [-101.45551283, -108.3159263, -13.15188553], [-101.45495648, -107.94120954, -11.18730118], [-101.45440013, -107.56649279, -9.22271874], [-101.45384378, -107.19177698, -7.25813439], [-101.45328731, -106.81706022, -5.29355195], [-101.45273096, -106.44234346, -3.3289676], [-101.45217461, -106.06762766, -1.36438515], [-101.45161826, -105.6929109, 0.60019729], [-101.45106191, -105.31819462, 2.56478164], [-101.45050556, -104.94347834, 4.52936409], [-101.44994909, -104.56876205, 6.49394748], [-101.44939274, -104.19404529, 8.45853088], [-101.44883639, -103.81932901, 10.42311428], [-101.44828004, -103.44461273, 12.3876972], [-101.44772369, -103.06989645, 14.35228059], [-101.44716722, -102.69518017, 16.31686399], [-101.44661087, -102.32046341, 18.28144712], [-101.44605452, -101.94574713, 20.24603031], [-101.44549817, -101.57103084, 22.2106137], [-101.44494182, -101.19631432, 24.17519662], [-101.44438535, -100.82159804, 26.13978002], [-101.443829, -100.44688152, 28.10436294], [-101.44327265, -100.07216512, 30.06894634], [-101.4427163, -99.69744872, 32.03352973], [-101.44215996, -99.32273232, 33.99811313], [-101.44160349, -98.94801598, 35.96269653], [-101.44104714, -98.57329958, 37.92727897], [-101.44049079, -98.19858318, 39.89186332], [-101.43993444, -97.8238668, 41.85644577], [-101.43937809, -97.44915037, 43.82103012], [-101.43882162, -97.07443403, 45.78561256], [-101.43826527, -96.69971763, 47.750195], [-101.43770892, -96.32500123, 49.71477935], [-101.43715257, -95.95028471, 51.6793637], [-101.43659622, -95.57556843, 53.64394424], [-101.43603987, -95.20085191, 55.60852859], [-101.4354834, -94.82613562, 57.57311294], [-101.43492705, -94.45141934, 59.53769348], [-101.4343707, -94.07670282, 61.50227783], [-101.43381435, -93.70198654, 63.46686218], [-101.433258, -93.32727026, 65.43144653], [-101.43270153, -92.9525535, 67.39602706], [-101.43214518, -92.57783722, 69.36061141], [-101.43158883, -92.20312094, 71.32519577], [-101.43103248, -91.82840465, 73.2897763], [-101.43047613, -91.4536879, 75.25436065], [-101.42991966, -91.07897161, 77.218945], [-101.42936331, -90.70425533, 79.18352935], [-101.42880697, -90.32953905, 81.14810989], [-101.42825062, -89.95482229, 83.11269424], [-101.42769427, -89.58010649, 85.07727859], [-101.4271378, -89.20538973, 87.04186294], [-101.42658145, -88.83067297, 89.00644729], [-101.4260251, -88.45595716, 90.97102401], [-101.42546875, -88.0812404, 92.93560836], [-101.4249124, -87.70652365, 94.90019271], [-101.42435605, -87.33180784, 96.86477706], [-101.42379958, -86.95709108, 98.82936141]], "CsaImage.TimeAfterStart": [1.0825, 0.7225, 1.0925, 0.7325, 1.1025, 0.7425, 1.1125, 0.7525, 1.1225, 0.7625, 1.1325, 0.7725, 1.1425, 0.7825, 1.1525, 0.7925, 1.1625, 0.8025, 1.1725, 0.8125, 1.1825, 0.8225, 1.1925, 0.8325, 1.2025, 0.8425, 1.2125, 0.8525, 1.2225, 0.8625, 1.2325, 0.8725, 1.2425, 0.8825, 1.2525, 0.8925, 1.2625, 0.9025, 1.2725, 0.9125, 1.2825, 0.9225, 1.2925, 0.9325, 1.3025, 0.9425, 1.3125, 0.9525, 1.3225, 0.9625, 1.3325, 0.9725, 1.3425, 0.9825, 1.3525, 0.9925, 1.3625, 1.0025, 1.3725, 1.0125, 1.3825, 1.0225, 1.3925, 1.0325, 1.4025, 1.0425, 1.4125, 1.0525, 1.4225, 1.0625, 1.4325, 1.0725], "ImagePositionPatient": [[-101.46330208034, -113.56195520296, -40.656051182872], [-101.46274573058, -113.18723939791, -38.691466832286], [-101.46218938083, -112.81252263918, -36.726882481701], [-101.46163291186, -112.43780588045, -34.762301945812], [-101.46107656211, -112.0630900754, -32.797717595226], [-101.46052021236, -111.68837331667, -30.83313324464], [-101.4599638626, -111.31365655794, -28.868548894054], [-101.45940751285, -110.93894075289, -26.903968358165], [-101.45885104388, -110.56422399416, -24.939384007579], [-101.45829469413, -110.18950818911, -22.974799656994], [-101.45773834437, -109.81479143038, -21.010219121105], [-101.45718199462, -109.44007467165, -19.045634770519], [-101.45662564487, -109.0653588666, -17.081050419933], [-101.4560691759, -108.69064210787, -15.116469884044], [-101.45551282615, -108.31592630282, -13.151885533458], [-101.45495647639, -107.94120954409, -11.187301182872], [-101.45440012664, -107.56649278536, -9.2227187396351], [-101.45384377689, -107.19177698031, -7.2581343890492], [-101.45328730792, -106.81706022158, -5.2935519458119], [-101.45273095817, -106.44234346285, -3.328967595226], [-101.45217460841, -106.0676276578, -1.3643851519886], [-101.45161825866, -105.69291089907, 0.60019729124866], [-101.4510619089, -105.31819461718, 2.5647816418346], [-101.45050555915, -104.94347833529, 4.5293640850719], [-101.44994909019, -104.5687620534, 6.4939474819835], [-101.44939274043, -104.19404529467, 8.4585308788951], [-101.44883639068, -103.81932901278, 10.423114275807], [-101.44828004092, -103.44461273089, 12.387697195881], [-101.44772369117, -103.069896449, 14.352280592793], [-101.44716722221, -102.69518016711, 16.316863989704], [-101.44661087245, -102.32046340838, 18.281447118395], [-101.4460545227, -101.94574712649, 20.246030306691], [-101.44549817294, -101.5710308446, 22.210613703602], [-101.44494182319, -101.19631432429, 24.175196623677], [-101.44438535422, -100.8215980424, 26.139780020588], [-101.44382900447, -100.44688152209, 28.104362940663], [-101.44327265472, -100.07216512099, 30.068946337574], [-101.44271630496, -99.697448719886, 32.033529734486], [-101.44215995521, -99.322732318785, 33.998113131398], [-101.44160348624, -98.94801597729, 35.962696528309], [-101.44104713649, -98.57329957619, 37.927278971547], [-101.44049078673, -98.198583184403, 39.891863322132], [-101.43993443698, -97.823866803792, 41.85644576537], [-101.43937808723, -97.449150372889, 43.821030115956], [-101.43882161826, -97.074434031394, 45.785612559193], [-101.43826526851, -96.699717630294, 47.75019500243], [-101.43770891875, -96.325001229193, 49.714779353016], [-101.437152569, -95.950284708884, 51.679363703602], [-101.43659621925, -95.575568426993, 53.643944239491], [-101.43603986949, -95.200851906684, 55.608528590077], [-101.43548340053, -94.826135624793, 57.573112940663], [-101.43492705077, -94.451419342902, 59.537693476551], [-101.43437070102, -94.076702822592, 61.502277827137], [-101.43381435126, -93.701986540702, 63.466862177723], [-101.43325800151, -93.327270258811, 65.431446528309], [-101.43270153255, -92.952553500083, 67.396027064198], [-101.43214518279, -92.577837218192, 69.360611414784], [-101.43158883304, -92.203120936301, 71.32519576537], [-101.43103248328, -91.82840465441, 73.289776301258], [-101.43047613353, -91.453687895682, 75.254360651844], [-101.42991966457, -91.078971613791, 77.21894500243], [-101.42936331481, -90.7042553319, 79.183529353016], [-101.42880696506, -90.329539050009, 81.148109888905], [-101.4282506153, -89.954822291281, 83.112694239491], [-101.42769426555, -89.580106486228, 85.077278590077], [-101.42713779658, -89.2053897275, 87.041862940663], [-101.42658144683, -88.830672968772, 89.006447291249], [-101.42602509708, -88.455957163718, 90.97102401244], [-101.42546874732, -88.08124040499, 92.935608363026], [-101.42491239757, -87.706523646262, 94.900192713612], [-101.42435604781, -87.331807841208, 96.864777064198], [-101.42379957885, -86.95709108248, 98.829361414784]], "InstanceCreationTime": ["134207.226000", "134205.609000", "134207.227000", "134205.617000", "134207.229000", "134205.619000", "134207.231000", "134205.621000", "134207.233000", "134207.162000", "134207.235000", "134207.165000", "134207.237000", "134207.167000", "134207.238000", "134207.169000", "134207.240000", "134207.171000", "134207.242000", "134207.173000", "134207.244000", "134207.175000", "134207.246000", "134207.178000", "134207.248000", "134207.179000", "134207.249000", "134207.182000", "134207.252000", "134207.184000", "134207.254000", "134207.186000", "134207.255000", "134207.188000", "134207.257000", "134207.189000", "134207.259000", "134207.191000", "134207.261000", "134207.193000", "134207.263000", "134207.195000", "134207.265000", "134207.197000", "134207.267000", "134207.199000", "134207.269000", "134207.201000", "134207.270000", "134207.202000", "134207.272000", "134207.204000", "134207.274000", "134207.206000", "134207.276000", "134207.208000", "134207.278000", "134207.210000", "134207.280000", "134207.213000", "134207.282000", "134207.214000", "134207.284000", "134207.216000", "134207.285000", "134207.218000", "134207.287000", "134207.220000", "134207.289000", "134207.222000", "134207.291000", "134207.224000"], "InstanceNumber": [1, 2, 3, 4, 5, 6, 7, 8, 9, 10, 11, 12, 13, 14, 15, 16, 17, 18, 19, 20, 21, 22, 23, 24, 25, 26, 27, 28, 29, 30, 31, 32, 33, 34, 35, 36, 37, 38, 39, 40, 41, 42, 43, 44, 45, 46, 47, 48, 49, 50, 51, 52, 53, 54, 55, 56, 57, 58, 59, 60, 61, 62, 63, 64, 65, 66, 67, 68, 69, 70, 71, 72], "LargestImagePixelValue": [4094, 4094, 4093, 4094, 4088, 4094, 4090, 4095, 4094, 4091, 4094, 4094, 4095, 4095, 4095, 4094, 4091, 4091, 4095, 4094, 4093, 4092, 4094, 4095, 4095, 4095, 4092, 4094, 4094, 4089, 4092, 4090, 4093, 4093, 4094, 4092, 4093, 4095, 4093, 4087, 4093, 4088, 4087, 4090, 4094, 4094, 4094, 4091, 4091, 4093, 4094, 4094, 4094, 4094, 4095, 4094, 4095, 4091, 4094, 4092, 4094, 4094, 4094, 4092, 4093, 4094, 4095, 4095, 4093, 4094, 4092, 4094], "SliceLocation": [-61.241086729269, -59.241085750607, -57.241084593266, -55.241087183038, -53.241086204376, -51.241085047035, -49.241083889694, -47.241086658178, -45.241085500804, -43.241084522142, -41.241087111947, -39.241085954606, -37.241084975944, -35.241087565715, -33.241086587053, -31.241085429713, -29.241086145945, -27.241085167283, -25.241085883482, -23.241084726141, -21.241085621052, -19.241086337284, -17.241085269282, -15.241086074854, -13.241085943606, -11.241085723051, -9.2410855918362, -7.2410859290144, -5.2410857977994, -3.2410856665513, -1.2410857094681, 0.75891421682492, 2.7589143480399, 4.7589140555314, 6.7589141867796, 8.7589138942711, 10.758914047821, 12.758914201371, 14.758914354921, 16.758914497336, 18.7589137141, 20.758914802691, 22.758914015616, 24.758915111535, 26.758914317165, 28.758913533928, 30.758914624264, 32.758915736935, 34.758913057791, 36.758914170462, 38.758915238497, 40.758912559353, 42.758913672024, 44.758914740025, 46.758915808026, 48.758913218255, 50.758914286256, 52.758915354258, 54.758912675114, 56.758913832454, 58.758914900489, 60.75891596849, 62.758913289346, 64.758914446687, 66.758915425349, 68.758916582722, 70.758917740063, 72.758911224435, 74.758912381775, 76.758913539116, 78.758914517778, 80.758915675152], "SmallestImagePixelValue": [1, 1, 3, 0, 1, 2, 0, 0, 0, 0, 3, 0, 0, 0, 0, 3, 6, 0, 10, 6, 2, 0, 3, 0, 0, 4, 1, 0, 0, 0, 0, 0, 1, 2, 2, 8, 1, 4, 5, 3, 1, 0, 1, 0, 2, 2, 3, 0, 0, 0, 1, 2, 6, 1, 3, 0, 0, 0, 0, 0, 1, 0, 0, 0, 0, 1, 1, 0, 0, 0, 0, 0], "WindowCenter": [-198.0, -248.0, -242.0, -292.0, -216.0, -224.0, -228.0, -230.0, -208.0, -166.0, -168.0, -156.0, -126.0, -72.0, -138.0, -182.0, -198.0, -194.0, -186.0, -176.0, -176.0, -188.0, -208.0, -204.0, -176.0, -226.0, -302.0, -334.0, -412.0, -432.0, -402.0, -358.0, -308.0, -286.0, -146.0, -254.0, -248.0, -240.0, -84.0, -100.0, -60.0, -90.0, -88.0, -72.0, -80.0, -42.0, -44.0, -56.0, -16.0, -48.0, -34.0, -68.0, -50.0, -46.0, -76.0, -134.0, -72.0, -64.0, -60.0, -66.0, -88.0, -96.0, -108.0, -88.0, -110.0, -160.0, -182.0, -278.0, -298.0, -318.0, -314.0, -334.0], "WindowWidth": [6140.0, 6186.0, 6112.0, 6046.0, 6042.0, 6076.0, 6050.0, 6096.0, 6130.0, 6176.0, 6174.0, 6216.0, 6204.0, 6224.0, 6120.0, 6020.0, 5942.0, 5918.0, 5906.0, 5856.0, 5724.0, 5666.0, 5628.0, 5638.0, 5590.0, 5450.0, 5320.0, 5184.0, 4630.0, 4626.0, 4628.0, 4616.0, 4614.0, 4616.0, 5110.0, 4606.0, 4610.0, 4604.0, 5334.0, 5186.0, 5372.0, 5214.0, 5188.0, 5290.0, 5160.0, 5356.0, 5292.0, 5272.0, 5392.0, 5306.0, 5440.0, 5322.0, 5384.0, 5406.0, 5434.0, 5200.0, 5538.0, 5590.0, 5548.0, 5724.0, 5702.0, 5736.0, 5818.0, 5912.0, 5972.0, 5956.0, 5908.0, 5902.0, 5946.0, 5956.0, 5992.0, 6216.0]}}, "IntendedFor": ["ses-action01/func/sub-06_ses-action01_task-action_run-09_bold.nii.gz", "ses-action01/func/sub-06_ses-action01_task-action_run-06_bold.nii.gz", "ses-action01/func/sub-06_ses-action01_task-action_run-04_bold.nii.gz", "ses-action01/func/sub-06_ses-action01_task-action_run-02_bold.nii.gz", "ses-action01/func/sub-06_ses-action01_task-action_run-12_bold.nii.gz", "ses-action01/func/sub-06_ses-action01_task-action_run-10_bold.nii.gz", "ses-action01/func/sub-06_ses-action01_task-action_run-03_bold.nii.gz", "ses-action01/func/sub-06_ses-action01_task-action_run-01_bold.nii.gz", "ses-action01/func/sub-06_ses-action01_task-action_run-11_bold.nii.gz", "ses-action01/func/sub-06_ses-action01_task-action_run-07_bold.nii.gz", "ses-action01/func/sub-06_ses-action01_task-action_run-08_bold.nii.gz", "ses-action01/func/sub-06_ses-action01_task-action_run-05_bold.nii.gz"]}